# == pyFAI calibration ==
# Distance Sample to Detector: 2.9997704 m
# PONI: 4.785e-01, 4.477e-01 m
# Rotations: 0.000000 0.000000 0.000000 rad
# 
# == Fit2d calibration ==
# Distance Sample-beamCenter: 2999.770 mm
# Center: x=59.700, y=63.800 pix
# Tilt: 0.000 deg  TiltPlanRot: 0.000 deg
# 
# Detector Detector	 Spline= None	 PixelSize= 7.500e-03, 7.500e-03 m
#    Detector has a mask: False 
#    Detector has a dark current: False 
#    detector has a flat field: False 
# 
# Wavelength: 4.99764e-10 m
# Mask applied: user provided
# Dark current applied: False
# Flat field applied: False
# Polarization factor: None
# Normalization factor: 1
# --> AL_P188_Px10mgml_f5370359_r1d.csv
#        q_A^-1              I           sigma 
  8.909247e-03    4.676863e+02   6.248312e+01
  9.451148e-03    4.705218e+02   4.756890e+01
  9.993050e-03    4.707797e+02   3.734373e+01
  1.053495e-02    4.633612e+02   2.982828e+01
  1.107685e-02    4.632838e+02   2.971301e+01
  1.161876e-02    4.639048e+02   2.119274e+01
  1.216066e-02    4.692222e+02   1.736237e+01
  1.270256e-02    4.719383e+02   1.694957e+01
  1.324446e-02    4.694835e+02   1.557291e+01
  1.378636e-02    4.707567e+02   1.351454e+01
  1.432826e-02    4.711971e+02   1.431966e+01
  1.487017e-02    4.659499e+02   1.534004e+01
  1.541207e-02    4.600572e+02   1.516382e+01
  1.595397e-02    4.559652e+02   1.547233e+01
  1.649587e-02    4.492982e+02   1.507462e+01
  1.703777e-02    4.404140e+02   1.349747e+01
  1.757968e-02    4.359758e+02   1.332768e+01
  1.812158e-02    4.307543e+02   1.148678e+01
  1.866348e-02    4.277510e+02   1.085034e+01
  1.920538e-02    4.231442e+02   1.176476e+01
  1.974728e-02    4.194526e+02   1.114132e+01
  2.028918e-02    4.159978e+02   1.097416e+01
  2.083109e-02    4.142491e+02   1.041036e+01
  2.137299e-02    4.072805e+02   1.038284e+01
  2.191489e-02    4.014000e+02   1.085532e+01
  2.245679e-02    3.975587e+02   1.057288e+01
  2.299869e-02    3.933832e+02   9.896121e+00
  2.354060e-02    3.906360e+02   1.015083e+01
  2.408250e-02    3.851841e+02   1.078342e+01
  2.462440e-02    3.783376e+02   1.126632e+01
  2.516630e-02    3.708944e+02   1.187015e+01
  2.570820e-02    3.659911e+02   1.196477e+01
  2.625010e-02    3.572703e+02   1.157349e+01
  2.679201e-02    3.503400e+02   1.040787e+01
  2.733391e-02    3.417734e+02   9.855645e+00
  2.787581e-02    3.328136e+02   1.009862e+01
  2.841771e-02    3.262572e+02   1.001442e+01
  2.895961e-02    3.212314e+02   9.492311e+00
  2.950152e-02    3.186534e+02   9.313337e+00
  3.004342e-02    3.130407e+02   9.420382e+00
  3.058532e-02    3.086579e+02   9.341009e+00
  3.112722e-02    3.028548e+02   9.583455e+00
  3.166912e-02    2.990718e+02   9.872602e+00
  3.221103e-02    2.954548e+02   9.970246e+00
  3.275293e-02    2.873320e+02   9.895465e+00
  3.329483e-02    2.810512e+02   9.548792e+00
  3.383673e-02    2.740852e+02   9.314156e+00
  3.437863e-02    2.686021e+02   9.407387e+00
  3.492053e-02    2.632324e+02   9.217010e+00
  3.546244e-02    2.565346e+02   8.697030e+00
  3.600434e-02    2.481032e+02   8.169894e+00
  3.654624e-02    2.434814e+02   7.086997e+00
  3.708814e-02    2.373521e+02   7.400638e+00
  3.763004e-02    2.322149e+02   7.717496e+00
  3.817195e-02    2.270672e+02   7.045189e+00
  3.871385e-02    2.223132e+02   6.844773e+00
  3.925575e-02    2.165066e+02   6.223047e+00
  3.979765e-02    2.131207e+02   6.025635e+00
  4.033955e-02    2.080162e+02   6.172949e+00
  4.088145e-02    2.028688e+02   6.117279e+00
  4.142336e-02    1.991042e+02   6.019459e+00
  4.196526e-02    1.951640e+02   5.846231e+00
  4.250716e-02    1.915206e+02   5.708972e+00
  4.304906e-02    1.873005e+02   5.573416e+00
  4.359096e-02    1.819394e+02   5.395431e+00
  4.413287e-02    1.779977e+02   5.273383e+00
  4.467477e-02    1.749003e+02   5.241866e+00
  4.521667e-02    1.703984e+02   5.098668e+00
  4.575857e-02    1.657928e+02   4.931687e+00
  4.630047e-02    1.620832e+02   4.692814e+00
  4.684237e-02    1.574796e+02   4.640811e+00
  4.738428e-02    1.542329e+02   4.753839e+00
  4.792618e-02    1.502041e+02   4.662253e+00
  4.846808e-02    1.469066e+02   4.462624e+00
  4.900998e-02    1.439996e+02   4.516584e+00
  4.955188e-02    1.409673e+02   4.269139e+00
  5.009379e-02    1.379491e+02   4.381368e+00
  5.063569e-02    1.360426e+02   4.350861e+00
  5.117759e-02    1.328492e+02   4.203336e+00
  5.171949e-02    1.294711e+02   3.896630e+00
  5.226139e-02    1.277018e+02   3.764035e+00
  5.280329e-02    1.237432e+02   3.627827e+00
  5.334520e-02    1.215077e+02   3.544421e+00
  5.388710e-02    1.191363e+02   3.521314e+00
  5.442900e-02    1.170693e+02   3.405260e+00
  5.497090e-02    1.139941e+02   3.309775e+00
  5.551280e-02    1.118708e+02   3.268765e+00
  5.605471e-02    1.089932e+02   3.381992e+00
  5.659661e-02    1.069882e+02   3.475644e+00
  5.713851e-02    1.052812e+02   3.421451e+00
  5.768041e-02    1.036799e+02   3.260557e+00
  5.822231e-02    1.021713e+02   3.374974e+00
  5.876421e-02    1.008893e+02   3.353236e+00
  5.930612e-02    9.972834e+01   3.282740e+00
  5.984802e-02    9.914636e+01   3.279283e+00
  6.038992e-02    9.818974e+01   3.088444e+00
  6.093182e-02    9.642214e+01   2.917064e+00
  6.147372e-02    9.516235e+01   2.797790e+00
  6.201563e-02    9.385302e+01   2.673704e+00
  6.255753e-02    9.206703e+01   2.602103e+00
  6.309943e-02    9.122261e+01   2.548414e+00
  6.364133e-02    9.011906e+01   2.501218e+00
  6.418323e-02    8.885967e+01   2.356324e+00
  6.472513e-02    8.816128e+01   2.204869e+00
  6.526704e-02    8.709592e+01   2.175974e+00
  6.580894e-02    8.581097e+01   2.050918e+00
  6.635084e-02    8.505475e+01   2.020812e+00
  6.689274e-02    8.432856e+01   2.040475e+00
  6.743464e-02    8.419151e+01   2.035716e+00
  6.797655e-02    8.353381e+01   2.080921e+00
  6.851845e-02    8.262691e+01   2.011993e+00
  6.906035e-02    8.182154e+01   2.035721e+00
  6.960225e-02    8.102183e+01   2.008240e+00
  7.014415e-02    7.974599e+01   1.980078e+00
  7.068605e-02    7.869372e+01   1.919897e+00
  7.122796e-02    7.758839e+01   1.882427e+00
  7.176986e-02    7.621955e+01   1.915811e+00
  7.231176e-02    7.509027e+01   1.981990e+00
  7.285366e-02    7.416343e+01   1.943761e+00
  7.339556e-02    7.374868e+01   1.970230e+00
  7.393747e-02    7.307577e+01   1.961845e+00
  7.447937e-02    7.272639e+01   1.922105e+00
  7.502127e-02    7.268930e+01   1.914718e+00
  7.556317e-02    7.223347e+01   1.919697e+00
  7.610507e-02    7.237978e+01   1.874599e+00
  7.664697e-02    7.163075e+01   1.847008e+00
  7.718888e-02    7.090498e+01   1.789593e+00
  7.773078e-02    6.988036e+01   1.834681e+00
  7.827268e-02    6.907509e+01   1.812549e+00
  7.881458e-02    6.834142e+01   1.719902e+00
  7.935648e-02    6.741707e+01   1.682332e+00
  7.989839e-02    6.699666e+01   1.637530e+00
  8.044029e-02    6.686272e+01   1.664611e+00
  8.098219e-02    6.676698e+01   1.754638e+00
  8.152409e-02    6.677452e+01   1.807169e+00
  8.206599e-02    6.677734e+01   1.781703e+00
  8.260789e-02    6.648994e+01   1.775133e+00
  8.314980e-02    6.631078e+01   1.753411e+00
  8.369170e-02    6.595676e+01   1.767701e+00
  8.423360e-02    6.502821e+01   1.789001e+00
  8.477550e-02    6.428625e+01   1.735163e+00
  8.531740e-02    6.402144e+01   1.688913e+00
  8.585931e-02    6.387548e+01   1.685861e+00
  8.640121e-02    6.354322e+01   1.708997e+00
  8.694311e-02    6.340406e+01   1.681289e+00
  8.748501e-02    6.326235e+01   1.645204e+00
  8.802691e-02    6.275772e+01   1.667176e+00
  8.856881e-02    6.265385e+01   1.635462e+00
  8.911072e-02    6.291064e+01   1.565294e+00
  8.965262e-02    6.276345e+01   1.586737e+00
  9.019452e-02    6.221513e+01   1.531592e+00
  9.073642e-02    6.190543e+01   1.528456e+00
  9.127832e-02    6.161432e+01   1.572159e+00
  9.182023e-02    6.140240e+01   1.562507e+00
  9.236213e-02    6.098330e+01   1.566417e+00
  9.290403e-02    6.059970e+01   1.542351e+00
  9.344593e-02    6.029416e+01   1.516080e+00
  9.398783e-02    5.989621e+01   1.499953e+00
  9.452973e-02    5.933974e+01   1.505137e+00
  9.507164e-02    5.928584e+01   1.501026e+00
  9.561354e-02    5.902467e+01   1.407123e+00
  9.615544e-02    5.884558e+01   1.406546e+00
  9.669734e-02    5.879614e+01   1.432742e+00
  9.723924e-02    5.848132e+01   1.455201e+00
  9.778115e-02    5.839972e+01   1.428220e+00
  9.832305e-02    5.817038e+01   1.401693e+00
  9.886495e-02    5.826447e+01   1.418193e+00
  9.940685e-02    5.813157e+01   1.448998e+00
  9.994875e-02    5.803453e+01   1.450079e+00
  1.004907e-01    5.730350e+01   1.445159e+00
  1.010326e-01    5.745891e+01   1.456419e+00
  1.015745e-01    5.719603e+01   1.447868e+00
  1.021164e-01    5.678370e+01   1.446044e+00
  1.026583e-01    5.666455e+01   1.445388e+00
  1.032002e-01    5.630797e+01   1.424852e+00
  1.037421e-01    5.601799e+01   1.416951e+00
  1.042840e-01    5.597557e+01   1.418452e+00
  1.048259e-01    5.644173e+01   1.450632e+00
  1.053678e-01    5.612575e+01   1.435727e+00
  1.059097e-01    5.576830e+01   1.379645e+00
  1.064516e-01    5.518698e+01   1.414480e+00
  1.069935e-01    5.496805e+01   1.389956e+00
  1.075354e-01    5.465098e+01   1.341215e+00
  1.080773e-01    5.421212e+01   1.319247e+00
  1.086192e-01    5.392010e+01   1.296489e+00
  1.091611e-01    5.368938e+01   1.292383e+00
  1.097030e-01    5.372057e+01   1.315689e+00
  1.102449e-01    5.397137e+01   1.327465e+00
  1.107868e-01    5.399152e+01   1.323209e+00
  1.113287e-01    5.420382e+01   1.359126e+00
  1.118706e-01    5.446640e+01   1.346612e+00
  1.124125e-01    5.473488e+01   1.332450e+00
  1.129544e-01    5.482401e+01   1.382594e+00
  1.134963e-01    5.479435e+01   1.351251e+00
  1.140382e-01    5.464538e+01   1.354885e+00
  1.145801e-01    5.437029e+01   1.376555e+00
  1.151220e-01    5.407132e+01   1.371846e+00
  1.156639e-01    5.374654e+01   1.329876e+00
  1.162058e-01    5.391652e+01   1.319435e+00
  1.167477e-01    5.386293e+01   1.291210e+00
  1.172896e-01    5.398821e+01   1.288955e+00
  1.178315e-01    5.396870e+01   1.283747e+00
  1.183734e-01    5.372478e+01   1.256753e+00
  1.189153e-01    5.379586e+01   1.237580e+00
  1.194572e-01    5.397698e+01   1.232694e+00
  1.199991e-01    5.346241e+01   1.185265e+00
  1.205410e-01    5.301055e+01   1.187109e+00
  1.210829e-01    5.308088e+01   1.215556e+00
  1.216248e-01    5.300270e+01   1.239309e+00
  1.221667e-01    5.300110e+01   1.250972e+00
  1.227086e-01    5.297571e+01   1.257912e+00
  1.232505e-01    5.275162e+01   1.229968e+00
  1.237924e-01    5.300543e+01   1.267971e+00
  1.243343e-01    5.279042e+01   1.286272e+00
  1.248762e-01    5.240764e+01   1.267314e+00
  1.254181e-01    5.244357e+01   1.238916e+00
  1.259600e-01    5.225228e+01   1.212083e+00
  1.265019e-01    5.229488e+01   1.191183e+00
  1.270438e-01    5.223971e+01   1.194278e+00
  1.275857e-01    5.194912e+01   1.190732e+00
  1.281276e-01    5.188422e+01   1.172765e+00
  1.286695e-01    5.172126e+01   1.141836e+00
  1.292115e-01    5.155045e+01   1.125321e+00
  1.297534e-01    5.141064e+01   1.152593e+00
  1.302953e-01    5.119583e+01   1.192717e+00
  1.308372e-01    5.136206e+01   1.200991e+00
  1.313791e-01    5.119314e+01   1.164304e+00
  1.319210e-01    5.120864e+01   1.157829e+00
  1.324629e-01    5.121091e+01   1.164745e+00
  1.330048e-01    5.097963e+01   1.163544e+00
  1.335467e-01    5.085870e+01   1.143872e+00
  1.340886e-01    5.081841e+01   1.115826e+00
  1.346305e-01    5.099290e+01   1.097111e+00
  1.351724e-01    5.095416e+01   1.103702e+00
  1.357143e-01    5.103867e+01   1.085452e+00
  1.362562e-01    5.112343e+01   1.106674e+00
  1.367981e-01    5.087543e+01   1.112372e+00
  1.373400e-01    5.086796e+01   1.144362e+00
  1.378819e-01    5.058375e+01   1.167929e+00
  1.384238e-01    5.037314e+01   1.161886e+00
  1.389657e-01    5.023918e+01   1.139934e+00
  1.395076e-01    5.024693e+01   1.110526e+00
  1.400495e-01    5.030682e+01   1.151070e+00
  1.405914e-01    5.005120e+01   1.143767e+00
  1.411333e-01    4.991024e+01   1.109757e+00
  1.416752e-01    5.003181e+01   1.090613e+00
  1.422171e-01    4.969934e+01   1.093749e+00
  1.427590e-01    4.961449e+01   1.118819e+00
  1.433009e-01    4.960006e+01   1.128904e+00
  1.438428e-01    4.942363e+01   1.112512e+00
  1.443847e-01    4.952571e+01   1.104002e+00
  1.449266e-01    4.945139e+01   1.109841e+00
  1.454685e-01    4.946151e+01   1.121662e+00
  1.460104e-01    4.946276e+01   1.116654e+00
  1.465523e-01    4.963963e+01   1.115652e+00
  1.470942e-01    4.954124e+01   1.100717e+00
  1.476361e-01    4.965036e+01   1.107972e+00
  1.481780e-01    4.975230e+01   1.098606e+00
  1.487199e-01    4.975729e+01   1.098719e+00
  1.492618e-01    4.992451e+01   1.116399e+00
  1.498037e-01    5.004027e+01   1.113067e+00
  1.503456e-01    5.000781e+01   1.115242e+00
  1.508875e-01    5.006464e+01   1.104216e+00
  1.514294e-01    5.005251e+01   1.103841e+00
  1.519713e-01    4.991118e+01   1.070867e+00
  1.525132e-01    5.022101e+01   1.081522e+00
  1.530551e-01    5.013197e+01   1.071076e+00
  1.535970e-01    4.994926e+01   1.094633e+00
  1.541389e-01    4.973842e+01   1.101496e+00
  1.546808e-01    4.936366e+01   1.111427e+00
  1.552227e-01    4.929145e+01   1.142559e+00
  1.557646e-01    4.918751e+01   1.162332e+00
  1.563065e-01    4.913406e+01   1.181155e+00
  1.568484e-01    4.905394e+01   1.153203e+00
  1.573903e-01    4.894794e+01   1.130220e+00
  1.579322e-01    4.892967e+01   1.090622e+00
  1.584742e-01    4.926870e+01   1.083011e+00
  1.590161e-01    4.914155e+01   1.051674e+00
  1.595580e-01    4.913264e+01   1.005649e+00
  1.600999e-01    4.908698e+01   9.847824e-01
  1.606418e-01    4.884310e+01   1.010964e+00
  1.611837e-01    4.891116e+01   1.035469e+00
  1.617256e-01    4.898828e+01   1.020156e+00
  1.622675e-01    4.886388e+01   1.001794e+00
  1.628094e-01    4.897657e+01   1.008102e+00
  1.633513e-01    4.895993e+01   1.017414e+00
  1.638932e-01    4.897705e+01   1.031620e+00
  1.644351e-01    4.908123e+01   1.025356e+00
  1.649770e-01    4.865597e+01   1.007658e+00
  1.655189e-01    4.852981e+01   1.002654e+00
  1.660608e-01    4.860510e+01   9.880853e-01
  1.666027e-01    4.857751e+01   1.005335e+00
  1.671446e-01    4.851392e+01   1.021144e+00
  1.676865e-01    4.860073e+01   1.027003e+00
  1.682284e-01    4.868839e+01   1.041254e+00
  1.687703e-01    4.871669e+01   1.031708e+00
  1.693122e-01    4.882204e+01   1.039377e+00
  1.698541e-01    4.870722e+01   1.054061e+00
  1.703960e-01    4.872646e+01   1.031815e+00
  1.709379e-01    4.856421e+01   1.020379e+00
  1.714798e-01    4.837843e+01   9.899416e-01
  1.720217e-01    4.835223e+01   9.870201e-01
  1.725636e-01    4.820593e+01   1.010835e+00
  1.731055e-01    4.800624e+01   1.023430e+00
  1.736474e-01    4.773183e+01   9.962028e-01
  1.741893e-01    4.776437e+01   1.004859e+00
  1.747312e-01    4.752959e+01   1.003241e+00
  1.752731e-01    4.765471e+01   9.888676e-01
  1.758150e-01    4.767722e+01   9.783027e-01
  1.763569e-01    4.773941e+01   9.820501e-01
  1.768988e-01    4.791966e+01   9.868378e-01
  1.774407e-01    4.798380e+01   9.786783e-01
  1.779826e-01    4.804520e+01   9.939286e-01
  1.785245e-01    4.802704e+01   9.943962e-01
  1.790664e-01    4.816196e+01   9.999185e-01
  1.796083e-01    4.815332e+01   1.001848e+00
  1.801502e-01    4.797360e+01   9.993253e-01
  1.806921e-01    4.766133e+01   9.908728e-01
  1.812340e-01    4.745758e+01   9.532850e-01
  1.817759e-01    4.729312e+01   9.306751e-01
  1.823178e-01    4.730018e+01   9.105822e-01
  1.828597e-01    4.712468e+01   9.107284e-01
  1.834016e-01    4.715427e+01   9.013681e-01
  1.839435e-01    4.740190e+01   9.195561e-01
  1.844854e-01    4.751332e+01   9.165068e-01
  1.850273e-01    4.769865e+01   9.303303e-01
  1.855692e-01    4.748411e+01   9.605136e-01
  1.861111e-01    4.743365e+01   9.842569e-01
  1.866530e-01    4.762915e+01   9.896629e-01
  1.871949e-01    4.765796e+01   9.846597e-01
  1.877368e-01    4.746134e+01   9.725351e-01
  1.882788e-01    4.724154e+01   9.753777e-01
  1.888207e-01    4.712234e+01   9.794674e-01
  1.893626e-01    4.739637e+01   9.909797e-01
  1.899045e-01    4.747368e+01   9.948925e-01
  1.904464e-01    4.737330e+01   9.962927e-01
  1.909883e-01    4.743167e+01   1.043716e+00
  1.915302e-01    4.759904e+01   1.099265e+00
  1.920721e-01    4.775183e+01   1.124915e+00
  1.926140e-01    4.788657e+01   1.144700e+00
  1.931559e-01    4.755442e+01   1.152853e+00
  1.936978e-01    4.741822e+01   1.151510e+00
  1.942397e-01    4.725623e+01   1.150683e+00
  1.947816e-01    4.692179e+01   1.125267e+00
  1.953235e-01    4.706823e+01   1.098446e+00
  1.958654e-01    4.672580e+01   1.093875e+00
  1.964073e-01    4.631681e+01   1.086360e+00
  1.969492e-01    4.619502e+01   1.087906e+00
  1.974911e-01    4.626780e+01   1.073622e+00
  1.980330e-01    4.617433e+01   1.074946e+00
  1.985749e-01    4.646313e+01   1.080237e+00
  1.991168e-01    4.662305e+01   1.100470e+00
  1.996587e-01    4.655593e+01   1.106487e+00
  2.002006e-01    4.701828e+01   1.131415e+00
  2.007425e-01    4.755501e+01   1.171333e+00
  2.012844e-01    4.765098e+01   1.183395e+00
  2.018263e-01    4.771709e+01   1.221678e+00
  2.023682e-01    4.758873e+01   1.231359e+00
  2.029101e-01    4.747139e+01   1.234914e+00
  2.034520e-01    4.741317e+01   1.198511e+00
  2.039939e-01    4.711867e+01   1.203209e+00
  2.045358e-01    4.709721e+01   1.217374e+00
  2.050777e-01    4.740215e+01   1.242435e+00
  2.056196e-01    4.752613e+01   1.250251e+00
  2.061615e-01    4.715407e+01   1.240187e+00
  2.067034e-01    4.693996e+01   1.279150e+00
  2.072453e-01    4.688310e+01   1.335006e+00
  2.077872e-01    4.666533e+01   1.332709e+00
  2.083291e-01    4.656616e+01   1.317920e+00
  2.088710e-01    4.653380e+01   1.311377e+00
  2.094129e-01    4.616415e+01   1.314813e+00
  2.099548e-01    4.582067e+01   1.315054e+00
  2.104967e-01    4.613103e+01   1.318267e+00
  2.110386e-01    4.620112e+01   1.299664e+00
  2.115805e-01    4.579722e+01   1.263297e+00
  2.121224e-01    4.564306e+01   1.300536e+00
  2.126643e-01    4.532235e+01   1.296830e+00
  2.132062e-01    4.529937e+01   1.348394e+00
  2.137481e-01    4.531166e+01   1.363218e+00
  2.142900e-01    4.558596e+01   1.365397e+00
  2.148319e-01    4.578966e+01   1.365156e+00
  2.153738e-01    4.570394e+01   1.383822e+00
  2.159157e-01    4.578581e+01   1.411194e+00
  2.164576e-01    4.612457e+01   1.389634e+00
  2.169995e-01    4.628965e+01   1.409830e+00
  2.175414e-01    4.604696e+01   1.403925e+00
  2.180834e-01    4.583465e+01   1.455805e+00
  2.186253e-01    4.537662e+01   1.499081e+00
  2.191672e-01    4.518172e+01   1.532720e+00
  2.197091e-01    4.513647e+01   1.514653e+00
  2.202510e-01    4.512555e+01   1.504192e+00
  2.207929e-01    4.472625e+01   1.489734e+00
  2.213348e-01    4.483805e+01   1.499575e+00
  2.218767e-01    4.514540e+01   1.486082e+00
  2.224186e-01    4.547429e+01   1.470430e+00
  2.229605e-01    4.578540e+01   1.498010e+00
  2.235024e-01    4.569574e+01   1.476645e+00
  2.240443e-01    4.578502e+01   1.516198e+00
  2.245862e-01    4.586031e+01   1.632251e+00
  2.251281e-01    4.584059e+01   1.660473e+00
  2.256700e-01    4.577705e+01   1.674530e+00
  2.262119e-01    4.537149e+01   1.698508e+00
  2.267538e-01    4.493995e+01   1.743981e+00
  2.272957e-01    4.482066e+01   1.735244e+00
  2.278376e-01    4.475193e+01   1.761371e+00
  2.283795e-01    4.447008e+01   1.749360e+00
  2.289214e-01    4.428798e+01   1.683054e+00
  2.294633e-01    4.428369e+01   1.722597e+00
  2.300052e-01    4.438395e+01   1.727251e+00
  2.305471e-01    4.463832e+01   1.738085e+00
  2.310890e-01    4.489703e+01   1.714167e+00
  2.316309e-01    4.481573e+01   1.735671e+00
  2.321728e-01    4.502351e+01   1.822253e+00
  2.327147e-01    4.513901e+01   1.814415e+00
  2.332566e-01    4.510200e+01   1.872309e+00
  2.337985e-01    4.532622e+01   1.935252e+00
  2.343404e-01    4.502521e+01   1.986360e+00
  2.348823e-01    4.499697e+01   1.962972e+00
  2.354242e-01    4.452865e+01   1.970253e+00
  2.359661e-01    4.433474e+01   1.988533e+00
  2.365080e-01    4.412560e+01   1.929537e+00
  2.370499e-01    4.416338e+01   1.909974e+00
  2.375918e-01    4.472145e+01   1.909237e+00
  2.381337e-01    4.405982e+01   1.891012e+00
  2.386756e-01    4.378862e+01   1.897872e+00
  2.392175e-01    4.356124e+01   1.990877e+00
  2.397594e-01    4.375700e+01   2.073979e+00
  2.403013e-01    4.354874e+01   2.093703e+00
  2.408432e-01    4.342864e+01   2.118947e+00
  2.413851e-01    4.366522e+01   2.176444e+00
  2.419270e-01    4.314942e+01   2.200569e+00
  2.424689e-01    4.340727e+01   2.180181e+00
  2.430108e-01    4.364933e+01   2.225357e+00
  2.435527e-01    4.381171e+01   2.205266e+00
  2.440946e-01    4.350936e+01   2.189754e+00
  2.446365e-01    4.375996e+01   2.098510e+00
  2.451784e-01    4.352061e+01   2.124193e+00
  2.457203e-01    4.287606e+01   2.113922e+00
  2.462622e-01    4.290897e+01   2.065386e+00
  2.468041e-01    4.301089e+01   2.219574e+00
  2.473460e-01    4.319491e+01   2.295098e+00
  2.478880e-01    4.346452e+01   2.368773e+00
  2.484299e-01    4.432881e+01   2.440784e+00
  2.489718e-01    4.423075e+01   2.484844e+00
  2.495137e-01    4.463718e+01   2.503300e+00
  2.500556e-01    4.514770e+01   2.521382e+00
  2.505975e-01    4.555122e+01   2.506267e+00
  2.511394e-01    4.534559e+01   2.380320e+00
  2.516813e-01    4.494469e+01   2.385260e+00
  2.522232e-01    4.463000e+01   2.386862e+00
  2.527651e-01    4.415649e+01   2.389342e+00
  2.533070e-01    4.355138e+01   2.529634e+00
  2.538489e-01    4.343970e+01   2.647844e+00
  2.543908e-01    4.306277e+01   2.539817e+00
  2.549327e-01    4.238947e+01   2.535430e+00
  2.554746e-01    4.213658e+01   2.842627e+00
  2.560165e-01    4.225254e+01   3.047737e+00
  2.565584e-01    4.184547e+01   3.056446e+00
  2.571003e-01    4.172046e+01   3.115439e+00
  2.576422e-01    4.177117e+01   3.283927e+00
  2.581841e-01    4.158030e+01   3.226192e+00
  2.587260e-01    4.151489e+01   3.358002e+00
  2.592679e-01    4.246957e+01   3.511996e+00
  2.598098e-01    4.236624e+01   3.501194e+00
  2.603517e-01    4.300114e+01   3.689276e+00
  2.608936e-01    4.321294e+01   3.766385e+00
  2.614355e-01    4.383776e+01   4.023784e+00
  2.619774e-01    4.460646e+01   3.775013e+00
  2.625193e-01    4.437599e+01   3.820867e+00
  2.630612e-01    4.414709e+01   4.084057e+00
  2.636031e-01    4.339170e+01   3.917526e+00
  2.641450e-01    4.352933e+01   3.600288e+00
  2.646869e-01    4.268624e+01   3.421626e+00
  2.652288e-01    4.218173e+01   3.668728e+00
  2.657707e-01    4.236179e+01   3.735069e+00
  2.663126e-01    4.189588e+01   3.931481e+00
  2.668545e-01    4.153482e+01   4.223806e+00
  2.673964e-01    4.211543e+01   4.490142e+00
  2.679383e-01    4.206597e+01   4.827341e+00
  2.684802e-01    4.201874e+01   4.997750e+00
  2.690221e-01    4.257721e+01   5.372039e+00
  2.695640e-01    4.256399e+01   5.255815e+00
  2.701059e-01    4.274065e+01   5.141017e+00
  2.706478e-01    4.304217e+01   5.344274e+00
  2.711897e-01    4.339979e+01   5.409979e+00
  2.717316e-01    4.249752e+01   4.933622e+00
  2.722735e-01    4.359542e+01   4.761527e+00
  2.728154e-01    4.411609e+01   4.751684e+00
  2.733573e-01    4.292436e+01   5.008742e+00
  2.738992e-01    4.165648e+01   5.164827e+00
  2.744411e-01    4.191532e+01   4.855155e+00
  2.749830e-01    4.232748e+01   4.691639e+00
  2.755249e-01    4.249472e+01   5.554245e+00
  2.760668e-01    4.259784e+01   6.114551e+00
  2.766087e-01    4.219829e+01   7.632855e+00
  2.771506e-01    4.223240e+01   7.728837e+00
  2.776926e-01    4.282713e+01   7.012330e+00
  2.782345e-01    4.399000e+01   2.291241e+00
  2.787764e-01    4.307123e+01   0.000000e+00
  2.793183e-01    4.307123e+01   0.000000e+00
