# == pyFAI calibration ==
# Distance Sample to Detector: 2.266 m
# PONI: 5.659e-02, 4.293e-02 m
# Rotations: 0.000000 0.000000 0.000000 rad
# 
# == Fit2d calibration ==
# Distance Sample-beamCenter: 2266.000 mm
# Center: x=249.594, y=329.012 pix
# Tilt: 0.000 deg  TiltPlanRot: 0.000 deg
# 
# Detector Pilatus 300k	 PixelSize= 1.720e-04, 1.720e-04 m
#    Detector has a mask: True 
#    Detector has a dark current: False 
#    detector has a flat field: False 
# 
# Wavelength: 1.27818e-10 m
# Mask applied: user provided
# Dark current applied: False
# Flat field applied: False
# Polarization factor: None
# Normalization factor: 284.40000000000003
# --> AL_DowExpt1_220227_0c75284c-679a-4a3f-9cf4-b2116dad6e31_2_r1d.csv
#        q_A^-1             I 
  4.457554e-03    1.172070e+02
  4.756484e-03    1.021087e+02
  5.055415e-03    8.499516e+01
  5.354345e-03    7.005844e+01
  5.653276e-03    5.991217e+01
  5.952206e-03    1.189542e+02
  6.251136e-03    1.095771e+02
  6.550067e-03    9.515015e+01
  6.848997e-03    7.970680e+01
  7.147927e-03    6.583949e+01
  7.446858e-03    5.474115e+01
  7.745788e-03    4.566543e+01
  8.044719e-03    3.829876e+01
  8.343649e-03    3.255794e+01
  8.642579e-03    2.777484e+01
  8.941510e-03    2.384298e+01
  9.240440e-03    2.061702e+01
  9.539371e-03    1.784722e+01
  9.838301e-03    1.551298e+01
  1.013723e-02    1.359656e+01
  1.043616e-02    1.197743e+01
  1.073509e-02    1.048862e+01
  1.103402e-02    9.279735e+00
  1.133295e-02    8.252059e+00
  1.163188e-02    7.360911e+00
  1.193081e-02    6.580402e+00
  1.222974e-02    5.915161e+00
  1.252867e-02    5.344126e+00
  1.282760e-02    4.832668e+00
  1.312654e-02    4.372071e+00
  1.342547e-02    3.975821e+00
  1.372440e-02    3.608237e+00
  1.402333e-02    3.293270e+00
  1.432226e-02    3.008361e+00
  1.462119e-02    2.748297e+00
  1.492012e-02    2.520776e+00
  1.521905e-02    2.310322e+00
  1.551798e-02    2.123737e+00
  1.581691e-02    1.954111e+00
  1.611584e-02    1.806197e+00
  1.641477e-02    1.670966e+00
  1.671370e-02    1.545025e+00
  1.701263e-02    1.430157e+00
  1.731156e-02    1.328506e+00
  1.761049e-02    1.234918e+00
  1.790942e-02    1.152532e+00
  1.820835e-02    1.074198e+00
  1.850728e-02    1.002862e+00
  1.880621e-02    9.342477e-01
  1.910514e-02    8.698028e-01
  1.940407e-02    8.165265e-01
  1.970300e-02    7.678133e-01
  2.000193e-02    7.196180e-01
  2.030086e-02    6.736244e-01
  2.059979e-02    6.324771e-01
  2.089873e-02    5.928270e-01
  2.119766e-02    5.596374e-01
  2.149659e-02    5.302125e-01
  2.179552e-02    4.971536e-01
  2.209445e-02    4.707483e-01
  2.239338e-02    4.463648e-01
  2.269231e-02    4.193296e-01
  2.299124e-02    3.977458e-01
  2.329017e-02    3.773581e-01
  2.358910e-02    3.582747e-01
  2.388803e-02    3.375543e-01
  2.418696e-02    3.175397e-01
  2.448589e-02    3.029632e-01
  2.478482e-02    2.888961e-01
  2.508375e-02    2.738323e-01
  2.538268e-02    2.619199e-01
  2.568161e-02    2.505733e-01
  2.598054e-02    2.386475e-01
  2.627947e-02    2.282325e-01
  2.657840e-02    2.178391e-01
  2.687733e-02    2.075733e-01
  2.717626e-02    1.983552e-01
  2.747519e-02    1.899122e-01
  2.777412e-02    1.813084e-01
  2.807305e-02    1.737600e-01
  2.837198e-02    1.670832e-01
  2.867092e-02    1.605650e-01
  2.896985e-02    1.542162e-01
  2.926878e-02    1.490795e-01
  2.956771e-02    1.426247e-01
  2.986664e-02    1.368025e-01
  3.016557e-02    1.323498e-01
  3.046450e-02    1.263475e-01
  3.076343e-02    1.214283e-01
  3.106236e-02    1.162374e-01
  3.136129e-02    1.117560e-01
  3.166022e-02    1.094465e-01
  3.195915e-02    1.063117e-01
  3.225808e-02    1.011178e-01
  3.255701e-02    9.770702e-02
  3.285594e-02    9.331838e-02
  3.315487e-02    8.963969e-02
  3.345380e-02    8.859207e-02
  3.375273e-02    8.606713e-02
  3.405166e-02    8.270508e-02
  3.435059e-02    7.926702e-02
  3.464952e-02    7.686608e-02
  3.494845e-02    7.485687e-02
  3.524738e-02    7.228132e-02
  3.554631e-02    6.971421e-02
  3.584524e-02    6.803593e-02
  3.614417e-02    6.724095e-02
  3.644310e-02    6.477127e-02
  3.674204e-02    6.213838e-02
  3.704097e-02    5.936491e-02
  3.733990e-02    5.777030e-02
  3.763883e-02    5.655345e-02
  3.793776e-02    5.532622e-02
  3.823669e-02    5.395582e-02
  3.853562e-02    5.268920e-02
  3.883455e-02    5.111698e-02
  3.913348e-02    5.016604e-02
  3.943241e-02    4.907965e-02
  3.973134e-02    4.788588e-02
  4.003027e-02    4.660142e-02
  4.032920e-02    4.519390e-02
  4.062813e-02    4.431720e-02
  4.092706e-02    4.334418e-02
  4.122599e-02    4.218435e-02
  4.152492e-02    4.078947e-02
  4.182385e-02    4.035270e-02
  4.212278e-02    3.936635e-02
  4.242171e-02    3.875750e-02
  4.272064e-02    3.830432e-02
  4.301957e-02    3.788618e-02
  4.331850e-02    3.659618e-02
  4.361743e-02    3.544736e-02
  4.391636e-02    3.512823e-02
  4.421529e-02    3.464644e-02
  4.451423e-02    3.387110e-02
  4.481316e-02    3.330679e-02
  4.511209e-02    3.247628e-02
  4.541102e-02    3.185399e-02
  4.570995e-02    3.159913e-02
  4.600888e-02    3.152826e-02
  4.630781e-02    3.108070e-02
  4.660674e-02    3.027586e-02
  4.690567e-02    2.949242e-02
  4.720460e-02    2.882537e-02
  4.750353e-02    2.816486e-02
  4.780246e-02    2.808624e-02
  4.810139e-02    2.807494e-02
  4.840032e-02    2.801135e-02
  4.869925e-02    2.756008e-02
  4.899818e-02    2.662538e-02
  4.929711e-02    2.610274e-02
  4.959604e-02    2.587862e-02
  4.989497e-02    2.582266e-02
  5.019390e-02    2.597110e-02
  5.049283e-02    2.564650e-02
  5.079176e-02    2.523753e-02
  5.109069e-02    2.498853e-02
  5.138962e-02    2.465509e-02
  5.168855e-02    2.448357e-02
  5.198748e-02    2.471037e-02
  5.228642e-02    2.428406e-02
  5.258535e-02    2.362381e-02
  5.288428e-02    2.308115e-02
  5.318321e-02    2.276469e-02
  5.348214e-02    2.295966e-02
  5.378107e-02    2.289202e-02
  5.408000e-02    2.280839e-02
  5.437893e-02    2.205518e-02
  5.467786e-02    2.185539e-02
  5.497679e-02    2.177735e-02
  5.527572e-02    2.168971e-02
  5.557465e-02    2.157819e-02
  5.587358e-02    2.150315e-02
  5.617251e-02    2.092594e-02
  5.647144e-02    2.043472e-02
  5.677037e-02    2.000885e-02
  5.706930e-02    2.001051e-02
  5.736823e-02    2.009892e-02
  5.766716e-02    1.999555e-02
  5.796609e-02    1.985569e-02
  5.826502e-02    1.938007e-02
  5.856395e-02    1.950862e-02
  5.886288e-02    1.974573e-02
  5.916181e-02    1.966699e-02
  5.946074e-02    1.906520e-02
  5.975967e-02    1.892747e-02
  6.005861e-02    1.906103e-02
  6.035754e-02    1.924344e-02
  6.065647e-02    1.905590e-02
  6.095540e-02    1.934371e-02
  6.125433e-02    1.941117e-02
  6.155326e-02    1.931291e-02
  6.185219e-02    1.912963e-02
  6.215112e-02    1.878770e-02
  6.245005e-02    1.881950e-02
  6.274898e-02    1.889286e-02
  6.304791e-02    1.892861e-02
  6.334684e-02    1.872292e-02
  6.364577e-02    1.839259e-02
  6.394470e-02    1.833184e-02
  6.424363e-02    1.804760e-02
  6.454256e-02    1.779583e-02
  6.484149e-02    1.777680e-02
  6.514042e-02    1.781225e-02
  6.543935e-02    1.826585e-02
  6.573828e-02    1.813918e-02
  6.603721e-02    1.810647e-02
  6.633614e-02    1.790220e-02
  6.663507e-02    1.789778e-02
  6.693400e-02    1.784535e-02
  6.723293e-02    1.794617e-02
  6.753186e-02    1.760887e-02
  6.783080e-02    1.747165e-02
  6.812973e-02    1.739367e-02
  6.842866e-02    1.746628e-02
  6.872759e-02    1.718974e-02
  6.902652e-02    1.707115e-02
  6.932545e-02    1.722453e-02
  6.962438e-02    1.748204e-02
  6.992331e-02    1.741994e-02
  7.022224e-02    1.738997e-02
  7.052117e-02    1.719095e-02
  7.082010e-02    1.716151e-02
  7.111903e-02    1.707821e-02
  7.141796e-02    1.651364e-02
  7.171689e-02    1.672550e-02
  7.201582e-02    1.707795e-02
  7.231475e-02    1.711651e-02
  7.261368e-02    1.697013e-02
  7.291261e-02    1.711336e-02
  7.321154e-02    1.714846e-02
  7.351047e-02    1.696119e-02
  7.380940e-02    1.699461e-02
  7.410833e-02    1.671931e-02
  7.440726e-02    1.656302e-02
  7.470619e-02    1.661180e-02
  7.500512e-02    1.642730e-02
  7.530405e-02    1.622185e-02
  7.560299e-02    1.642248e-02
  7.590192e-02    1.629198e-02
  7.620085e-02    1.641326e-02
  7.649978e-02    1.651311e-02
  7.679871e-02    1.643276e-02
  7.709764e-02    1.630960e-02
  7.739657e-02    1.638871e-02
  7.769550e-02    1.641813e-02
  7.799443e-02    1.619234e-02
  7.829336e-02    1.633786e-02
  7.859229e-02    1.669662e-02
  7.889122e-02    1.646386e-02
  7.919015e-02    1.590852e-02
  7.948908e-02    1.576005e-02
  7.978801e-02    1.605702e-02
  8.008694e-02    1.603479e-02
  8.038587e-02    1.593022e-02
  8.068480e-02    1.573793e-02
  8.098373e-02    1.592366e-02
  8.128266e-02    1.566128e-02
  8.158159e-02    1.559493e-02
  8.188052e-02    1.574147e-02
  8.217945e-02    1.550018e-02
  8.247838e-02    1.530585e-02
  8.277731e-02    1.532642e-02
  8.307624e-02    1.546846e-02
  8.337518e-02    1.535201e-02
  8.367411e-02    1.526930e-02
  8.397304e-02    1.525564e-02
  8.427197e-02    1.527188e-02
  8.457090e-02    1.510108e-02
  8.486983e-02    1.506144e-02
  8.516876e-02    1.499647e-02
  8.546769e-02    1.514933e-02
  8.576662e-02    1.494984e-02
  8.606555e-02    1.496640e-02
  8.636448e-02    1.470551e-02
  8.666341e-02    1.453706e-02
  8.696234e-02    1.474294e-02
  8.726127e-02    1.506710e-02
  8.756020e-02    1.499284e-02
  8.785913e-02    1.482370e-02
  8.815806e-02    1.482569e-02
  8.845699e-02    1.458413e-02
  8.875592e-02    1.449239e-02
  8.905485e-02    1.468085e-02
  8.935378e-02    1.439882e-02
  8.965271e-02    1.431263e-02
  8.995164e-02    1.434074e-02
  9.025057e-02    1.446976e-02
  9.054950e-02    1.426397e-02
  9.084843e-02    1.425569e-02
  9.114737e-02    1.454813e-02
  9.144630e-02    1.419880e-02
  9.174523e-02    1.361575e-02
  9.204416e-02    1.363018e-02
  9.234309e-02    1.392823e-02
  9.264202e-02    1.410357e-02
  9.294095e-02    1.392228e-02
  9.323988e-02    1.386515e-02
  9.353881e-02    1.367779e-02
  9.383774e-02    1.379405e-02
  9.413667e-02    1.371424e-02
  9.443560e-02    1.362556e-02
  9.473453e-02    1.375110e-02
  9.503346e-02    1.365162e-02
  9.533239e-02    1.344301e-02
  9.563132e-02    1.385001e-02
  9.593025e-02    1.368354e-02
  9.622918e-02    1.347438e-02
  9.652811e-02    1.360523e-02
  9.682704e-02    1.360482e-02
  9.712597e-02    1.367562e-02
  9.742490e-02    1.367096e-02
  9.772383e-02    1.367194e-02
  9.802276e-02    1.345575e-02
  9.832169e-02    1.338179e-02
  9.862062e-02    1.322017e-02
  9.891956e-02    1.307608e-02
  9.921849e-02    1.308635e-02
  9.951742e-02    1.289623e-02
  9.981635e-02    1.317082e-02
  1.001153e-01    1.345329e-02
  1.004142e-01    1.318701e-02
  1.007131e-01    1.291668e-02
  1.010121e-01    1.279584e-02
  1.013110e-01    1.280927e-02
  1.016099e-01    1.278165e-02
  1.019089e-01    1.255885e-02
  1.022078e-01    1.253389e-02
  1.025067e-01    1.247588e-02
  1.028057e-01    1.232260e-02
  1.031046e-01    1.267930e-02
  1.034035e-01    1.250301e-02
  1.037024e-01    1.257146e-02
  1.040014e-01    1.280712e-02
  1.043003e-01    1.266315e-02
  1.045992e-01    1.247599e-02
  1.048982e-01    1.233792e-02
  1.051971e-01    1.229270e-02
  1.054960e-01    1.229093e-02
  1.057950e-01    1.272048e-02
  1.060939e-01    1.283786e-02
  1.063928e-01    1.256059e-02
  1.066917e-01    1.219557e-02
  1.069907e-01    1.234461e-02
  1.072896e-01    1.231977e-02
  1.075885e-01    1.186260e-02
  1.078875e-01    1.193588e-02
  1.081864e-01    1.226385e-02
  1.084853e-01    1.244188e-02
  1.087843e-01    1.205135e-02
  1.090832e-01    1.190522e-02
  1.093821e-01    1.192692e-02
  1.096810e-01    1.189603e-02
  1.099800e-01    1.200206e-02
  1.102789e-01    1.185050e-02
  1.105778e-01    1.177291e-02
  1.108768e-01    1.181889e-02
  1.111757e-01    1.184246e-02
  1.114746e-01    1.185988e-02
  1.117736e-01    1.180738e-02
  1.120725e-01    1.182997e-02
  1.123714e-01    1.153157e-02
  1.126704e-01    1.156448e-02
  1.129693e-01    1.181021e-02
  1.132682e-01    1.173587e-02
  1.135671e-01    1.140138e-02
  1.138661e-01    1.095293e-02
  1.141650e-01    1.075178e-02
  1.144639e-01    1.121777e-02
  1.147629e-01    1.133019e-02
  1.150618e-01    1.101912e-02
  1.153607e-01    1.100984e-02
  1.156597e-01    1.099926e-02
  1.159586e-01    1.122137e-02
  1.162575e-01    1.079568e-02
  1.165564e-01    1.091906e-02
  1.168554e-01    1.084262e-02
  1.171543e-01    1.089794e-02
  1.174532e-01    1.166649e-02
  1.177522e-01    1.156268e-02
  1.180511e-01    1.113288e-02
  1.183500e-01    1.108479e-02
  1.186490e-01    1.116941e-02
  1.189479e-01    1.101163e-02
  1.192468e-01    1.153630e-02
  1.195458e-01    1.157076e-02
  1.198447e-01    1.079814e-02
  1.201436e-01    1.124098e-02
  1.204425e-01    1.163776e-02
  1.207415e-01    1.094292e-02
  1.210404e-01    7.038719e-03
  1.213393e-01    0.000000e+00
  1.216383e-01    0.000000e+00
  1.219372e-01    0.000000e+00
  1.222361e-01    0.000000e+00
  1.225351e-01    0.000000e+00
  1.228340e-01    0.000000e+00
  1.231329e-01    0.000000e+00
  1.234318e-01    0.000000e+00
  1.237308e-01    0.000000e+00
  1.240297e-01    0.000000e+00
  1.243286e-01    0.000000e+00
  1.246276e-01    0.000000e+00
  1.249265e-01    0.000000e+00
  1.252254e-01    0.000000e+00
  1.255244e-01    0.000000e+00
  1.258233e-01    0.000000e+00
  1.261222e-01    0.000000e+00
  1.264212e-01    0.000000e+00
  1.267201e-01    0.000000e+00
  1.270190e-01    0.000000e+00
  1.273179e-01    0.000000e+00
  1.276169e-01    0.000000e+00
  1.279158e-01    0.000000e+00
  1.282147e-01    0.000000e+00
  1.285137e-01    0.000000e+00
  1.288126e-01    0.000000e+00
  1.291115e-01    0.000000e+00
  1.294105e-01    0.000000e+00
  1.297094e-01    0.000000e+00
  1.300083e-01    0.000000e+00
  1.303072e-01    0.000000e+00
  1.306062e-01    0.000000e+00
  1.309051e-01    0.000000e+00
  1.312040e-01    0.000000e+00
  1.315030e-01    0.000000e+00
  1.318019e-01    0.000000e+00
  1.321008e-01    0.000000e+00
  1.323998e-01    0.000000e+00
  1.326987e-01    0.000000e+00
  1.329976e-01    0.000000e+00
  1.332965e-01    0.000000e+00
  1.335955e-01    0.000000e+00
  1.338944e-01    0.000000e+00
  1.341933e-01    0.000000e+00
  1.344923e-01    0.000000e+00
  1.347912e-01    0.000000e+00
  1.350901e-01    0.000000e+00
  1.353891e-01    0.000000e+00
  1.356880e-01    0.000000e+00
  1.359869e-01    0.000000e+00
  1.362859e-01    0.000000e+00
  1.365848e-01    0.000000e+00
  1.368837e-01    0.000000e+00
  1.371826e-01    0.000000e+00
  1.374816e-01    0.000000e+00
  1.377805e-01    0.000000e+00
  1.380794e-01    0.000000e+00
  1.383784e-01    0.000000e+00
  1.386773e-01    0.000000e+00
  1.389762e-01    0.000000e+00
  1.392752e-01    0.000000e+00
  1.395741e-01    0.000000e+00
  1.398730e-01    0.000000e+00
  1.401719e-01    0.000000e+00
  1.404709e-01    0.000000e+00
  1.407698e-01    0.000000e+00
  1.410687e-01    0.000000e+00
  1.413677e-01    0.000000e+00
  1.416666e-01    0.000000e+00
  1.419655e-01    0.000000e+00
  1.422645e-01    0.000000e+00
  1.425634e-01    0.000000e+00
  1.428623e-01    0.000000e+00
  1.431613e-01    0.000000e+00
  1.434602e-01    0.000000e+00
  1.437591e-01    0.000000e+00
  1.440580e-01    0.000000e+00
  1.443570e-01    0.000000e+00
  1.446559e-01    0.000000e+00
  1.449548e-01    0.000000e+00
  1.452538e-01    0.000000e+00
  1.455527e-01    0.000000e+00
  1.458516e-01    0.000000e+00
  1.461506e-01    0.000000e+00
  1.464495e-01    0.000000e+00
  1.467484e-01    0.000000e+00
  1.470473e-01    0.000000e+00
  1.473463e-01    0.000000e+00
  1.476452e-01    0.000000e+00
  1.479441e-01    0.000000e+00
  1.482431e-01    0.000000e+00
  1.485420e-01    0.000000e+00
  1.488409e-01    0.000000e+00
  1.491399e-01    0.000000e+00
  1.494388e-01    0.000000e+00
  1.497377e-01    0.000000e+00
  1.500367e-01    0.000000e+00
  1.503356e-01    0.000000e+00
  1.506345e-01    0.000000e+00
  1.509334e-01    0.000000e+00
  1.512324e-01    0.000000e+00
  1.515313e-01    0.000000e+00
  1.518302e-01    0.000000e+00
  1.521292e-01    0.000000e+00
  1.524281e-01    0.000000e+00
  1.527270e-01    0.000000e+00
  1.530260e-01    0.000000e+00
  1.533249e-01    0.000000e+00
  1.536238e-01    0.000000e+00
