# == pyFAI calibration ==
# Distance Sample to Detector: 2.266 m
# PONI: 5.659e-02, 4.293e-02 m
# Rotations: 0.000000 0.000000 0.000000 rad
# 
# == Fit2d calibration ==
# Distance Sample-beamCenter: 2266.000 mm
# Center: x=249.594, y=329.012 pix
# Tilt: 0.000 deg  TiltPlanRot: 0.000 deg
# 
# Detector Pilatus 300k	 PixelSize= 1.720e-04, 1.720e-04 m
#    Detector has a mask: True 
#    Detector has a dark current: False 
#    detector has a flat field: False 
# 
# Wavelength: 1.27818e-10 m
# Mask applied: user provided
# Dark current applied: False
# Flat field applied: False
# Polarization factor: None
# Normalization factor: 30391.300000000003
# --> AL_DowExpt1_220227_cbe845c4-cbf9-4800-a703-36844f10c452_0_r1d.csv
#        q_A^-1             I 
  4.457554e-03    1.429392e+01
  4.756484e-03    1.278655e+01
  5.055415e-03    1.094110e+01
  5.354345e-03    9.219494e+00
  5.653276e-03    7.960032e+00
  5.952206e-03    1.208067e+01
  6.251136e-03    1.134859e+01
  6.550067e-03    1.014402e+01
  6.848997e-03    8.736800e+00
  7.147927e-03    7.410063e+00
  7.446858e-03    6.320711e+00
  7.745788e-03    5.392054e+00
  8.044719e-03    4.608750e+00
  8.343649e-03    3.976165e+00
  8.642579e-03    3.433156e+00
  8.941510e-03    2.978780e+00
  9.240440e-03    2.593934e+00
  9.539371e-03    2.258921e+00
  9.838301e-03    1.975114e+00
  1.013723e-02    1.739250e+00
  1.043616e-02    1.535662e+00
  1.073509e-02    1.351050e+00
  1.103402e-02    1.199204e+00
  1.133295e-02    1.066693e+00
  1.163188e-02    9.541875e-01
  1.193081e-02    8.566106e-01
  1.222974e-02    7.695054e-01
  1.252867e-02    6.933893e-01
  1.282760e-02    6.261411e-01
  1.312654e-02    5.670004e-01
  1.342547e-02    5.147589e-01
  1.372440e-02    4.674444e-01
  1.402333e-02    4.259215e-01
  1.432226e-02    3.887644e-01
  1.462119e-02    3.551873e-01
  1.492012e-02    3.255989e-01
  1.521905e-02    2.984343e-01
  1.551798e-02    2.740916e-01
  1.581691e-02    2.520035e-01
  1.611584e-02    2.321310e-01
  1.641477e-02    2.138992e-01
  1.671370e-02    1.976103e-01
  1.701263e-02    1.827711e-01
  1.731156e-02    1.692049e-01
  1.761049e-02    1.570409e-01
  1.790942e-02    1.458382e-01
  1.820835e-02    1.353683e-01
  1.850728e-02    1.260315e-01
  1.880621e-02    1.175286e-01
  1.910514e-02    1.094845e-01
  1.940407e-02    1.022043e-01
  1.970300e-02    9.549607e-02
  2.000193e-02    8.939243e-02
  2.030086e-02    8.373427e-02
  2.059979e-02    7.850376e-02
  2.089873e-02    7.365055e-02
  2.119766e-02    6.905275e-02
  2.149659e-02    6.485761e-02
  2.179552e-02    6.101985e-02
  2.209445e-02    5.755978e-02
  2.239338e-02    5.430153e-02
  2.269231e-02    5.112899e-02
  2.299124e-02    4.812961e-02
  2.329017e-02    4.544056e-02
  2.358910e-02    4.294141e-02
  2.388803e-02    4.063498e-02
  2.418696e-02    3.846031e-02
  2.448589e-02    3.645018e-02
  2.478482e-02    3.448452e-02
  2.508375e-02    3.269970e-02
  2.538268e-02    3.106332e-02
  2.568161e-02    2.955486e-02
  2.598054e-02    2.810817e-02
  2.627947e-02    2.671311e-02
  2.657840e-02    2.537432e-02
  2.687733e-02    2.413185e-02
  2.717626e-02    2.305660e-02
  2.747519e-02    2.198788e-02
  2.777412e-02    2.096028e-02
  2.807305e-02    2.006643e-02
  2.837198e-02    1.915821e-02
  2.867092e-02    1.829452e-02
  2.896985e-02    1.744374e-02
  2.926878e-02    1.669858e-02
  2.956771e-02    1.597626e-02
  2.986664e-02    1.530924e-02
  3.016557e-02    1.468783e-02
  3.046450e-02    1.406764e-02
  3.076343e-02    1.348921e-02
  3.106236e-02    1.293354e-02
  3.136129e-02    1.241126e-02
  3.166022e-02    1.190337e-02
  3.195915e-02    1.144410e-02
  3.225808e-02    1.103536e-02
  3.255701e-02    1.059923e-02
  3.285594e-02    1.019851e-02
  3.315487e-02    9.810318e-03
  3.345380e-02    9.452241e-03
  3.375273e-02    9.105437e-03
  3.405166e-02    8.758392e-03
  3.435059e-02    8.423671e-03
  3.464952e-02    8.135948e-03
  3.494845e-02    7.867766e-03
  3.524738e-02    7.578536e-03
  3.554631e-02    7.302274e-03
  3.584524e-02    7.040105e-03
  3.614417e-02    6.801183e-03
  3.644310e-02    6.579330e-03
  3.674204e-02    6.382023e-03
  3.704097e-02    6.173515e-03
  3.733990e-02    5.986196e-03
  3.763883e-02    5.770731e-03
  3.793776e-02    5.570997e-03
  3.823669e-02    5.380386e-03
  3.853562e-02    5.216860e-03
  3.883455e-02    5.038776e-03
  3.913348e-02    4.880436e-03
  3.943241e-02    4.750950e-03
  3.973134e-02    4.608247e-03
  4.003027e-02    4.498207e-03
  4.032920e-02    4.349260e-03
  4.062813e-02    4.203487e-03
  4.092706e-02    4.074444e-03
  4.122599e-02    3.955845e-03
  4.152492e-02    3.851089e-03
  4.182385e-02    3.749090e-03
  4.212278e-02    3.665042e-03
  4.242171e-02    3.563056e-03
  4.272064e-02    3.443804e-03
  4.301957e-02    3.341591e-03
  4.331850e-02    3.255870e-03
  4.361743e-02    3.170660e-03
  4.391636e-02    3.093873e-03
  4.421529e-02    3.020105e-03
  4.451423e-02    2.946866e-03
  4.481316e-02    2.867463e-03
  4.511209e-02    2.783981e-03
  4.541102e-02    2.725231e-03
  4.570995e-02    2.648052e-03
  4.600888e-02    2.573819e-03
  4.630781e-02    2.512213e-03
  4.660674e-02    2.462560e-03
  4.690567e-02    2.413267e-03
  4.720460e-02    2.353406e-03
  4.750353e-02    2.291295e-03
  4.780246e-02    2.252522e-03
  4.810139e-02    2.188051e-03
  4.840032e-02    2.134017e-03
  4.869925e-02    2.098808e-03
  4.899818e-02    2.056184e-03
  4.929711e-02    2.002983e-03
  4.959604e-02    1.952131e-03
  4.989497e-02    1.914551e-03
  5.019390e-02    1.887774e-03
  5.049283e-02    1.855302e-03
  5.079176e-02    1.818268e-03
  5.109069e-02    1.773141e-03
  5.138962e-02    1.764430e-03
  5.168855e-02    1.757492e-03
  5.198748e-02    1.736425e-03
  5.228642e-02    1.710221e-03
  5.258535e-02    1.648659e-03
  5.288428e-02    1.608841e-03
  5.318321e-02    1.569562e-03
  5.348214e-02    1.525179e-03
  5.378107e-02    1.496340e-03
  5.408000e-02    1.471188e-03
  5.437893e-02    1.434669e-03
  5.467786e-02    1.416064e-03
  5.497679e-02    1.390627e-03
  5.527572e-02    1.365746e-03
  5.557465e-02    1.348731e-03
  5.587358e-02    1.324204e-03
  5.617251e-02    1.291758e-03
  5.647144e-02    1.266127e-03
  5.677037e-02    1.252890e-03
  5.706930e-02    1.225680e-03
  5.736823e-02    1.207937e-03
  5.766716e-02    1.185120e-03
  5.796609e-02    1.170927e-03
  5.826502e-02    1.159157e-03
  5.856395e-02    1.139740e-03
  5.886288e-02    1.126964e-03
  5.916181e-02    1.100983e-03
  5.946074e-02    1.086752e-03
  5.975967e-02    1.067058e-03
  6.005861e-02    1.052738e-03
  6.035754e-02    1.057321e-03
  6.065647e-02    1.047731e-03
  6.095540e-02    1.041998e-03
  6.125433e-02    1.031138e-03
  6.155326e-02    1.018628e-03
  6.185219e-02    9.997082e-04
  6.215112e-02    9.855650e-04
  6.245005e-02    9.695811e-04
  6.274898e-02    9.496792e-04
  6.304791e-02    9.320724e-04
  6.334684e-02    9.232081e-04
  6.364577e-02    9.186607e-04
  6.394470e-02    9.037661e-04
  6.424363e-02    8.868466e-04
  6.454256e-02    8.778850e-04
  6.484149e-02    8.661269e-04
  6.514042e-02    8.596341e-04
  6.543935e-02    8.541614e-04
  6.573828e-02    8.416894e-04
  6.603721e-02    8.337431e-04
  6.633614e-02    8.263111e-04
  6.663507e-02    8.093537e-04
  6.693400e-02    8.033988e-04
  6.723293e-02    7.970196e-04
  6.753186e-02    7.861682e-04
  6.783080e-02    7.863949e-04
  6.812973e-02    7.795600e-04
  6.842866e-02    7.730545e-04
  6.872759e-02    7.626147e-04
  6.902652e-02    7.583456e-04
  6.932545e-02    7.489996e-04
  6.962438e-02    7.419580e-04
  6.992331e-02    7.406044e-04
  7.022224e-02    7.323601e-04
  7.052117e-02    7.262924e-04
  7.082010e-02    7.167456e-04
  7.111903e-02    7.140187e-04
  7.141796e-02    7.075378e-04
  7.171689e-02    7.064849e-04
  7.201582e-02    7.049713e-04
  7.231475e-02    6.988318e-04
  7.261368e-02    6.897168e-04
  7.291261e-02    6.846591e-04
  7.321154e-02    6.746816e-04
  7.351047e-02    6.699925e-04
  7.380940e-02    6.695933e-04
  7.410833e-02    6.652485e-04
  7.440726e-02    6.597466e-04
  7.470619e-02    6.565361e-04
  7.500512e-02    6.536391e-04
  7.530405e-02    6.419331e-04
  7.560299e-02    6.346601e-04
  7.590192e-02    6.328134e-04
  7.620085e-02    6.307082e-04
  7.649978e-02    6.233767e-04
  7.679871e-02    6.164341e-04
  7.709764e-02    6.142647e-04
  7.739657e-02    6.096487e-04
  7.769550e-02    6.060192e-04
  7.799443e-02    5.984720e-04
  7.829336e-02    5.909383e-04
  7.859229e-02    5.866810e-04
  7.889122e-02    5.877991e-04
  7.919015e-02    5.807921e-04
  7.948908e-02    5.743433e-04
  7.978801e-02    5.697826e-04
  8.008694e-02    5.688858e-04
  8.038587e-02    5.704080e-04
  8.068480e-02    5.660192e-04
  8.098373e-02    5.583005e-04
  8.128266e-02    5.557731e-04
  8.158159e-02    5.559702e-04
  8.188052e-02    5.478873e-04
  8.217945e-02    5.407579e-04
  8.247838e-02    5.342430e-04
  8.277731e-02    5.274264e-04
  8.307624e-02    5.206385e-04
  8.337518e-02    5.231669e-04
  8.367411e-02    5.206318e-04
  8.397304e-02    5.119514e-04
  8.427197e-02    5.135972e-04
  8.457090e-02    5.134227e-04
  8.486983e-02    5.065417e-04
  8.516876e-02    5.009152e-04
  8.546769e-02    4.967612e-04
  8.576662e-02    4.956802e-04
  8.606555e-02    4.926180e-04
  8.636448e-02    4.871585e-04
  8.666341e-02    4.849225e-04
  8.696234e-02    4.839358e-04
  8.726127e-02    4.813050e-04
  8.756020e-02    4.762275e-04
  8.785913e-02    4.705410e-04
  8.815806e-02    4.714474e-04
  8.845699e-02    4.650570e-04
  8.875592e-02    4.612463e-04
  8.905485e-02    4.594667e-04
  8.935378e-02    4.533178e-04
  8.965271e-02    4.500916e-04
  8.995164e-02    4.478324e-04
  9.025057e-02    4.467415e-04
  9.054950e-02    4.439309e-04
  9.084843e-02    4.372985e-04
  9.114737e-02    4.357392e-04
  9.144630e-02    4.360217e-04
  9.174523e-02    4.325737e-04
  9.204416e-02    4.250845e-04
  9.234309e-02    4.192783e-04
  9.264202e-02    4.132823e-04
  9.294095e-02    4.125955e-04
  9.323988e-02    4.136222e-04
  9.353881e-02    4.135574e-04
  9.383774e-02    4.111968e-04
  9.413667e-02    4.080450e-04
  9.443560e-02    4.043337e-04
  9.473453e-02    4.024722e-04
  9.503346e-02    4.069785e-04
  9.533239e-02    4.093249e-04
  9.563132e-02    4.076961e-04
  9.593025e-02    4.058167e-04
  9.622918e-02    3.988027e-04
  9.652811e-02    4.009742e-04
  9.682704e-02    4.049467e-04
  9.712597e-02    4.039817e-04
  9.742490e-02    4.035767e-04
  9.772383e-02    3.942024e-04
  9.802276e-02    3.860877e-04
  9.832169e-02    3.850004e-04
  9.862062e-02    3.890229e-04
  9.891956e-02    3.843081e-04
  9.921849e-02    3.755577e-04
  9.951742e-02    3.666897e-04
  9.981635e-02    3.673803e-04
  1.001153e-01    3.700534e-04
  1.004142e-01    3.678430e-04
  1.007131e-01    3.607323e-04
  1.010121e-01    3.559691e-04
  1.013110e-01    3.567039e-04
  1.016099e-01    3.556400e-04
  1.019089e-01    3.495534e-04
  1.022078e-01    3.432695e-04
  1.025067e-01    3.457357e-04
  1.028057e-01    3.494854e-04
  1.031046e-01    3.432636e-04
  1.034035e-01    3.415733e-04
  1.037024e-01    3.410951e-04
  1.040014e-01    3.375029e-04
  1.043003e-01    3.342377e-04
  1.045992e-01    3.329357e-04
  1.048982e-01    3.318052e-04
  1.051971e-01    3.291812e-04
  1.054960e-01    3.259275e-04
  1.057950e-01    3.228438e-04
  1.060939e-01    3.254555e-04
  1.063928e-01    3.270387e-04
  1.066917e-01    3.244681e-04
  1.069907e-01    3.185107e-04
  1.072896e-01    3.193513e-04
  1.075885e-01    3.194683e-04
  1.078875e-01    3.205189e-04
  1.081864e-01    3.176727e-04
  1.084853e-01    3.171172e-04
  1.087843e-01    3.199818e-04
  1.090832e-01    3.147676e-04
  1.093821e-01    3.157729e-04
  1.096810e-01    3.144821e-04
  1.099800e-01    3.107866e-04
  1.102789e-01    3.116461e-04
  1.105778e-01    3.099392e-04
  1.108768e-01    3.078744e-04
  1.111757e-01    3.064970e-04
  1.114746e-01    3.072246e-04
  1.117736e-01    3.083671e-04
  1.120725e-01    3.065463e-04
  1.123714e-01    3.084400e-04
  1.126704e-01    3.070059e-04
  1.129693e-01    3.008820e-04
  1.132682e-01    3.036442e-04
  1.135671e-01    2.998066e-04
  1.138661e-01    2.888663e-04
  1.141650e-01    2.899706e-04
  1.144639e-01    2.930803e-04
  1.147629e-01    2.874635e-04
  1.150618e-01    2.872332e-04
  1.153607e-01    2.803956e-04
  1.156597e-01    2.731350e-04
  1.159586e-01    2.690831e-04
  1.162575e-01    2.739632e-04
  1.165564e-01    2.747598e-04
  1.168554e-01    2.728960e-04
  1.171543e-01    2.844381e-04
  1.174532e-01    2.853646e-04
  1.177522e-01    2.875097e-04
  1.180511e-01    2.865781e-04
  1.183500e-01    2.856379e-04
  1.186490e-01    2.875082e-04
  1.189479e-01    2.832212e-04
  1.192468e-01    2.868975e-04
  1.195458e-01    2.818377e-04
  1.198447e-01    2.862968e-04
  1.201436e-01    2.911434e-04
  1.204425e-01    2.853530e-04
  1.207415e-01    3.095966e-04
  1.210404e-01    3.622736e-04
  1.213393e-01    0.000000e+00
  1.216383e-01    0.000000e+00
  1.219372e-01    0.000000e+00
  1.222361e-01    0.000000e+00
  1.225351e-01    0.000000e+00
  1.228340e-01    0.000000e+00
  1.231329e-01    0.000000e+00
  1.234318e-01    0.000000e+00
  1.237308e-01    0.000000e+00
  1.240297e-01    0.000000e+00
  1.243286e-01    0.000000e+00
  1.246276e-01    0.000000e+00
  1.249265e-01    0.000000e+00
  1.252254e-01    0.000000e+00
  1.255244e-01    0.000000e+00
  1.258233e-01    0.000000e+00
  1.261222e-01    0.000000e+00
  1.264212e-01    0.000000e+00
  1.267201e-01    0.000000e+00
  1.270190e-01    0.000000e+00
  1.273179e-01    0.000000e+00
  1.276169e-01    0.000000e+00
  1.279158e-01    0.000000e+00
  1.282147e-01    0.000000e+00
  1.285137e-01    0.000000e+00
  1.288126e-01    0.000000e+00
  1.291115e-01    0.000000e+00
  1.294105e-01    0.000000e+00
  1.297094e-01    0.000000e+00
  1.300083e-01    0.000000e+00
  1.303072e-01    0.000000e+00
  1.306062e-01    0.000000e+00
  1.309051e-01    0.000000e+00
  1.312040e-01    0.000000e+00
  1.315030e-01    0.000000e+00
  1.318019e-01    0.000000e+00
  1.321008e-01    0.000000e+00
  1.323998e-01    0.000000e+00
  1.326987e-01    0.000000e+00
  1.329976e-01    0.000000e+00
  1.332965e-01    0.000000e+00
  1.335955e-01    0.000000e+00
  1.338944e-01    0.000000e+00
  1.341933e-01    0.000000e+00
  1.344923e-01    0.000000e+00
  1.347912e-01    0.000000e+00
  1.350901e-01    0.000000e+00
  1.353891e-01    0.000000e+00
  1.356880e-01    0.000000e+00
  1.359869e-01    0.000000e+00
  1.362859e-01    0.000000e+00
  1.365848e-01    0.000000e+00
  1.368837e-01    0.000000e+00
  1.371826e-01    0.000000e+00
  1.374816e-01    0.000000e+00
  1.377805e-01    0.000000e+00
  1.380794e-01    0.000000e+00
  1.383784e-01    0.000000e+00
  1.386773e-01    0.000000e+00
  1.389762e-01    0.000000e+00
  1.392752e-01    0.000000e+00
  1.395741e-01    0.000000e+00
  1.398730e-01    0.000000e+00
  1.401719e-01    0.000000e+00
  1.404709e-01    0.000000e+00
  1.407698e-01    0.000000e+00
  1.410687e-01    0.000000e+00
  1.413677e-01    0.000000e+00
  1.416666e-01    0.000000e+00
  1.419655e-01    0.000000e+00
  1.422645e-01    0.000000e+00
  1.425634e-01    0.000000e+00
  1.428623e-01    0.000000e+00
  1.431613e-01    0.000000e+00
  1.434602e-01    0.000000e+00
  1.437591e-01    0.000000e+00
  1.440580e-01    0.000000e+00
  1.443570e-01    0.000000e+00
  1.446559e-01    0.000000e+00
  1.449548e-01    0.000000e+00
  1.452538e-01    0.000000e+00
  1.455527e-01    0.000000e+00
  1.458516e-01    0.000000e+00
  1.461506e-01    0.000000e+00
  1.464495e-01    0.000000e+00
  1.467484e-01    0.000000e+00
  1.470473e-01    0.000000e+00
  1.473463e-01    0.000000e+00
  1.476452e-01    0.000000e+00
  1.479441e-01    0.000000e+00
  1.482431e-01    0.000000e+00
  1.485420e-01    0.000000e+00
  1.488409e-01    0.000000e+00
  1.491399e-01    0.000000e+00
  1.494388e-01    0.000000e+00
  1.497377e-01    0.000000e+00
  1.500367e-01    0.000000e+00
  1.503356e-01    0.000000e+00
  1.506345e-01    0.000000e+00
  1.509334e-01    0.000000e+00
  1.512324e-01    0.000000e+00
  1.515313e-01    0.000000e+00
  1.518302e-01    0.000000e+00
  1.521292e-01    0.000000e+00
  1.524281e-01    0.000000e+00
  1.527270e-01    0.000000e+00
  1.530260e-01    0.000000e+00
  1.533249e-01    0.000000e+00
  1.536238e-01    0.000000e+00
