# == pyFAI calibration ==
# Distance Sample to Detector: 2.266 m
# PONI: 5.659e-02, 4.293e-02 m
# Rotations: 0.000000 0.000000 0.000000 rad
# 
# == Fit2d calibration ==
# Distance Sample-beamCenter: 2266.000 mm
# Center: x=249.594, y=329.012 pix
# Tilt: 0.000 deg  TiltPlanRot: 0.000 deg
# 
# Detector Pilatus 300k	 PixelSize= 1.720e-04, 1.720e-04 m
#    Detector has a mask: True 
#    Detector has a dark current: False 
#    detector has a flat field: False 
# 
# Wavelength: 1.27818e-10 m
# Mask applied: user provided
# Dark current applied: False
# Flat field applied: False
# Polarization factor: None
# Normalization factor: 10997.59
# --> AL_DowExpt1_220227_9acb3a8c-f1e6-4d74-a26c-38b5878ab071_2_r1d.csv
#        q_A^-1             I 
  4.457554e-03    5.562732e-01
  4.756484e-03    4.945367e-01
  5.055415e-03    4.142322e-01
  5.354345e-03    3.338562e-01
  5.653276e-03    2.828284e-01
  5.952206e-03    6.313211e-01
  6.251136e-03    5.870870e-01
  6.550067e-03    5.139654e-01
  6.848997e-03    4.324759e-01
  7.147927e-03    3.548386e-01
  7.446858e-03    2.930252e-01
  7.745788e-03    2.421618e-01
  8.044719e-03    2.019014e-01
  8.343649e-03    1.712160e-01
  8.642579e-03    1.462086e-01
  8.941510e-03    1.258228e-01
  9.240440e-03    1.086998e-01
  9.539371e-03    9.431586e-02
  9.838301e-03    8.212792e-02
  1.013723e-02    7.222600e-02
  1.043616e-02    6.375640e-02
  1.073509e-02    5.583214e-02
  1.103402e-02    4.936447e-02
  1.133295e-02    4.371459e-02
  1.163188e-02    3.890933e-02
  1.193081e-02    3.475342e-02
  1.222974e-02    3.111745e-02
  1.252867e-02    2.795973e-02
  1.282760e-02    2.539006e-02
  1.312654e-02    2.302407e-02
  1.342547e-02    2.082002e-02
  1.372440e-02    1.896498e-02
  1.402333e-02    1.732928e-02
  1.432226e-02    1.576466e-02
  1.462119e-02    1.449694e-02
  1.492012e-02    1.326303e-02
  1.521905e-02    1.216762e-02
  1.551798e-02    1.121551e-02
  1.581691e-02    1.040197e-02
  1.611584e-02    9.603239e-03
  1.641477e-02    8.804123e-03
  1.671370e-02    8.118584e-03
  1.701263e-02    7.567143e-03
  1.731156e-02    6.975119e-03
  1.761049e-02    6.452492e-03
  1.790942e-02    6.039217e-03
  1.820835e-02    5.618291e-03
  1.850728e-02    5.252386e-03
  1.880621e-02    4.876218e-03
  1.910514e-02    4.555574e-03
  1.940407e-02    4.296993e-03
  1.970300e-02    4.012064e-03
  2.000193e-02    3.765066e-03
  2.030086e-02    3.542234e-03
  2.059979e-02    3.339068e-03
  2.089873e-02    3.141374e-03
  2.119766e-02    2.956577e-03
  2.149659e-02    2.769844e-03
  2.179552e-02    2.597771e-03
  2.209445e-02    2.480175e-03
  2.239338e-02    2.362994e-03
  2.269231e-02    2.219868e-03
  2.299124e-02    2.105852e-03
  2.329017e-02    1.955198e-03
  2.358910e-02    1.832393e-03
  2.388803e-02    1.762181e-03
  2.418696e-02    1.683906e-03
  2.448589e-02    1.592725e-03
  2.478482e-02    1.523452e-03
  2.508375e-02    1.472095e-03
  2.538268e-02    1.404903e-03
  2.568161e-02    1.323442e-03
  2.598054e-02    1.274393e-03
  2.627947e-02    1.222676e-03
  2.657840e-02    1.156396e-03
  2.687733e-02    1.110715e-03
  2.717626e-02    1.095474e-03
  2.747519e-02    1.053605e-03
  2.777412e-02    9.983431e-04
  2.807305e-02    9.346254e-04
  2.837198e-02    8.970361e-04
  2.867092e-02    8.702812e-04
  2.896985e-02    8.372663e-04
  2.926878e-02    8.070866e-04
  2.956771e-02    7.860897e-04
  2.986664e-02    7.599771e-04
  3.016557e-02    7.298583e-04
  3.046450e-02    7.061046e-04
  3.076343e-02    6.823527e-04
  3.106236e-02    6.618722e-04
  3.136129e-02    6.463155e-04
  3.166022e-02    6.221029e-04
  3.195915e-02    5.921198e-04
  3.225808e-02    5.751047e-04
  3.255701e-02    5.506459e-04
  3.285594e-02    5.419240e-04
  3.315487e-02    5.418609e-04
  3.345380e-02    5.168726e-04
  3.375273e-02    5.099504e-04
  3.405166e-02    4.960956e-04
  3.435059e-02    4.681189e-04
  3.464952e-02    4.565247e-04
  3.494845e-02    4.474024e-04
  3.524738e-02    4.364923e-04
  3.554631e-02    4.285943e-04
  3.584524e-02    4.135566e-04
  3.614417e-02    3.928893e-04
  3.644310e-02    3.923614e-04
  3.674204e-02    3.951808e-04
  3.704097e-02    3.786020e-04
  3.733990e-02    3.752316e-04
  3.763883e-02    3.514917e-04
  3.793776e-02    3.403590e-04
  3.823669e-02    3.382392e-04
  3.853562e-02    3.350333e-04
  3.883455e-02    3.316899e-04
  3.913348e-02    3.163393e-04
  3.943241e-02    3.140320e-04
  3.973134e-02    3.058576e-04
  4.003027e-02    3.061833e-04
  4.032920e-02    3.155833e-04
  4.062813e-02    3.038688e-04
  4.092706e-02    2.865422e-04
  4.122599e-02    2.783739e-04
  4.152492e-02    2.737437e-04
  4.182385e-02    2.686772e-04
  4.212278e-02    2.654678e-04
  4.242171e-02    2.539911e-04
  4.272064e-02    2.546718e-04
  4.301957e-02    2.526419e-04
  4.331850e-02    2.438049e-04
  4.361743e-02    2.349112e-04
  4.391636e-02    2.318240e-04
  4.421529e-02    2.357588e-04
  4.451423e-02    2.382471e-04
  4.481316e-02    2.308604e-04
  4.511209e-02    2.320116e-04
  4.541102e-02    2.278594e-04
  4.570995e-02    2.209205e-04
  4.600888e-02    2.182450e-04
  4.630781e-02    2.155901e-04
  4.660674e-02    2.180161e-04
  4.690567e-02    2.129682e-04
  4.720460e-02    2.110558e-04
  4.750353e-02    2.070548e-04
  4.780246e-02    2.072144e-04
  4.810139e-02    2.019758e-04
  4.840032e-02    2.015101e-04
  4.869925e-02    2.081888e-04
  4.899818e-02    2.082230e-04
  4.929711e-02    1.983392e-04
  4.959604e-02    1.880934e-04
  4.989497e-02    1.940555e-04
  5.019390e-02    2.015619e-04
  5.049283e-02    1.970472e-04
  5.079176e-02    1.922254e-04
  5.109069e-02    1.911152e-04
  5.138962e-02    1.847476e-04
  5.168855e-02    1.920153e-04
  5.198748e-02    1.900042e-04
  5.228642e-02    1.875251e-04
  5.258535e-02    1.839058e-04
  5.288428e-02    1.750299e-04
  5.318321e-02    1.777450e-04
  5.348214e-02    1.808620e-04
  5.378107e-02    1.831349e-04
  5.408000e-02    1.816778e-04
  5.437893e-02    1.725487e-04
  5.467786e-02    1.736219e-04
  5.497679e-02    1.742298e-04
  5.527572e-02    1.739774e-04
  5.557465e-02    1.729651e-04
  5.587358e-02    1.701702e-04
  5.617251e-02    1.669421e-04
  5.647144e-02    1.629325e-04
  5.677037e-02    1.652806e-04
  5.706930e-02    1.683581e-04
  5.736823e-02    1.683790e-04
  5.766716e-02    1.680344e-04
  5.796609e-02    1.650671e-04
  5.826502e-02    1.624163e-04
  5.856395e-02    1.628928e-04
  5.886288e-02    1.626859e-04
  5.916181e-02    1.642425e-04
  5.946074e-02    1.649993e-04
  5.975967e-02    1.665915e-04
  6.005861e-02    1.669928e-04
  6.035754e-02    1.612164e-04
  6.065647e-02    1.576381e-04
  6.095540e-02    1.607579e-04
  6.125433e-02    1.648114e-04
  6.155326e-02    1.659384e-04
  6.185219e-02    1.588806e-04
  6.215112e-02    1.600277e-04
  6.245005e-02    1.608216e-04
  6.274898e-02    1.644373e-04
  6.304791e-02    1.641476e-04
  6.334684e-02    1.601704e-04
  6.364577e-02    1.552630e-04
  6.394470e-02    1.558018e-04
  6.424363e-02    1.536632e-04
  6.454256e-02    1.564406e-04
  6.484149e-02    1.575165e-04
  6.514042e-02    1.618192e-04
  6.543935e-02    1.610871e-04
  6.573828e-02    1.537265e-04
  6.603721e-02    1.507739e-04
  6.633614e-02    1.543066e-04
  6.663507e-02    1.529871e-04
  6.693400e-02    1.559369e-04
  6.723293e-02    1.561613e-04
  6.753186e-02    1.578922e-04
  6.783080e-02    1.616496e-04
  6.812973e-02    1.592509e-04
  6.842866e-02    1.537485e-04
  6.872759e-02    1.559603e-04
  6.902652e-02    1.563105e-04
  6.932545e-02    1.561515e-04
  6.962438e-02    1.587320e-04
  6.992331e-02    1.582319e-04
  7.022224e-02    1.547872e-04
  7.052117e-02    1.544169e-04
  7.082010e-02    1.575402e-04
  7.111903e-02    1.565906e-04
  7.141796e-02    1.548527e-04
  7.171689e-02    1.511899e-04
  7.201582e-02    1.538458e-04
  7.231475e-02    1.522979e-04
  7.261368e-02    1.510856e-04
  7.291261e-02    1.523540e-04
  7.321154e-02    1.547457e-04
  7.351047e-02    1.541235e-04
  7.380940e-02    1.550424e-04
  7.410833e-02    1.571685e-04
  7.440726e-02    1.586761e-04
  7.470619e-02    1.567227e-04
  7.500512e-02    1.527915e-04
  7.530405e-02    1.502467e-04
  7.560299e-02    1.528318e-04
  7.590192e-02    1.519833e-04
  7.620085e-02    1.536703e-04
  7.649978e-02    1.506614e-04
  7.679871e-02    1.490468e-04
  7.709764e-02    1.507768e-04
  7.739657e-02    1.508884e-04
  7.769550e-02    1.513549e-04
  7.799443e-02    1.529230e-04
  7.829336e-02    1.495760e-04
  7.859229e-02    1.505606e-04
  7.889122e-02    1.464237e-04
  7.919015e-02    1.498867e-04
  7.948908e-02    1.497931e-04
  7.978801e-02    1.472862e-04
  8.008694e-02    1.458225e-04
  8.038587e-02    1.519205e-04
  8.068480e-02    1.519516e-04
  8.098373e-02    1.491912e-04
  8.128266e-02    1.481528e-04
  8.158159e-02    1.446417e-04
  8.188052e-02    1.475901e-04
  8.217945e-02    1.443599e-04
  8.247838e-02    1.423947e-04
  8.277731e-02    1.474332e-04
  8.307624e-02    1.426690e-04
  8.337518e-02    1.444632e-04
  8.367411e-02    1.426950e-04
  8.397304e-02    1.422265e-04
  8.427197e-02    1.447588e-04
  8.457090e-02    1.445430e-04
  8.486983e-02    1.426112e-04
  8.516876e-02    1.391368e-04
  8.546769e-02    1.401941e-04
  8.576662e-02    1.455344e-04
  8.606555e-02    1.406391e-04
  8.636448e-02    1.393897e-04
  8.666341e-02    1.413887e-04
  8.696234e-02    1.412726e-04
  8.726127e-02    1.427138e-04
  8.756020e-02    1.430080e-04
  8.785913e-02    1.363021e-04
  8.815806e-02    1.333012e-04
  8.845699e-02    1.356718e-04
  8.875592e-02    1.389752e-04
  8.905485e-02    1.368231e-04
  8.935378e-02    1.355270e-04
  8.965271e-02    1.359428e-04
  8.995164e-02    1.355766e-04
  9.025057e-02    1.343523e-04
  9.054950e-02    1.337757e-04
  9.084843e-02    1.358918e-04
  9.114737e-02    1.364437e-04
  9.144630e-02    1.319225e-04
  9.174523e-02    1.307230e-04
  9.204416e-02    1.281862e-04
  9.234309e-02    1.327152e-04
  9.264202e-02    1.316291e-04
  9.294095e-02    1.366704e-04
  9.323988e-02    1.381560e-04
  9.353881e-02    1.288541e-04
  9.383774e-02    1.299581e-04
  9.413667e-02    1.293291e-04
  9.443560e-02    1.343008e-04
  9.473453e-02    1.378199e-04
  9.503346e-02    1.309061e-04
  9.533239e-02    1.295835e-04
  9.563132e-02    1.317860e-04
  9.593025e-02    1.330613e-04
  9.622918e-02    1.277272e-04
  9.652811e-02    1.330740e-04
  9.682704e-02    1.351219e-04
  9.712597e-02    1.336706e-04
  9.742490e-02    1.332094e-04
  9.772383e-02    1.317452e-04
  9.802276e-02    1.323562e-04
  9.832169e-02    1.241058e-04
  9.862062e-02    1.262791e-04
  9.891956e-02    1.305489e-04
  9.921849e-02    1.267518e-04
  9.951742e-02    1.239627e-04
  9.981635e-02    1.243888e-04
  1.001153e-01    1.201330e-04
  1.004142e-01    1.208199e-04
  1.007131e-01    1.228960e-04
  1.010121e-01    1.226365e-04
  1.013110e-01    1.199649e-04
  1.016099e-01    1.263501e-04
  1.019089e-01    1.264672e-04
  1.022078e-01    1.236492e-04
  1.025067e-01    1.266038e-04
  1.028057e-01    1.247092e-04
  1.031046e-01    1.256301e-04
  1.034035e-01    1.258806e-04
  1.037024e-01    1.222672e-04
  1.040014e-01    1.213660e-04
  1.043003e-01    1.251789e-04
  1.045992e-01    1.283894e-04
  1.048982e-01    1.248767e-04
  1.051971e-01    1.208489e-04
  1.054960e-01    1.198335e-04
  1.057950e-01    1.171600e-04
  1.060939e-01    1.163290e-04
  1.063928e-01    1.200131e-04
  1.066917e-01    1.158170e-04
  1.069907e-01    1.195065e-04
  1.072896e-01    1.172881e-04
  1.075885e-01    1.142412e-04
  1.078875e-01    1.160494e-04
  1.081864e-01    1.176470e-04
  1.084853e-01    1.180118e-04
  1.087843e-01    1.182292e-04
  1.090832e-01    1.197876e-04
  1.093821e-01    1.267375e-04
  1.096810e-01    1.217265e-04
  1.099800e-01    1.150311e-04
  1.102789e-01    1.157683e-04
  1.105778e-01    1.144904e-04
  1.108768e-01    1.137380e-04
  1.111757e-01    1.130087e-04
  1.114746e-01    1.128286e-04
  1.117736e-01    1.131220e-04
  1.120725e-01    1.107598e-04
  1.123714e-01    1.113008e-04
  1.126704e-01    1.116383e-04
  1.129693e-01    1.063793e-04
  1.132682e-01    1.068295e-04
  1.135671e-01    1.099359e-04
  1.138661e-01    1.134423e-04
  1.141650e-01    1.141728e-04
  1.144639e-01    1.131620e-04
  1.147629e-01    1.125367e-04
  1.150618e-01    1.087437e-04
  1.153607e-01    1.047776e-04
  1.156597e-01    1.078338e-04
  1.159586e-01    1.027426e-04
  1.162575e-01    1.050396e-04
  1.165564e-01    1.061417e-04
  1.168554e-01    1.045422e-04
  1.171543e-01    1.068831e-04
  1.174532e-01    1.078620e-04
  1.177522e-01    1.064675e-04
  1.180511e-01    1.057807e-04
  1.183500e-01    1.085738e-04
  1.186490e-01    1.171748e-04
  1.189479e-01    1.153430e-04
  1.192468e-01    1.096676e-04
  1.195458e-01    1.195175e-04
  1.198447e-01    1.082861e-04
  1.201436e-01    9.486908e-05
  1.204425e-01    1.138867e-04
  1.207415e-01    9.481770e-05
  1.210404e-01    9.101138e-05
  1.213393e-01    0.000000e+00
  1.216383e-01    0.000000e+00
  1.219372e-01    0.000000e+00
  1.222361e-01    0.000000e+00
  1.225351e-01    0.000000e+00
  1.228340e-01    0.000000e+00
  1.231329e-01    0.000000e+00
  1.234318e-01    0.000000e+00
  1.237308e-01    0.000000e+00
  1.240297e-01    0.000000e+00
  1.243286e-01    0.000000e+00
  1.246276e-01    0.000000e+00
  1.249265e-01    0.000000e+00
  1.252254e-01    0.000000e+00
  1.255244e-01    0.000000e+00
  1.258233e-01    0.000000e+00
  1.261222e-01    0.000000e+00
  1.264212e-01    0.000000e+00
  1.267201e-01    0.000000e+00
  1.270190e-01    0.000000e+00
  1.273179e-01    0.000000e+00
  1.276169e-01    0.000000e+00
  1.279158e-01    0.000000e+00
  1.282147e-01    0.000000e+00
  1.285137e-01    0.000000e+00
  1.288126e-01    0.000000e+00
  1.291115e-01    0.000000e+00
  1.294105e-01    0.000000e+00
  1.297094e-01    0.000000e+00
  1.300083e-01    0.000000e+00
  1.303072e-01    0.000000e+00
  1.306062e-01    0.000000e+00
  1.309051e-01    0.000000e+00
  1.312040e-01    0.000000e+00
  1.315030e-01    0.000000e+00
  1.318019e-01    0.000000e+00
  1.321008e-01    0.000000e+00
  1.323998e-01    0.000000e+00
  1.326987e-01    0.000000e+00
  1.329976e-01    0.000000e+00
  1.332965e-01    0.000000e+00
  1.335955e-01    0.000000e+00
  1.338944e-01    0.000000e+00
  1.341933e-01    0.000000e+00
  1.344923e-01    0.000000e+00
  1.347912e-01    0.000000e+00
  1.350901e-01    0.000000e+00
  1.353891e-01    0.000000e+00
  1.356880e-01    0.000000e+00
  1.359869e-01    0.000000e+00
  1.362859e-01    0.000000e+00
  1.365848e-01    0.000000e+00
  1.368837e-01    0.000000e+00
  1.371826e-01    0.000000e+00
  1.374816e-01    0.000000e+00
  1.377805e-01    0.000000e+00
  1.380794e-01    0.000000e+00
  1.383784e-01    0.000000e+00
  1.386773e-01    0.000000e+00
  1.389762e-01    0.000000e+00
  1.392752e-01    0.000000e+00
  1.395741e-01    0.000000e+00
  1.398730e-01    0.000000e+00
  1.401719e-01    0.000000e+00
  1.404709e-01    0.000000e+00
  1.407698e-01    0.000000e+00
  1.410687e-01    0.000000e+00
  1.413677e-01    0.000000e+00
  1.416666e-01    0.000000e+00
  1.419655e-01    0.000000e+00
  1.422645e-01    0.000000e+00
  1.425634e-01    0.000000e+00
  1.428623e-01    0.000000e+00
  1.431613e-01    0.000000e+00
  1.434602e-01    0.000000e+00
  1.437591e-01    0.000000e+00
  1.440580e-01    0.000000e+00
  1.443570e-01    0.000000e+00
  1.446559e-01    0.000000e+00
  1.449548e-01    0.000000e+00
  1.452538e-01    0.000000e+00
  1.455527e-01    0.000000e+00
  1.458516e-01    0.000000e+00
  1.461506e-01    0.000000e+00
  1.464495e-01    0.000000e+00
  1.467484e-01    0.000000e+00
  1.470473e-01    0.000000e+00
  1.473463e-01    0.000000e+00
  1.476452e-01    0.000000e+00
  1.479441e-01    0.000000e+00
  1.482431e-01    0.000000e+00
  1.485420e-01    0.000000e+00
  1.488409e-01    0.000000e+00
  1.491399e-01    0.000000e+00
  1.494388e-01    0.000000e+00
  1.497377e-01    0.000000e+00
  1.500367e-01    0.000000e+00
  1.503356e-01    0.000000e+00
  1.506345e-01    0.000000e+00
  1.509334e-01    0.000000e+00
  1.512324e-01    0.000000e+00
  1.515313e-01    0.000000e+00
  1.518302e-01    0.000000e+00
  1.521292e-01    0.000000e+00
  1.524281e-01    0.000000e+00
  1.527270e-01    0.000000e+00
  1.530260e-01    0.000000e+00
  1.533249e-01    0.000000e+00
  1.536238e-01    0.000000e+00
