# == pyFAI calibration ==
# Distance Sample to Detector: 2.266 m
# PONI: 5.659e-02, 4.293e-02 m
# Rotations: 0.000000 0.000000 0.000000 rad
# 
# == Fit2d calibration ==
# Distance Sample-beamCenter: 2266.000 mm
# Center: x=249.594, y=329.012 pix
# Tilt: 0.000 deg  TiltPlanRot: 0.000 deg
# 
# Detector Pilatus 300k	 PixelSize= 1.720e-04, 1.720e-04 m
#    Detector has a mask: True 
#    Detector has a dark current: False 
#    detector has a flat field: False 
# 
# Wavelength: 1.27818e-10 m
# Mask applied: user provided
# Dark current applied: False
# Flat field applied: False
# Polarization factor: None
# Normalization factor: 68129.6
# --> AL_DowExpt1_220227_f812d7ae-8ab3-4c3e-97ae-00e83f761321_2_r1d.csv
#        q_A^-1             I 
  4.457554e-03    2.610812e-01
  4.756484e-03    2.259951e-01
  5.055415e-03    1.852714e-01
  5.354345e-03    1.505414e-01
  5.653276e-03    1.271146e-01
  5.952206e-03    2.244680e-01
  6.251136e-03    2.056574e-01
  6.550067e-03    1.781486e-01
  6.848997e-03    1.493565e-01
  7.147927e-03    1.236744e-01
  7.446858e-03    1.034219e-01
  7.745788e-03    8.659133e-02
  8.044719e-03    7.276895e-02
  8.343649e-03    6.213337e-02
  8.642579e-03    5.332200e-02
  8.941510e-03    4.594648e-02
  9.240440e-03    3.977865e-02
  9.539371e-03    3.449375e-02
  9.838301e-03    3.011375e-02
  1.013723e-02    2.654728e-02
  1.043616e-02    2.344044e-02
  1.073509e-02    2.059446e-02
  1.103402e-02    1.823342e-02
  1.133295e-02    1.621362e-02
  1.163188e-02    1.452419e-02
  1.193081e-02    1.306529e-02
  1.222974e-02    1.177617e-02
  1.252867e-02    1.063104e-02
  1.282760e-02    9.602792e-03
  1.312654e-02    8.708715e-03
  1.342547e-02    7.920922e-03
  1.372440e-02    7.229963e-03
  1.402333e-02    6.601273e-03
  1.432226e-02    6.052473e-03
  1.462119e-02    5.549474e-03
  1.492012e-02    5.106341e-03
  1.521905e-02    4.682232e-03
  1.551798e-02    4.319939e-03
  1.581691e-02    4.020573e-03
  1.611584e-02    3.702947e-03
  1.641477e-02    3.401598e-03
  1.671370e-02    3.164276e-03
  1.701263e-02    2.963626e-03
  1.731156e-02    2.767853e-03
  1.761049e-02    2.576744e-03
  1.790942e-02    2.406778e-03
  1.820835e-02    2.239741e-03
  1.850728e-02    2.085642e-03
  1.880621e-02    1.947792e-03
  1.910514e-02    1.832825e-03
  1.940407e-02    1.719293e-03
  1.970300e-02    1.623843e-03
  2.000193e-02    1.526817e-03
  2.030086e-02    1.426443e-03
  2.059979e-02    1.349689e-03
  2.089873e-02    1.271046e-03
  2.119766e-02    1.198438e-03
  2.149659e-02    1.146918e-03
  2.179552e-02    1.083452e-03
  2.209445e-02    1.024209e-03
  2.239338e-02    9.727715e-04
  2.269231e-02    9.265626e-04
  2.299124e-02    8.828984e-04
  2.329017e-02    8.397470e-04
  2.358910e-02    8.065564e-04
  2.388803e-02    7.765647e-04
  2.418696e-02    7.408801e-04
  2.448589e-02    7.007242e-04
  2.478482e-02    6.706068e-04
  2.508375e-02    6.359846e-04
  2.538268e-02    6.097598e-04
  2.568161e-02    5.876580e-04
  2.598054e-02    5.622528e-04
  2.627947e-02    5.416803e-04
  2.657840e-02    5.192971e-04
  2.687733e-02    5.008034e-04
  2.717626e-02    4.819624e-04
  2.747519e-02    4.679573e-04
  2.777412e-02    4.519430e-04
  2.807305e-02    4.335728e-04
  2.837198e-02    4.230102e-04
  2.867092e-02    4.096197e-04
  2.896985e-02    3.979560e-04
  2.926878e-02    3.843093e-04
  2.956771e-02    3.679549e-04
  2.986664e-02    3.588848e-04
  3.016557e-02    3.492732e-04
  3.046450e-02    3.384303e-04
  3.076343e-02    3.256801e-04
  3.106236e-02    3.198494e-04
  3.136129e-02    3.099901e-04
  3.166022e-02    3.007250e-04
  3.195915e-02    2.991864e-04
  3.225808e-02    2.897586e-04
  3.255701e-02    2.782863e-04
  3.285594e-02    2.723139e-04
  3.315487e-02    2.657278e-04
  3.345380e-02    2.565226e-04
  3.375273e-02    2.514883e-04
  3.405166e-02    2.451109e-04
  3.435059e-02    2.366985e-04
  3.464952e-02    2.326882e-04
  3.494845e-02    2.287141e-04
  3.524738e-02    2.249531e-04
  3.554631e-02    2.223782e-04
  3.584524e-02    2.205441e-04
  3.614417e-02    2.172327e-04
  3.644310e-02    2.102342e-04
  3.674204e-02    2.080939e-04
  3.704097e-02    2.032709e-04
  3.733990e-02    1.965772e-04
  3.763883e-02    1.951008e-04
  3.793776e-02    1.904385e-04
  3.823669e-02    1.853171e-04
  3.853562e-02    1.832791e-04
  3.883455e-02    1.829170e-04
  3.913348e-02    1.810053e-04
  3.943241e-02    1.768572e-04
  3.973134e-02    1.737057e-04
  4.003027e-02    1.701403e-04
  4.032920e-02    1.697745e-04
  4.062813e-02    1.670835e-04
  4.092706e-02    1.648793e-04
  4.122599e-02    1.617742e-04
  4.152492e-02    1.618784e-04
  4.182385e-02    1.599352e-04
  4.212278e-02    1.567510e-04
  4.242171e-02    1.544775e-04
  4.272064e-02    1.536270e-04
  4.301957e-02    1.519854e-04
  4.331850e-02    1.504783e-04
  4.361743e-02    1.512339e-04
  4.391636e-02    1.477177e-04
  4.421529e-02    1.473888e-04
  4.451423e-02    1.461027e-04
  4.481316e-02    1.433789e-04
  4.511209e-02    1.434107e-04
  4.541102e-02    1.414855e-04
  4.570995e-02    1.418643e-04
  4.600888e-02    1.396731e-04
  4.630781e-02    1.364836e-04
  4.660674e-02    1.360949e-04
  4.690567e-02    1.372398e-04
  4.720460e-02    1.374288e-04
  4.750353e-02    1.365497e-04
  4.780246e-02    1.332757e-04
  4.810139e-02    1.320160e-04
  4.840032e-02    1.313784e-04
  4.869925e-02    1.296218e-04
  4.899818e-02    1.299150e-04
  4.929711e-02    1.298162e-04
  4.959604e-02    1.302645e-04
  4.989497e-02    1.284118e-04
  5.019390e-02    1.298296e-04
  5.049283e-02    1.288088e-04
  5.079176e-02    1.275727e-04
  5.109069e-02    1.289942e-04
  5.138962e-02    1.303370e-04
  5.168855e-02    1.294830e-04
  5.198748e-02    1.290168e-04
  5.228642e-02    1.282248e-04
  5.258535e-02    1.276541e-04
  5.288428e-02    1.267406e-04
  5.318321e-02    1.265389e-04
  5.348214e-02    1.246318e-04
  5.378107e-02    1.235312e-04
  5.408000e-02    1.226768e-04
  5.437893e-02    1.227146e-04
  5.467786e-02    1.235080e-04
  5.497679e-02    1.242124e-04
  5.527572e-02    1.235306e-04
  5.557465e-02    1.231457e-04
  5.587358e-02    1.242072e-04
  5.617251e-02    1.238876e-04
  5.647144e-02    1.222845e-04
  5.677037e-02    1.211293e-04
  5.706930e-02    1.205469e-04
  5.736823e-02    1.209785e-04
  5.766716e-02    1.205224e-04
  5.796609e-02    1.201128e-04
  5.826502e-02    1.196092e-04
  5.856395e-02    1.200979e-04
  5.886288e-02    1.214271e-04
  5.916181e-02    1.212966e-04
  5.946074e-02    1.202764e-04
  5.975967e-02    1.207466e-04
  6.005861e-02    1.216341e-04
  6.035754e-02    1.223978e-04
  6.065647e-02    1.220492e-04
  6.095540e-02    1.217090e-04
  6.125433e-02    1.221349e-04
  6.155326e-02    1.233020e-04
  6.185219e-02    1.213210e-04
  6.215112e-02    1.214020e-04
  6.245005e-02    1.222040e-04
  6.274898e-02    1.218706e-04
  6.304791e-02    1.223553e-04
  6.334684e-02    1.213372e-04
  6.364577e-02    1.208309e-04
  6.394470e-02    1.198536e-04
  6.424363e-02    1.210507e-04
  6.454256e-02    1.211246e-04
  6.484149e-02    1.218069e-04
  6.514042e-02    1.218770e-04
  6.543935e-02    1.214355e-04
  6.573828e-02    1.212675e-04
  6.603721e-02    1.211262e-04
  6.633614e-02    1.222479e-04
  6.663507e-02    1.212720e-04
  6.693400e-02    1.206010e-04
  6.723293e-02    1.219266e-04
  6.753186e-02    1.216780e-04
  6.783080e-02    1.222371e-04
  6.812973e-02    1.224656e-04
  6.842866e-02    1.213807e-04
  6.872759e-02    1.224000e-04
  6.902652e-02    1.213470e-04
  6.932545e-02    1.208956e-04
  6.962438e-02    1.196036e-04
  6.992331e-02    1.209251e-04
  7.022224e-02    1.220887e-04
  7.052117e-02    1.236516e-04
  7.082010e-02    1.228794e-04
  7.111903e-02    1.217531e-04
  7.141796e-02    1.209322e-04
  7.171689e-02    1.208145e-04
  7.201582e-02    1.212855e-04
  7.231475e-02    1.218493e-04
  7.261368e-02    1.224139e-04
  7.291261e-02    1.222046e-04
  7.321154e-02    1.235565e-04
  7.351047e-02    1.243182e-04
  7.380940e-02    1.226398e-04
  7.410833e-02    1.215764e-04
  7.440726e-02    1.216778e-04
  7.470619e-02    1.213511e-04
  7.500512e-02    1.212715e-04
  7.530405e-02    1.213816e-04
  7.560299e-02    1.204635e-04
  7.590192e-02    1.207137e-04
  7.620085e-02    1.200510e-04
  7.649978e-02    1.189539e-04
  7.679871e-02    1.211751e-04
  7.709764e-02    1.209202e-04
  7.739657e-02    1.200087e-04
  7.769550e-02    1.205402e-04
  7.799443e-02    1.199460e-04
  7.829336e-02    1.197178e-04
  7.859229e-02    1.191701e-04
  7.889122e-02    1.188370e-04
  7.919015e-02    1.187610e-04
  7.948908e-02    1.199697e-04
  7.978801e-02    1.198575e-04
  8.008694e-02    1.195249e-04
  8.038587e-02    1.186939e-04
  8.068480e-02    1.180363e-04
  8.098373e-02    1.178174e-04
  8.128266e-02    1.185925e-04
  8.158159e-02    1.203022e-04
  8.188052e-02    1.186702e-04
  8.217945e-02    1.188613e-04
  8.247838e-02    1.184776e-04
  8.277731e-02    1.175943e-04
  8.307624e-02    1.184626e-04
  8.337518e-02    1.182192e-04
  8.367411e-02    1.181657e-04
  8.397304e-02    1.174887e-04
  8.427197e-02    1.166198e-04
  8.457090e-02    1.170608e-04
  8.486983e-02    1.169855e-04
  8.516876e-02    1.177908e-04
  8.546769e-02    1.175526e-04
  8.576662e-02    1.154748e-04
  8.606555e-02    1.144900e-04
  8.636448e-02    1.153152e-04
  8.666341e-02    1.162550e-04
  8.696234e-02    1.153434e-04
  8.726127e-02    1.142837e-04
  8.756020e-02    1.148348e-04
  8.785913e-02    1.143102e-04
  8.815806e-02    1.154085e-04
  8.845699e-02    1.142524e-04
  8.875592e-02    1.145166e-04
  8.905485e-02    1.139730e-04
  8.935378e-02    1.138419e-04
  8.965271e-02    1.123899e-04
  8.995164e-02    1.120693e-04
  9.025057e-02    1.116175e-04
  9.054950e-02    1.107768e-04
  9.084843e-02    1.125597e-04
  9.114737e-02    1.133437e-04
  9.144630e-02    1.120462e-04
  9.174523e-02    1.109404e-04
  9.204416e-02    1.112325e-04
  9.234309e-02    1.106469e-04
  9.264202e-02    1.098499e-04
  9.294095e-02    1.089460e-04
  9.323988e-02    1.082969e-04
  9.353881e-02    1.090071e-04
  9.383774e-02    1.102203e-04
  9.413667e-02    1.102598e-04
  9.443560e-02    1.097800e-04
  9.473453e-02    1.092736e-04
  9.503346e-02    1.077597e-04
  9.533239e-02    1.073753e-04
  9.563132e-02    1.070970e-04
  9.593025e-02    1.079362e-04
  9.622918e-02    1.087662e-04
  9.652811e-02    1.077739e-04
  9.682704e-02    1.082242e-04
  9.712597e-02    1.082412e-04
  9.742490e-02    1.078686e-04
  9.772383e-02    1.076109e-04
  9.802276e-02    1.065886e-04
  9.832169e-02    1.054755e-04
  9.862062e-02    1.050116e-04
  9.891956e-02    1.045108e-04
  9.921849e-02    1.041807e-04
  9.951742e-02    1.065791e-04
  9.981635e-02    1.064128e-04
  1.001153e-01    1.053774e-04
  1.004142e-01    1.051139e-04
  1.007131e-01    1.053519e-04
  1.010121e-01    1.044032e-04
  1.013110e-01    1.024482e-04
  1.016099e-01    1.033643e-04
  1.019089e-01    1.028403e-04
  1.022078e-01    1.027606e-04
  1.025067e-01    1.034899e-04
  1.028057e-01    1.027652e-04
  1.031046e-01    1.037934e-04
  1.034035e-01    1.019577e-04
  1.037024e-01    9.939498e-05
  1.040014e-01    9.973420e-05
  1.043003e-01    1.005112e-04
  1.045992e-01    1.027858e-04
  1.048982e-01    1.025139e-04
  1.051971e-01    1.033150e-04
  1.054960e-01    1.018210e-04
  1.057950e-01    9.958612e-05
  1.060939e-01    9.917675e-05
  1.063928e-01    9.924809e-05
  1.066917e-01    9.972147e-05
  1.069907e-01    9.759238e-05
  1.072896e-01    9.902751e-05
  1.075885e-01    9.885666e-05
  1.078875e-01    9.801451e-05
  1.081864e-01    9.777738e-05
  1.084853e-01    9.780202e-05
  1.087843e-01    9.954184e-05
  1.090832e-01    9.936615e-05
  1.093821e-01    9.741639e-05
  1.096810e-01    9.693443e-05
  1.099800e-01    9.684497e-05
  1.102789e-01    9.753572e-05
  1.105778e-01    9.792011e-05
  1.108768e-01    9.582285e-05
  1.111757e-01    9.434068e-05
  1.114746e-01    9.585139e-05
  1.117736e-01    9.629365e-05
  1.120725e-01    9.593918e-05
  1.123714e-01    9.582243e-05
  1.126704e-01    9.399345e-05
  1.129693e-01    9.388802e-05
  1.132682e-01    9.525434e-05
  1.135671e-01    9.571029e-05
  1.138661e-01    9.653906e-05
  1.141650e-01    9.539249e-05
  1.144639e-01    9.300009e-05
  1.147629e-01    9.024860e-05
  1.150618e-01    8.929987e-05
  1.153607e-01    8.910187e-05
  1.156597e-01    9.043011e-05
  1.159586e-01    9.238916e-05
  1.162575e-01    9.425981e-05
  1.165564e-01    9.166619e-05
  1.168554e-01    8.800311e-05
  1.171543e-01    9.030758e-05
  1.174532e-01    9.566217e-05
  1.177522e-01    9.450126e-05
  1.180511e-01    9.153193e-05
  1.183500e-01    8.968633e-05
  1.186490e-01    8.580571e-05
  1.189479e-01    8.938028e-05
  1.192468e-01    8.932447e-05
  1.195458e-01    8.803537e-05
  1.198447e-01    9.103330e-05
  1.201436e-01    8.477175e-05
  1.204425e-01    7.634417e-05
  1.207415e-01    7.900541e-05
  1.210404e-01    1.028384e-04
  1.213393e-01    0.000000e+00
  1.216383e-01    0.000000e+00
  1.219372e-01    0.000000e+00
  1.222361e-01    0.000000e+00
  1.225351e-01    0.000000e+00
  1.228340e-01    0.000000e+00
  1.231329e-01    0.000000e+00
  1.234318e-01    0.000000e+00
  1.237308e-01    0.000000e+00
  1.240297e-01    0.000000e+00
  1.243286e-01    0.000000e+00
  1.246276e-01    0.000000e+00
  1.249265e-01    0.000000e+00
  1.252254e-01    0.000000e+00
  1.255244e-01    0.000000e+00
  1.258233e-01    0.000000e+00
  1.261222e-01    0.000000e+00
  1.264212e-01    0.000000e+00
  1.267201e-01    0.000000e+00
  1.270190e-01    0.000000e+00
  1.273179e-01    0.000000e+00
  1.276169e-01    0.000000e+00
  1.279158e-01    0.000000e+00
  1.282147e-01    0.000000e+00
  1.285137e-01    0.000000e+00
  1.288126e-01    0.000000e+00
  1.291115e-01    0.000000e+00
  1.294105e-01    0.000000e+00
  1.297094e-01    0.000000e+00
  1.300083e-01    0.000000e+00
  1.303072e-01    0.000000e+00
  1.306062e-01    0.000000e+00
  1.309051e-01    0.000000e+00
  1.312040e-01    0.000000e+00
  1.315030e-01    0.000000e+00
  1.318019e-01    0.000000e+00
  1.321008e-01    0.000000e+00
  1.323998e-01    0.000000e+00
  1.326987e-01    0.000000e+00
  1.329976e-01    0.000000e+00
  1.332965e-01    0.000000e+00
  1.335955e-01    0.000000e+00
  1.338944e-01    0.000000e+00
  1.341933e-01    0.000000e+00
  1.344923e-01    0.000000e+00
  1.347912e-01    0.000000e+00
  1.350901e-01    0.000000e+00
  1.353891e-01    0.000000e+00
  1.356880e-01    0.000000e+00
  1.359869e-01    0.000000e+00
  1.362859e-01    0.000000e+00
  1.365848e-01    0.000000e+00
  1.368837e-01    0.000000e+00
  1.371826e-01    0.000000e+00
  1.374816e-01    0.000000e+00
  1.377805e-01    0.000000e+00
  1.380794e-01    0.000000e+00
  1.383784e-01    0.000000e+00
  1.386773e-01    0.000000e+00
  1.389762e-01    0.000000e+00
  1.392752e-01    0.000000e+00
  1.395741e-01    0.000000e+00
  1.398730e-01    0.000000e+00
  1.401719e-01    0.000000e+00
  1.404709e-01    0.000000e+00
  1.407698e-01    0.000000e+00
  1.410687e-01    0.000000e+00
  1.413677e-01    0.000000e+00
  1.416666e-01    0.000000e+00
  1.419655e-01    0.000000e+00
  1.422645e-01    0.000000e+00
  1.425634e-01    0.000000e+00
  1.428623e-01    0.000000e+00
  1.431613e-01    0.000000e+00
  1.434602e-01    0.000000e+00
  1.437591e-01    0.000000e+00
  1.440580e-01    0.000000e+00
  1.443570e-01    0.000000e+00
  1.446559e-01    0.000000e+00
  1.449548e-01    0.000000e+00
  1.452538e-01    0.000000e+00
  1.455527e-01    0.000000e+00
  1.458516e-01    0.000000e+00
  1.461506e-01    0.000000e+00
  1.464495e-01    0.000000e+00
  1.467484e-01    0.000000e+00
  1.470473e-01    0.000000e+00
  1.473463e-01    0.000000e+00
  1.476452e-01    0.000000e+00
  1.479441e-01    0.000000e+00
  1.482431e-01    0.000000e+00
  1.485420e-01    0.000000e+00
  1.488409e-01    0.000000e+00
  1.491399e-01    0.000000e+00
  1.494388e-01    0.000000e+00
  1.497377e-01    0.000000e+00
  1.500367e-01    0.000000e+00
  1.503356e-01    0.000000e+00
  1.506345e-01    0.000000e+00
  1.509334e-01    0.000000e+00
  1.512324e-01    0.000000e+00
  1.515313e-01    0.000000e+00
  1.518302e-01    0.000000e+00
  1.521292e-01    0.000000e+00
  1.524281e-01    0.000000e+00
  1.527270e-01    0.000000e+00
  1.530260e-01    0.000000e+00
  1.533249e-01    0.000000e+00
  1.536238e-01    0.000000e+00
