# == pyFAI calibration ==
# Distance Sample to Detector: 2.266 m
# PONI: 5.659e-02, 4.293e-02 m
# Rotations: 0.000000 0.000000 0.000000 rad
# 
# == Fit2d calibration ==
# Distance Sample-beamCenter: 2266.000 mm
# Center: x=249.594, y=329.012 pix
# Tilt: 0.000 deg  TiltPlanRot: 0.000 deg
# 
# Detector Pilatus 300k	 PixelSize= 1.720e-04, 1.720e-04 m
#    Detector has a mask: True 
#    Detector has a dark current: False 
#    detector has a flat field: False 
# 
# Wavelength: 1.27818e-10 m
# Mask applied: user provided
# Dark current applied: False
# Flat field applied: False
# Polarization factor: None
# Normalization factor: 4867.9800000000005
# --> AL_DowExpt1_220227_8fdd133c-6263-4777-b93e-ceaa60173c9a_1_r1d.csv
#        q_A^-1             I 
  4.457554e-03    1.101537e-01
  4.756484e-03    8.486931e-02
  5.055415e-03    5.939068e-02
  5.354345e-03    4.051775e-02
  5.653276e-03    2.999221e-02
  5.952206e-03    1.204916e-01
  6.251136e-03    1.102149e-01
  6.550067e-03    9.180348e-02
  6.848997e-03    7.102969e-02
  7.147927e-03    5.325181e-02
  7.446858e-03    3.988820e-02
  7.745788e-03    3.024480e-02
  8.044719e-03    2.357508e-02
  8.343649e-03    1.932127e-02
  8.642579e-03    1.643718e-02
  8.941510e-03    1.492859e-02
  9.240440e-03    1.366558e-02
  9.539371e-03    1.288086e-02
  9.838301e-03    1.221591e-02
  1.013723e-02    1.136764e-02
  1.043616e-02    1.054059e-02
  1.073509e-02    9.574815e-03
  1.103402e-02    8.642728e-03
  1.133295e-02    7.665243e-03
  1.163188e-02    6.607605e-03
  1.193081e-02    5.884680e-03
  1.222974e-02    5.127139e-03
  1.252867e-02    4.477985e-03
  1.282760e-02    3.982087e-03
  1.312654e-02    3.601863e-03
  1.342547e-02    3.253840e-03
  1.372440e-02    3.028107e-03
  1.402333e-02    2.880328e-03
  1.432226e-02    2.769056e-03
  1.462119e-02    2.596067e-03
  1.492012e-02    2.412225e-03
  1.521905e-02    2.271369e-03
  1.551798e-02    2.184979e-03
  1.581691e-02    2.057734e-03
  1.611584e-02    1.869349e-03
  1.641477e-02    1.712105e-03
  1.671370e-02    1.576834e-03
  1.701263e-02    1.422618e-03
  1.731156e-02    1.350508e-03
  1.761049e-02    1.217339e-03
  1.790942e-02    1.117341e-03
  1.820835e-02    1.106948e-03
  1.850728e-02    1.075709e-03
  1.880621e-02    1.016863e-03
  1.910514e-02    9.981135e-04
  1.940407e-02    9.594532e-04
  1.970300e-02    9.031945e-04
  2.000193e-02    8.381780e-04
  2.030086e-02    8.121390e-04
  2.059979e-02    8.040318e-04
  2.089873e-02    7.567777e-04
  2.119766e-02    7.207431e-04
  2.149659e-02    6.932510e-04
  2.179552e-02    6.600733e-04
  2.209445e-02    6.237905e-04
  2.239338e-02    5.834541e-04
  2.269231e-02    5.473106e-04
  2.299124e-02    5.171117e-04
  2.329017e-02    5.221402e-04
  2.358910e-02    5.158475e-04
  2.388803e-02    5.047824e-04
  2.418696e-02    4.870550e-04
  2.448589e-02    4.753147e-04
  2.478482e-02    4.504649e-04
  2.508375e-02    4.265379e-04
  2.538268e-02    4.177553e-04
  2.568161e-02    4.060230e-04
  2.598054e-02    3.962388e-04
  2.627947e-02    3.879704e-04
  2.657840e-02    3.970618e-04
  2.687733e-02    3.757427e-04
  2.717626e-02    3.596726e-04
  2.747519e-02    3.556097e-04
  2.777412e-02    3.455296e-04
  2.807305e-02    3.380266e-04
  2.837198e-02    3.293927e-04
  2.867092e-02    3.266690e-04
  2.896985e-02    3.127167e-04
  2.926878e-02    3.063446e-04
  2.956771e-02    2.874687e-04
  2.986664e-02    2.838505e-04
  3.016557e-02    2.818527e-04
  3.046450e-02    2.905537e-04
  3.076343e-02    2.802965e-04
  3.106236e-02    2.658635e-04
  3.136129e-02    2.750499e-04
  3.166022e-02    2.600298e-04
  3.195915e-02    2.511246e-04
  3.225808e-02    2.605485e-04
  3.255701e-02    2.561229e-04
  3.285594e-02    2.463055e-04
  3.315487e-02    2.480849e-04
  3.345380e-02    2.418699e-04
  3.375273e-02    2.374643e-04
  3.405166e-02    2.269264e-04
  3.435059e-02    2.272945e-04
  3.464952e-02    2.244543e-04
  3.494845e-02    2.261368e-04
  3.524738e-02    2.153222e-04
  3.554631e-02    2.117605e-04
  3.584524e-02    2.196103e-04
  3.614417e-02    2.089724e-04
  3.644310e-02    2.070042e-04
  3.674204e-02    2.078395e-04
  3.704097e-02    2.032477e-04
  3.733990e-02    1.996035e-04
  3.763883e-02    1.956799e-04
  3.793776e-02    1.874726e-04
  3.823669e-02    1.886289e-04
  3.853562e-02    1.913414e-04
  3.883455e-02    1.884636e-04
  3.913348e-02    1.881355e-04
  3.943241e-02    1.842114e-04
  3.973134e-02    1.784403e-04
  4.003027e-02    1.815368e-04
  4.032920e-02    1.809563e-04
  4.062813e-02    1.823855e-04
  4.092706e-02    1.846833e-04
  4.122599e-02    1.770080e-04
  4.152492e-02    1.691545e-04
  4.182385e-02    1.751962e-04
  4.212278e-02    1.724655e-04
  4.242171e-02    1.734340e-04
  4.272064e-02    1.781542e-04
  4.301957e-02    1.771526e-04
  4.331850e-02    1.740988e-04
  4.361743e-02    1.736021e-04
  4.391636e-02    1.636183e-04
  4.421529e-02    1.656272e-04
  4.451423e-02    1.634150e-04
  4.481316e-02    1.631675e-04
  4.511209e-02    1.642085e-04
  4.541102e-02    1.555709e-04
  4.570995e-02    1.484384e-04
  4.600888e-02    1.565793e-04
  4.630781e-02    1.790842e-04
  4.660674e-02    1.685225e-04
  4.690567e-02    1.624311e-04
  4.720460e-02    1.650486e-04
  4.750353e-02    1.670797e-04
  4.780246e-02    1.676733e-04
  4.810139e-02    1.494754e-04
  4.840032e-02    1.438958e-04
  4.869925e-02    1.506393e-04
  4.899818e-02    1.536467e-04
  4.929711e-02    1.594878e-04
  4.959604e-02    1.440036e-04
  4.989497e-02    1.464376e-04
  5.019390e-02    1.487339e-04
  5.049283e-02    1.534216e-04
  5.079176e-02    1.572312e-04
  5.109069e-02    1.608367e-04
  5.138962e-02    1.602216e-04
  5.168855e-02    1.628181e-04
  5.198748e-02    1.603031e-04
  5.228642e-02    1.484964e-04
  5.258535e-02    1.497777e-04
  5.288428e-02    1.596407e-04
  5.318321e-02    1.538872e-04
  5.348214e-02    1.576732e-04
  5.378107e-02    1.636094e-04
  5.408000e-02    1.602147e-04
  5.437893e-02    1.562088e-04
  5.467786e-02    1.468285e-04
  5.497679e-02    1.485475e-04
  5.527572e-02    1.441539e-04
  5.557465e-02    1.428609e-04
  5.587358e-02    1.468942e-04
  5.617251e-02    1.570795e-04
  5.647144e-02    1.532677e-04
  5.677037e-02    1.505077e-04
  5.706930e-02    1.469481e-04
  5.736823e-02    1.475296e-04
  5.766716e-02    1.551264e-04
  5.796609e-02    1.525714e-04
  5.826502e-02    1.493309e-04
  5.856395e-02    1.504841e-04
  5.886288e-02    1.464384e-04
  5.916181e-02    1.404690e-04
  5.946074e-02    1.404242e-04
  5.975967e-02    1.408796e-04
  6.005861e-02    1.452651e-04
  6.035754e-02    1.496477e-04
  6.065647e-02    1.399603e-04
  6.095540e-02    1.412317e-04
  6.125433e-02    1.495945e-04
  6.155326e-02    1.449450e-04
  6.185219e-02    1.460888e-04
  6.215112e-02    1.399688e-04
  6.245005e-02    1.339068e-04
  6.274898e-02    1.383835e-04
  6.304791e-02    1.456981e-04
  6.334684e-02    1.441725e-04
  6.364577e-02    1.434476e-04
  6.394470e-02    1.462071e-04
  6.424363e-02    1.527973e-04
  6.454256e-02    1.434528e-04
  6.484149e-02    1.444407e-04
  6.514042e-02    1.440647e-04
  6.543935e-02    1.408392e-04
  6.573828e-02    1.447376e-04
  6.603721e-02    1.472243e-04
  6.633614e-02    1.473085e-04
  6.663507e-02    1.461865e-04
  6.693400e-02    1.458934e-04
  6.723293e-02    1.486774e-04
  6.753186e-02    1.453314e-04
  6.783080e-02    1.412399e-04
  6.812973e-02    1.471464e-04
  6.842866e-02    1.523457e-04
  6.872759e-02    1.463059e-04
  6.902652e-02    1.479024e-04
  6.932545e-02    1.470837e-04
  6.962438e-02    1.473875e-04
  6.992331e-02    1.426544e-04
  7.022224e-02    1.388798e-04
  7.052117e-02    1.477806e-04
  7.082010e-02    1.404740e-04
  7.111903e-02    1.336172e-04
  7.141796e-02    1.457070e-04
  7.171689e-02    1.514791e-04
  7.201582e-02    1.532561e-04
  7.231475e-02    1.485307e-04
  7.261368e-02    1.508432e-04
  7.291261e-02    1.478822e-04
  7.321154e-02    1.424097e-04
  7.351047e-02    1.474479e-04
  7.380940e-02    1.435009e-04
  7.410833e-02    1.451169e-04
  7.440726e-02    1.508621e-04
  7.470619e-02    1.467340e-04
  7.500512e-02    1.494339e-04
  7.530405e-02    1.544507e-04
  7.560299e-02    1.506288e-04
  7.590192e-02    1.438153e-04
  7.620085e-02    1.411654e-04
  7.649978e-02    1.445575e-04
  7.679871e-02    1.451406e-04
  7.709764e-02    1.416145e-04
  7.739657e-02    1.485174e-04
  7.769550e-02    1.545880e-04
  7.799443e-02    1.474813e-04
  7.829336e-02    1.440638e-04
  7.859229e-02    1.438657e-04
  7.889122e-02    1.456091e-04
  7.919015e-02    1.503350e-04
  7.948908e-02    1.449142e-04
  7.978801e-02    1.389479e-04
  8.008694e-02    1.384458e-04
  8.038587e-02    1.397997e-04
  8.068480e-02    1.397977e-04
  8.098373e-02    1.426103e-04
  8.128266e-02    1.413402e-04
  8.158159e-02    1.444041e-04
  8.188052e-02    1.477522e-04
  8.217945e-02    1.454967e-04
  8.247838e-02    1.446760e-04
  8.277731e-02    1.405598e-04
  8.307624e-02    1.419003e-04
  8.337518e-02    1.407038e-04
  8.367411e-02    1.400466e-04
  8.397304e-02    1.435119e-04
  8.427197e-02    1.403367e-04
  8.457090e-02    1.391307e-04
  8.486983e-02    1.456061e-04
  8.516876e-02    1.464446e-04
  8.546769e-02    1.442462e-04
  8.576662e-02    1.483400e-04
  8.606555e-02    1.369273e-04
  8.636448e-02    1.348432e-04
  8.666341e-02    1.389304e-04
  8.696234e-02    1.405269e-04
  8.726127e-02    1.422117e-04
  8.756020e-02    1.448690e-04
  8.785913e-02    1.431316e-04
  8.815806e-02    1.346460e-04
  8.845699e-02    1.388752e-04
  8.875592e-02    1.407363e-04
  8.905485e-02    1.352940e-04
  8.935378e-02    1.325530e-04
  8.965271e-02    1.358504e-04
  8.995164e-02    1.369493e-04
  9.025057e-02    1.412916e-04
  9.054950e-02    1.419455e-04
  9.084843e-02    1.401989e-04
  9.114737e-02    1.440370e-04
  9.144630e-02    1.429699e-04
  9.174523e-02    1.365771e-04
  9.204416e-02    1.360095e-04
  9.234309e-02    1.354284e-04
  9.264202e-02    1.265518e-04
  9.294095e-02    1.233286e-04
  9.323988e-02    1.310031e-04
  9.353881e-02    1.393199e-04
  9.383774e-02    1.368114e-04
  9.413667e-02    1.347506e-04
  9.443560e-02    1.333763e-04
  9.473453e-02    1.299270e-04
  9.503346e-02    1.284756e-04
  9.533239e-02    1.256111e-04
  9.563132e-02    1.366287e-04
  9.593025e-02    1.421988e-04
  9.622918e-02    1.419218e-04
  9.652811e-02    1.321496e-04
  9.682704e-02    1.348380e-04
  9.712597e-02    1.362566e-04
  9.742490e-02    1.369038e-04
  9.772383e-02    1.383478e-04
  9.802276e-02    1.337390e-04
  9.832169e-02    1.265300e-04
  9.862062e-02    1.276115e-04
  9.891956e-02    1.330311e-04
  9.921849e-02    1.338519e-04
  9.951742e-02    1.312477e-04
  9.981635e-02    1.287040e-04
  1.001153e-01    1.351930e-04
  1.004142e-01    1.376861e-04
  1.007131e-01    1.355126e-04
  1.010121e-01    1.348984e-04
  1.013110e-01    1.251741e-04
  1.016099e-01    1.284151e-04
  1.019089e-01    1.404934e-04
  1.022078e-01    1.420846e-04
  1.025067e-01    1.314126e-04
  1.028057e-01    1.267485e-04
  1.031046e-01    1.290527e-04
  1.034035e-01    1.265391e-04
  1.037024e-01    1.292567e-04
  1.040014e-01    1.336201e-04
  1.043003e-01    1.303619e-04
  1.045992e-01    1.312866e-04
  1.048982e-01    1.312631e-04
  1.051971e-01    1.289935e-04
  1.054960e-01    1.288396e-04
  1.057950e-01    1.270456e-04
  1.060939e-01    1.255002e-04
  1.063928e-01    1.359556e-04
  1.066917e-01    1.311958e-04
  1.069907e-01    1.233918e-04
  1.072896e-01    1.287058e-04
  1.075885e-01    1.280994e-04
  1.078875e-01    1.204068e-04
  1.081864e-01    1.212966e-04
  1.084853e-01    1.252343e-04
  1.087843e-01    1.253356e-04
  1.090832e-01    1.241713e-04
  1.093821e-01    1.234895e-04
  1.096810e-01    1.300833e-04
  1.099800e-01    1.286294e-04
  1.102789e-01    1.264444e-04
  1.105778e-01    1.239036e-04
  1.108768e-01    1.255749e-04
  1.111757e-01    1.297630e-04
  1.114746e-01    1.268122e-04
  1.117736e-01    1.248261e-04
  1.120725e-01    1.281031e-04
  1.123714e-01    1.201072e-04
  1.126704e-01    1.220488e-04
  1.129693e-01    1.272534e-04
  1.132682e-01    1.193691e-04
  1.135671e-01    1.190369e-04
  1.138661e-01    1.257915e-04
  1.141650e-01    1.206676e-04
  1.144639e-01    1.237332e-04
  1.147629e-01    1.202343e-04
  1.150618e-01    1.175635e-04
  1.153607e-01    1.184742e-04
  1.156597e-01    1.210964e-04
  1.159586e-01    1.248937e-04
  1.162575e-01    1.245462e-04
  1.165564e-01    1.320472e-04
  1.168554e-01    1.262474e-04
  1.171543e-01    1.241897e-04
  1.174532e-01    1.276734e-04
  1.177522e-01    1.245526e-04
  1.180511e-01    1.110766e-04
  1.183500e-01    1.226633e-04
  1.186490e-01    1.351814e-04
  1.189479e-01    1.407505e-04
  1.192468e-01    1.261618e-04
  1.195458e-01    1.284210e-04
  1.198447e-01    1.329713e-04
  1.201436e-01    1.383559e-04
  1.204425e-01    1.214828e-04
  1.207415e-01    1.195765e-04
  1.210404e-01    2.056101e-04
  1.213393e-01    0.000000e+00
  1.216383e-01    0.000000e+00
  1.219372e-01    0.000000e+00
  1.222361e-01    0.000000e+00
  1.225351e-01    0.000000e+00
  1.228340e-01    0.000000e+00
  1.231329e-01    0.000000e+00
  1.234318e-01    0.000000e+00
  1.237308e-01    0.000000e+00
  1.240297e-01    0.000000e+00
  1.243286e-01    0.000000e+00
  1.246276e-01    0.000000e+00
  1.249265e-01    0.000000e+00
  1.252254e-01    0.000000e+00
  1.255244e-01    0.000000e+00
  1.258233e-01    0.000000e+00
  1.261222e-01    0.000000e+00
  1.264212e-01    0.000000e+00
  1.267201e-01    0.000000e+00
  1.270190e-01    0.000000e+00
  1.273179e-01    0.000000e+00
  1.276169e-01    0.000000e+00
  1.279158e-01    0.000000e+00
  1.282147e-01    0.000000e+00
  1.285137e-01    0.000000e+00
  1.288126e-01    0.000000e+00
  1.291115e-01    0.000000e+00
  1.294105e-01    0.000000e+00
  1.297094e-01    0.000000e+00
  1.300083e-01    0.000000e+00
  1.303072e-01    0.000000e+00
  1.306062e-01    0.000000e+00
  1.309051e-01    0.000000e+00
  1.312040e-01    0.000000e+00
  1.315030e-01    0.000000e+00
  1.318019e-01    0.000000e+00
  1.321008e-01    0.000000e+00
  1.323998e-01    0.000000e+00
  1.326987e-01    0.000000e+00
  1.329976e-01    0.000000e+00
  1.332965e-01    0.000000e+00
  1.335955e-01    0.000000e+00
  1.338944e-01    0.000000e+00
  1.341933e-01    0.000000e+00
  1.344923e-01    0.000000e+00
  1.347912e-01    0.000000e+00
  1.350901e-01    0.000000e+00
  1.353891e-01    0.000000e+00
  1.356880e-01    0.000000e+00
  1.359869e-01    0.000000e+00
  1.362859e-01    0.000000e+00
  1.365848e-01    0.000000e+00
  1.368837e-01    0.000000e+00
  1.371826e-01    0.000000e+00
  1.374816e-01    0.000000e+00
  1.377805e-01    0.000000e+00
  1.380794e-01    0.000000e+00
  1.383784e-01    0.000000e+00
  1.386773e-01    0.000000e+00
  1.389762e-01    0.000000e+00
  1.392752e-01    0.000000e+00
  1.395741e-01    0.000000e+00
  1.398730e-01    0.000000e+00
  1.401719e-01    0.000000e+00
  1.404709e-01    0.000000e+00
  1.407698e-01    0.000000e+00
  1.410687e-01    0.000000e+00
  1.413677e-01    0.000000e+00
  1.416666e-01    0.000000e+00
  1.419655e-01    0.000000e+00
  1.422645e-01    0.000000e+00
  1.425634e-01    0.000000e+00
  1.428623e-01    0.000000e+00
  1.431613e-01    0.000000e+00
  1.434602e-01    0.000000e+00
  1.437591e-01    0.000000e+00
  1.440580e-01    0.000000e+00
  1.443570e-01    0.000000e+00
  1.446559e-01    0.000000e+00
  1.449548e-01    0.000000e+00
  1.452538e-01    0.000000e+00
  1.455527e-01    0.000000e+00
  1.458516e-01    0.000000e+00
  1.461506e-01    0.000000e+00
  1.464495e-01    0.000000e+00
  1.467484e-01    0.000000e+00
  1.470473e-01    0.000000e+00
  1.473463e-01    0.000000e+00
  1.476452e-01    0.000000e+00
  1.479441e-01    0.000000e+00
  1.482431e-01    0.000000e+00
  1.485420e-01    0.000000e+00
  1.488409e-01    0.000000e+00
  1.491399e-01    0.000000e+00
  1.494388e-01    0.000000e+00
  1.497377e-01    0.000000e+00
  1.500367e-01    0.000000e+00
  1.503356e-01    0.000000e+00
  1.506345e-01    0.000000e+00
  1.509334e-01    0.000000e+00
  1.512324e-01    0.000000e+00
  1.515313e-01    0.000000e+00
  1.518302e-01    0.000000e+00
  1.521292e-01    0.000000e+00
  1.524281e-01    0.000000e+00
  1.527270e-01    0.000000e+00
  1.530260e-01    0.000000e+00
  1.533249e-01    0.000000e+00
  1.536238e-01    0.000000e+00
