# == pyFAI calibration ==
# Distance Sample to Detector: 2.266 m
# PONI: 5.659e-02, 4.293e-02 m
# Rotations: 0.000000 0.000000 0.000000 rad
# 
# == Fit2d calibration ==
# Distance Sample-beamCenter: 2266.000 mm
# Center: x=249.594, y=329.012 pix
# Tilt: 0.000 deg  TiltPlanRot: 0.000 deg
# 
# Detector Pilatus 300k	 PixelSize= 1.720e-04, 1.720e-04 m
#    Detector has a mask: True 
#    Detector has a dark current: False 
#    detector has a flat field: False 
# 
# Wavelength: 1.27818e-10 m
# Mask applied: user provided
# Dark current applied: False
# Flat field applied: False
# Polarization factor: None
# Normalization factor: 17969.339999999997
# --> AL_DowExpt1_220227_797693af-0bb0-4d68-b2c8-2a5ef8ea2ed0_2_r1d.csv
#        q_A^-1             I 
  4.457554e-03    1.713603e+01
  4.756484e-03    1.532213e+01
  5.055415e-03    1.312523e+01
  5.354345e-03    1.102686e+01
  5.653276e-03    9.513400e+00
  5.952206e-03    1.625012e+01
  6.251136e-03    1.541898e+01
  6.550067e-03    1.381959e+01
  6.848997e-03    1.189618e+01
  7.147927e-03    1.004914e+01
  7.446858e-03    8.511126e+00
  7.745788e-03    7.200182e+00
  8.044719e-03    6.108467e+00
  8.343649e-03    5.238632e+00
  8.642579e-03    4.495763e+00
  8.941510e-03    3.879393e+00
  9.240440e-03    3.365797e+00
  9.539371e-03    2.923520e+00
  9.838301e-03    2.548186e+00
  1.013723e-02    2.237106e+00
  1.043616e-02    1.969198e+00
  1.073509e-02    1.725238e+00
  1.103402e-02    1.526072e+00
  1.133295e-02    1.352996e+00
  1.163188e-02    1.207426e+00
  1.193081e-02    1.082337e+00
  1.222974e-02    9.702302e-01
  1.252867e-02    8.714824e-01
  1.282760e-02    7.857154e-01
  1.312654e-02    7.110559e-01
  1.342547e-02    6.453154e-01
  1.372440e-02    5.846492e-01
  1.402333e-02    5.315514e-01
  1.432226e-02    4.843485e-01
  1.462119e-02    4.420402e-01
  1.492012e-02    4.044648e-01
  1.521905e-02    3.703555e-01
  1.551798e-02    3.404725e-01
  1.581691e-02    3.127434e-01
  1.611584e-02    2.873623e-01
  1.641477e-02    2.647890e-01
  1.671370e-02    2.445534e-01
  1.701263e-02    2.260527e-01
  1.731156e-02    2.092538e-01
  1.761049e-02    1.940175e-01
  1.790942e-02    1.797998e-01
  1.820835e-02    1.666777e-01
  1.850728e-02    1.549739e-01
  1.880621e-02    1.442838e-01
  1.910514e-02    1.344508e-01
  1.940407e-02    1.254340e-01
  1.970300e-02    1.172626e-01
  2.000193e-02    1.097479e-01
  2.030086e-02    1.024884e-01
  2.059979e-02    9.605034e-02
  2.089873e-02    9.012952e-02
  2.119766e-02    8.448327e-02
  2.149659e-02    7.938123e-02
  2.179552e-02    7.473897e-02
  2.209445e-02    7.017903e-02
  2.239338e-02    6.588994e-02
  2.269231e-02    6.221317e-02
  2.299124e-02    5.878132e-02
  2.329017e-02    5.544328e-02
  2.358910e-02    5.229514e-02
  2.388803e-02    4.931738e-02
  2.418696e-02    4.665954e-02
  2.448589e-02    4.415910e-02
  2.478482e-02    4.175922e-02
  2.508375e-02    3.965155e-02
  2.538268e-02    3.763390e-02
  2.568161e-02    3.570441e-02
  2.598054e-02    3.396927e-02
  2.627947e-02    3.229027e-02
  2.657840e-02    3.066412e-02
  2.687733e-02    2.915849e-02
  2.717626e-02    2.770685e-02
  2.747519e-02    2.643018e-02
  2.777412e-02    2.521103e-02
  2.807305e-02    2.398453e-02
  2.837198e-02    2.288951e-02
  2.867092e-02    2.188108e-02
  2.896985e-02    2.085843e-02
  2.926878e-02    1.997232e-02
  2.956771e-02    1.912620e-02
  2.986664e-02    1.824223e-02
  3.016557e-02    1.747091e-02
  3.046450e-02    1.678601e-02
  3.076343e-02    1.610805e-02
  3.106236e-02    1.548417e-02
  3.136129e-02    1.483171e-02
  3.166022e-02    1.419066e-02
  3.195915e-02    1.360520e-02
  3.225808e-02    1.311862e-02
  3.255701e-02    1.260825e-02
  3.285594e-02    1.207484e-02
  3.315487e-02    1.163565e-02
  3.345380e-02    1.118642e-02
  3.375273e-02    1.075096e-02
  3.405166e-02    1.036861e-02
  3.435059e-02    9.991007e-03
  3.464952e-02    9.620347e-03
  3.494845e-02    9.266852e-03
  3.524738e-02    8.905265e-03
  3.554631e-02    8.583375e-03
  3.584524e-02    8.269444e-03
  3.614417e-02    8.005193e-03
  3.644310e-02    7.707687e-03
  3.674204e-02    7.460860e-03
  3.704097e-02    7.198754e-03
  3.733990e-02    6.952967e-03
  3.763883e-02    6.714134e-03
  3.793776e-02    6.471172e-03
  3.823669e-02    6.270440e-03
  3.853562e-02    6.059161e-03
  3.883455e-02    5.895412e-03
  3.913348e-02    5.707975e-03
  3.943241e-02    5.507215e-03
  3.973134e-02    5.315264e-03
  4.003027e-02    5.156283e-03
  4.032920e-02    4.983240e-03
  4.062813e-02    4.854502e-03
  4.092706e-02    4.705496e-03
  4.122599e-02    4.567625e-03
  4.152492e-02    4.443646e-03
  4.182385e-02    4.307562e-03
  4.212278e-02    4.182765e-03
  4.242171e-02    4.055891e-03
  4.272064e-02    3.940085e-03
  4.301957e-02    3.829389e-03
  4.331850e-02    3.713004e-03
  4.361743e-02    3.579811e-03
  4.391636e-02    3.481484e-03
  4.421529e-02    3.406782e-03
  4.451423e-02    3.334604e-03
  4.481316e-02    3.231931e-03
  4.511209e-02    3.132595e-03
  4.541102e-02    3.064472e-03
  4.570995e-02    2.994336e-03
  4.600888e-02    2.910114e-03
  4.630781e-02    2.841390e-03
  4.660674e-02    2.767399e-03
  4.690567e-02    2.701669e-03
  4.720460e-02    2.624424e-03
  4.750353e-02    2.569164e-03
  4.780246e-02    2.509518e-03
  4.810139e-02    2.440613e-03
  4.840032e-02    2.387473e-03
  4.869925e-02    2.327366e-03
  4.899818e-02    2.285365e-03
  4.929711e-02    2.221934e-03
  4.959604e-02    2.157939e-03
  4.989497e-02    2.112241e-03
  5.019390e-02    2.078867e-03
  5.049283e-02    2.037226e-03
  5.079176e-02    1.983381e-03
  5.109069e-02    1.945371e-03
  5.138962e-02    1.910967e-03
  5.168855e-02    1.883488e-03
  5.198748e-02    1.864774e-03
  5.228642e-02    1.842866e-03
  5.258535e-02    1.795266e-03
  5.288428e-02    1.720112e-03
  5.318321e-02    1.672629e-03
  5.348214e-02    1.644447e-03
  5.378107e-02    1.608538e-03
  5.408000e-02    1.584988e-03
  5.437893e-02    1.543100e-03
  5.467786e-02    1.504476e-03
  5.497679e-02    1.491833e-03
  5.527572e-02    1.466085e-03
  5.557465e-02    1.436807e-03
  5.587358e-02    1.404024e-03
  5.617251e-02    1.365681e-03
  5.647144e-02    1.339148e-03
  5.677037e-02    1.320633e-03
  5.706930e-02    1.289892e-03
  5.736823e-02    1.265644e-03
  5.766716e-02    1.254437e-03
  5.796609e-02    1.237520e-03
  5.826502e-02    1.210845e-03
  5.856395e-02    1.190547e-03
  5.886288e-02    1.170540e-03
  5.916181e-02    1.145535e-03
  5.946074e-02    1.139012e-03
  5.975967e-02    1.113278e-03
  6.005861e-02    1.100196e-03
  6.035754e-02    1.074353e-03
  6.065647e-02    1.055620e-03
  6.095540e-02    1.060483e-03
  6.125433e-02    1.054022e-03
  6.155326e-02    1.040081e-03
  6.185219e-02    1.024248e-03
  6.215112e-02    1.000856e-03
  6.245005e-02    9.773729e-04
  6.274898e-02    9.636101e-04
  6.304791e-02    9.460499e-04
  6.334684e-02    9.293743e-04
  6.364577e-02    9.163744e-04
  6.394470e-02    9.073352e-04
  6.424363e-02    8.898709e-04
  6.454256e-02    8.753074e-04
  6.484149e-02    8.612080e-04
  6.514042e-02    8.547824e-04
  6.543935e-02    8.492204e-04
  6.573828e-02    8.343429e-04
  6.603721e-02    8.170914e-04
  6.633614e-02    8.162659e-04
  6.663507e-02    8.067139e-04
  6.693400e-02    7.979044e-04
  6.723293e-02    7.894657e-04
  6.753186e-02    7.802122e-04
  6.783080e-02    7.613289e-04
  6.812973e-02    7.534550e-04
  6.842866e-02    7.471997e-04
  6.872759e-02    7.386859e-04
  6.902652e-02    7.310171e-04
  6.932545e-02    7.241024e-04
  6.962438e-02    7.198543e-04
  6.992331e-02    7.079644e-04
  7.022224e-02    7.066304e-04
  7.052117e-02    7.020659e-04
  7.082010e-02    6.881843e-04
  7.111903e-02    6.777896e-04
  7.141796e-02    6.762490e-04
  7.171689e-02    6.736314e-04
  7.201582e-02    6.663824e-04
  7.231475e-02    6.536481e-04
  7.261368e-02    6.471666e-04
  7.291261e-02    6.411798e-04
  7.321154e-02    6.288404e-04
  7.351047e-02    6.240052e-04
  7.380940e-02    6.236093e-04
  7.410833e-02    6.181687e-04
  7.440726e-02    6.013497e-04
  7.470619e-02    5.942529e-04
  7.500512e-02    5.897026e-04
  7.530405e-02    5.887677e-04
  7.560299e-02    5.836534e-04
  7.590192e-02    5.787369e-04
  7.620085e-02    5.756872e-04
  7.649978e-02    5.694883e-04
  7.679871e-02    5.595795e-04
  7.709764e-02    5.616951e-04
  7.739657e-02    5.555143e-04
  7.769550e-02    5.526860e-04
  7.799443e-02    5.467451e-04
  7.829336e-02    5.391500e-04
  7.859229e-02    5.317563e-04
  7.889122e-02    5.278267e-04
  7.919015e-02    5.280117e-04
  7.948908e-02    5.207235e-04
  7.978801e-02    5.096880e-04
  8.008694e-02    5.029754e-04
  8.038587e-02    5.007373e-04
  8.068480e-02    4.969742e-04
  8.098373e-02    5.024198e-04
  8.128266e-02    5.008265e-04
  8.158159e-02    4.913423e-04
  8.188052e-02    4.820090e-04
  8.217945e-02    4.791326e-04
  8.247838e-02    4.663502e-04
  8.277731e-02    4.620409e-04
  8.307624e-02    4.627326e-04
  8.337518e-02    4.631845e-04
  8.367411e-02    4.582296e-04
  8.397304e-02    4.560799e-04
  8.427197e-02    4.440349e-04
  8.457090e-02    4.385501e-04
  8.486983e-02    4.414007e-04
  8.516876e-02    4.310086e-04
  8.546769e-02    4.188400e-04
  8.576662e-02    4.262269e-04
  8.606555e-02    4.306372e-04
  8.636448e-02    4.191476e-04
  8.666341e-02    4.137253e-04
  8.696234e-02    4.104450e-04
  8.726127e-02    4.055673e-04
  8.756020e-02    4.060379e-04
  8.785913e-02    4.022182e-04
  8.815806e-02    4.006875e-04
  8.845699e-02    3.926605e-04
  8.875592e-02    3.855972e-04
  8.905485e-02    3.804942e-04
  8.935378e-02    3.781771e-04
  8.965271e-02    3.736058e-04
  8.995164e-02    3.685044e-04
  9.025057e-02    3.662747e-04
  9.054950e-02    3.642583e-04
  9.084843e-02    3.605160e-04
  9.114737e-02    3.611973e-04
  9.144630e-02    3.552607e-04
  9.174523e-02    3.573912e-04
  9.204416e-02    3.488037e-04
  9.234309e-02    3.406830e-04
  9.264202e-02    3.387271e-04
  9.294095e-02    3.384436e-04
  9.323988e-02    3.417810e-04
  9.353881e-02    3.436336e-04
  9.383774e-02    3.351915e-04
  9.413667e-02    3.308588e-04
  9.443560e-02    3.308086e-04
  9.473453e-02    3.373818e-04
  9.503346e-02    3.376120e-04
  9.533239e-02    3.271158e-04
  9.563132e-02    3.292467e-04
  9.593025e-02    3.282971e-04
  9.622918e-02    3.299281e-04
  9.652811e-02    3.230953e-04
  9.682704e-02    3.239061e-04
  9.712597e-02    3.246937e-04
  9.742490e-02    3.205359e-04
  9.772383e-02    3.177456e-04
  9.802276e-02    3.187637e-04
  9.832169e-02    3.159187e-04
  9.862062e-02    3.133928e-04
  9.891956e-02    3.034783e-04
  9.921849e-02    2.981847e-04
  9.951742e-02    3.015759e-04
  9.981635e-02    2.970092e-04
  1.001153e-01    2.912366e-04
  1.004142e-01    2.851562e-04
  1.007131e-01    2.830408e-04
  1.010121e-01    2.825836e-04
  1.013110e-01    2.826822e-04
  1.016099e-01    2.813811e-04
  1.019089e-01    2.789396e-04
  1.022078e-01    2.750635e-04
  1.025067e-01    2.694980e-04
  1.028057e-01    2.683855e-04
  1.031046e-01    2.721870e-04
  1.034035e-01    2.695947e-04
  1.037024e-01    2.643805e-04
  1.040014e-01    2.619103e-04
  1.043003e-01    2.624661e-04
  1.045992e-01    2.613114e-04
  1.048982e-01    2.611249e-04
  1.051971e-01    2.562330e-04
  1.054960e-01    2.519450e-04
  1.057950e-01    2.538989e-04
  1.060939e-01    2.509904e-04
  1.063928e-01    2.507718e-04
  1.066917e-01    2.456702e-04
  1.069907e-01    2.428523e-04
  1.072896e-01    2.450336e-04
  1.075885e-01    2.485329e-04
  1.078875e-01    2.486102e-04
  1.081864e-01    2.477523e-04
  1.084853e-01    2.465792e-04
  1.087843e-01    2.486227e-04
  1.090832e-01    2.468135e-04
  1.093821e-01    2.442844e-04
  1.096810e-01    2.438365e-04
  1.099800e-01    2.437317e-04
  1.102789e-01    2.465051e-04
  1.105778e-01    2.400462e-04
  1.108768e-01    2.350203e-04
  1.111757e-01    2.350723e-04
  1.114746e-01    2.364378e-04
  1.117736e-01    2.384761e-04
  1.120725e-01    2.375175e-04
  1.123714e-01    2.306623e-04
  1.126704e-01    2.228933e-04
  1.129693e-01    2.234355e-04
  1.132682e-01    2.213019e-04
  1.135671e-01    2.237173e-04
  1.138661e-01    2.143038e-04
  1.141650e-01    2.066022e-04
  1.144639e-01    2.050864e-04
  1.147629e-01    2.078889e-04
  1.150618e-01    2.023701e-04
  1.153607e-01    1.956499e-04
  1.156597e-01    1.952025e-04
  1.159586e-01    1.949049e-04
  1.162575e-01    1.949865e-04
  1.165564e-01    1.985852e-04
  1.168554e-01    1.915489e-04
  1.171543e-01    2.004357e-04
  1.174532e-01    2.072812e-04
  1.177522e-01    2.047929e-04
  1.180511e-01    1.945672e-04
  1.183500e-01    1.883060e-04
  1.186490e-01    1.980838e-04
  1.189479e-01    2.037459e-04
  1.192468e-01    1.932218e-04
  1.195458e-01    1.830853e-04
  1.198447e-01    1.936779e-04
  1.201436e-01    2.095194e-04
  1.204425e-01    2.102725e-04
  1.207415e-01    2.082481e-04
  1.210404e-01    1.671023e-04
  1.213393e-01    0.000000e+00
  1.216383e-01    0.000000e+00
  1.219372e-01    0.000000e+00
  1.222361e-01    0.000000e+00
  1.225351e-01    0.000000e+00
  1.228340e-01    0.000000e+00
  1.231329e-01    0.000000e+00
  1.234318e-01    0.000000e+00
  1.237308e-01    0.000000e+00
  1.240297e-01    0.000000e+00
  1.243286e-01    0.000000e+00
  1.246276e-01    0.000000e+00
  1.249265e-01    0.000000e+00
  1.252254e-01    0.000000e+00
  1.255244e-01    0.000000e+00
  1.258233e-01    0.000000e+00
  1.261222e-01    0.000000e+00
  1.264212e-01    0.000000e+00
  1.267201e-01    0.000000e+00
  1.270190e-01    0.000000e+00
  1.273179e-01    0.000000e+00
  1.276169e-01    0.000000e+00
  1.279158e-01    0.000000e+00
  1.282147e-01    0.000000e+00
  1.285137e-01    0.000000e+00
  1.288126e-01    0.000000e+00
  1.291115e-01    0.000000e+00
  1.294105e-01    0.000000e+00
  1.297094e-01    0.000000e+00
  1.300083e-01    0.000000e+00
  1.303072e-01    0.000000e+00
  1.306062e-01    0.000000e+00
  1.309051e-01    0.000000e+00
  1.312040e-01    0.000000e+00
  1.315030e-01    0.000000e+00
  1.318019e-01    0.000000e+00
  1.321008e-01    0.000000e+00
  1.323998e-01    0.000000e+00
  1.326987e-01    0.000000e+00
  1.329976e-01    0.000000e+00
  1.332965e-01    0.000000e+00
  1.335955e-01    0.000000e+00
  1.338944e-01    0.000000e+00
  1.341933e-01    0.000000e+00
  1.344923e-01    0.000000e+00
  1.347912e-01    0.000000e+00
  1.350901e-01    0.000000e+00
  1.353891e-01    0.000000e+00
  1.356880e-01    0.000000e+00
  1.359869e-01    0.000000e+00
  1.362859e-01    0.000000e+00
  1.365848e-01    0.000000e+00
  1.368837e-01    0.000000e+00
  1.371826e-01    0.000000e+00
  1.374816e-01    0.000000e+00
  1.377805e-01    0.000000e+00
  1.380794e-01    0.000000e+00
  1.383784e-01    0.000000e+00
  1.386773e-01    0.000000e+00
  1.389762e-01    0.000000e+00
  1.392752e-01    0.000000e+00
  1.395741e-01    0.000000e+00
  1.398730e-01    0.000000e+00
  1.401719e-01    0.000000e+00
  1.404709e-01    0.000000e+00
  1.407698e-01    0.000000e+00
  1.410687e-01    0.000000e+00
  1.413677e-01    0.000000e+00
  1.416666e-01    0.000000e+00
  1.419655e-01    0.000000e+00
  1.422645e-01    0.000000e+00
  1.425634e-01    0.000000e+00
  1.428623e-01    0.000000e+00
  1.431613e-01    0.000000e+00
  1.434602e-01    0.000000e+00
  1.437591e-01    0.000000e+00
  1.440580e-01    0.000000e+00
  1.443570e-01    0.000000e+00
  1.446559e-01    0.000000e+00
  1.449548e-01    0.000000e+00
  1.452538e-01    0.000000e+00
  1.455527e-01    0.000000e+00
  1.458516e-01    0.000000e+00
  1.461506e-01    0.000000e+00
  1.464495e-01    0.000000e+00
  1.467484e-01    0.000000e+00
  1.470473e-01    0.000000e+00
  1.473463e-01    0.000000e+00
  1.476452e-01    0.000000e+00
  1.479441e-01    0.000000e+00
  1.482431e-01    0.000000e+00
  1.485420e-01    0.000000e+00
  1.488409e-01    0.000000e+00
  1.491399e-01    0.000000e+00
  1.494388e-01    0.000000e+00
  1.497377e-01    0.000000e+00
  1.500367e-01    0.000000e+00
  1.503356e-01    0.000000e+00
  1.506345e-01    0.000000e+00
  1.509334e-01    0.000000e+00
  1.512324e-01    0.000000e+00
  1.515313e-01    0.000000e+00
  1.518302e-01    0.000000e+00
  1.521292e-01    0.000000e+00
  1.524281e-01    0.000000e+00
  1.527270e-01    0.000000e+00
  1.530260e-01    0.000000e+00
  1.533249e-01    0.000000e+00
  1.536238e-01    0.000000e+00
