# == pyFAI calibration ==
# Distance Sample to Detector: 2.266 m
# PONI: 5.659e-02, 4.293e-02 m
# Rotations: 0.000000 0.000000 0.000000 rad
# 
# == Fit2d calibration ==
# Distance Sample-beamCenter: 2266.000 mm
# Center: x=249.594, y=329.012 pix
# Tilt: 0.000 deg  TiltPlanRot: 0.000 deg
# 
# Detector Pilatus 300k	 PixelSize= 1.720e-04, 1.720e-04 m
#    Detector has a mask: True 
#    Detector has a dark current: False 
#    detector has a flat field: False 
# 
# Wavelength: 1.27818e-10 m
# Mask applied: user provided
# Dark current applied: False
# Flat field applied: False
# Polarization factor: None
# Normalization factor: 6304.200000000001
# --> AL_DowExpt1_220227_fa7ee274-8db7-40ea-9ddf-653490a6abdb_1_r1d.csv
#        q_A^-1             I 
  4.457554e-03    8.520973e-01
  4.756484e-03    6.405784e-01
  5.055415e-03    4.196071e-01
  5.354345e-03    2.526518e-01
  5.653276e-03    1.753484e-01
  5.952206e-03    1.144400e+00
  6.251136e-03    1.163867e+00
  6.550067e-03    1.037080e+00
  6.848997e-03    7.961567e-01
  7.147927e-03    5.495242e-01
  7.446858e-03    3.668130e-01
  7.745788e-03    2.499076e-01
  8.044719e-03    1.803870e-01
  8.343649e-03    1.423448e-01
  8.642579e-03    1.210081e-01
  8.941510e-03    1.093298e-01
  9.240440e-03    1.031513e-01
  9.539371e-03    9.982567e-02
  9.838301e-03    9.658687e-02
  1.013723e-02    9.236470e-02
  1.043616e-02    8.671246e-02
  1.073509e-02    7.845721e-02
  1.103402e-02    7.070778e-02
  1.133295e-02    6.177183e-02
  1.163188e-02    5.303248e-02
  1.193081e-02    4.521456e-02
  1.222974e-02    3.836511e-02
  1.252867e-02    3.271512e-02
  1.282760e-02    2.835393e-02
  1.312654e-02    2.494129e-02
  1.342547e-02    2.262064e-02
  1.372440e-02    2.098218e-02
  1.402333e-02    1.970107e-02
  1.432226e-02    1.884439e-02
  1.462119e-02    1.816290e-02
  1.492012e-02    1.728363e-02
  1.521905e-02    1.630565e-02
  1.551798e-02    1.550966e-02
  1.581691e-02    1.452364e-02
  1.611584e-02    1.325485e-02
  1.641477e-02    1.204341e-02
  1.671370e-02    1.087668e-02
  1.701263e-02    9.868639e-03
  1.731156e-02    8.941960e-03
  1.761049e-02    8.186988e-03
  1.790942e-02    7.586556e-03
  1.820835e-02    7.063448e-03
  1.850728e-02    6.638745e-03
  1.880621e-02    6.360059e-03
  1.910514e-02    6.086151e-03
  1.940407e-02    5.793592e-03
  1.970300e-02    5.596253e-03
  2.000193e-02    5.425315e-03
  2.030086e-02    5.180718e-03
  2.059979e-02    4.913311e-03
  2.089873e-02    4.637675e-03
  2.119766e-02    4.322590e-03
  2.149659e-02    4.030731e-03
  2.179552e-02    3.731937e-03
  2.209445e-02    3.462735e-03
  2.239338e-02    3.212088e-03
  2.269231e-02    3.036542e-03
  2.299124e-02    2.910770e-03
  2.329017e-02    2.814084e-03
  2.358910e-02    2.689196e-03
  2.388803e-02    2.529353e-03
  2.418696e-02    2.487146e-03
  2.448589e-02    2.427788e-03
  2.478482e-02    2.381713e-03
  2.508375e-02    2.294912e-03
  2.538268e-02    2.167039e-03
  2.568161e-02    2.087696e-03
  2.598054e-02    2.015678e-03
  2.627947e-02    1.923821e-03
  2.657840e-02    1.819247e-03
  2.687733e-02    1.714388e-03
  2.717626e-02    1.621607e-03
  2.747519e-02    1.544169e-03
  2.777412e-02    1.509680e-03
  2.807305e-02    1.476636e-03
  2.837198e-02    1.409893e-03
  2.867092e-02    1.369203e-03
  2.896985e-02    1.323328e-03
  2.926878e-02    1.290779e-03
  2.956771e-02    1.276115e-03
  2.986664e-02    1.235858e-03
  3.016557e-02    1.203146e-03
  3.046450e-02    1.160768e-03
  3.076343e-02    1.107083e-03
  3.106236e-02    1.074506e-03
  3.136129e-02    1.025595e-03
  3.166022e-02    9.989087e-04
  3.195915e-02    9.681517e-04
  3.225808e-02    9.336360e-04
  3.255701e-02    9.116111e-04
  3.285594e-02    8.937469e-04
  3.315487e-02    8.587463e-04
  3.345380e-02    8.455416e-04
  3.375273e-02    8.272791e-04
  3.405166e-02    7.876600e-04
  3.435059e-02    7.789065e-04
  3.464952e-02    7.649638e-04
  3.494845e-02    7.281383e-04
  3.524738e-02    7.161802e-04
  3.554631e-02    6.985147e-04
  3.584524e-02    6.946223e-04
  3.614417e-02    6.603866e-04
  3.644310e-02    6.282675e-04
  3.674204e-02    6.226691e-04
  3.704097e-02    6.193051e-04
  3.733990e-02    5.993992e-04
  3.763883e-02    5.936117e-04
  3.793776e-02    5.943048e-04
  3.823669e-02    5.694770e-04
  3.853562e-02    5.461796e-04
  3.883455e-02    5.373160e-04
  3.913348e-02    5.156706e-04
  3.943241e-02    5.301629e-04
  3.973134e-02    5.189276e-04
  4.003027e-02    4.941016e-04
  4.032920e-02    4.871399e-04
  4.062813e-02    4.782002e-04
  4.092706e-02    4.785544e-04
  4.122599e-02    4.675415e-04
  4.152492e-02    4.571848e-04
  4.182385e-02    4.385245e-04
  4.212278e-02    4.441333e-04
  4.242171e-02    4.504577e-04
  4.272064e-02    4.301752e-04
  4.301957e-02    4.256189e-04
  4.331850e-02    4.103674e-04
  4.361743e-02    3.985026e-04
  4.391636e-02    3.924159e-04
  4.421529e-02    3.869272e-04
  4.451423e-02    3.778601e-04
  4.481316e-02    3.799330e-04
  4.511209e-02    3.751536e-04
  4.541102e-02    3.666903e-04
  4.570995e-02    3.653766e-04
  4.600888e-02    3.545579e-04
  4.630781e-02    3.528519e-04
  4.660674e-02    3.375175e-04
  4.690567e-02    3.274229e-04
  4.720460e-02    3.272220e-04
  4.750353e-02    3.325773e-04
  4.780246e-02    3.257426e-04
  4.810139e-02    3.182043e-04
  4.840032e-02    3.200875e-04
  4.869925e-02    3.282764e-04
  4.899818e-02    3.198417e-04
  4.929711e-02    3.111058e-04
  4.959604e-02    3.075802e-04
  4.989497e-02    3.078200e-04
  5.019390e-02    3.064048e-04
  5.049283e-02    3.098760e-04
  5.079176e-02    2.987254e-04
  5.109069e-02    2.869966e-04
  5.138962e-02    2.967830e-04
  5.168855e-02    2.931253e-04
  5.198748e-02    2.849822e-04
  5.228642e-02    2.787702e-04
  5.258535e-02    2.723438e-04
  5.288428e-02    2.688349e-04
  5.318321e-02    2.663218e-04
  5.348214e-02    2.654562e-04
  5.378107e-02    2.640932e-04
  5.408000e-02    2.626017e-04
  5.437893e-02    2.703493e-04
  5.467786e-02    2.637045e-04
  5.497679e-02    2.516152e-04
  5.527572e-02    2.520374e-04
  5.557465e-02    2.606706e-04
  5.587358e-02    2.608691e-04
  5.617251e-02    2.580460e-04
  5.647144e-02    2.549461e-04
  5.677037e-02    2.462452e-04
  5.706930e-02    2.443448e-04
  5.736823e-02    2.479221e-04
  5.766716e-02    2.500261e-04
  5.796609e-02    2.452124e-04
  5.826502e-02    2.407702e-04
  5.856395e-02    2.386183e-04
  5.886288e-02    2.384234e-04
  5.916181e-02    2.364551e-04
  5.946074e-02    2.282046e-04
  5.975967e-02    2.351116e-04
  6.005861e-02    2.378574e-04
  6.035754e-02    2.349096e-04
  6.065647e-02    2.322838e-04
  6.095540e-02    2.263538e-04
  6.125433e-02    2.329489e-04
  6.155326e-02    2.390498e-04
  6.185219e-02    2.267609e-04
  6.215112e-02    2.215963e-04
  6.245005e-02    2.250221e-04
  6.274898e-02    2.225082e-04
  6.304791e-02    2.220704e-04
  6.334684e-02    2.221375e-04
  6.364577e-02    2.247489e-04
  6.394470e-02    2.240930e-04
  6.424363e-02    2.192536e-04
  6.454256e-02    2.091647e-04
  6.484149e-02    2.075707e-04
  6.514042e-02    2.163843e-04
  6.543935e-02    2.148273e-04
  6.573828e-02    2.110578e-04
  6.603721e-02    2.113508e-04
  6.633614e-02    2.060781e-04
  6.663507e-02    2.028869e-04
  6.693400e-02    2.110991e-04
  6.723293e-02    2.164825e-04
  6.753186e-02    2.213408e-04
  6.783080e-02    2.154179e-04
  6.812973e-02    2.141880e-04
  6.842866e-02    2.105472e-04
  6.872759e-02    2.102490e-04
  6.902652e-02    2.092503e-04
  6.932545e-02    2.058768e-04
  6.962438e-02    2.077595e-04
  6.992331e-02    2.080987e-04
  7.022224e-02    2.039203e-04
  7.052117e-02    2.013446e-04
  7.082010e-02    2.024857e-04
  7.111903e-02    2.137763e-04
  7.141796e-02    2.122711e-04
  7.171689e-02    1.995637e-04
  7.201582e-02    2.005775e-04
  7.231475e-02    1.997832e-04
  7.261368e-02    1.988979e-04
  7.291261e-02    2.002319e-04
  7.321154e-02    2.019377e-04
  7.351047e-02    1.891991e-04
  7.380940e-02    1.840638e-04
  7.410833e-02    1.930096e-04
  7.440726e-02    1.982382e-04
  7.470619e-02    1.980027e-04
  7.500512e-02    2.038770e-04
  7.530405e-02    2.002203e-04
  7.560299e-02    1.968003e-04
  7.590192e-02    1.951278e-04
  7.620085e-02    1.974885e-04
  7.649978e-02    2.008264e-04
  7.679871e-02    1.989712e-04
  7.709764e-02    1.934641e-04
  7.739657e-02    1.922381e-04
  7.769550e-02    1.904278e-04
  7.799443e-02    1.943279e-04
  7.829336e-02    1.948581e-04
  7.859229e-02    1.902113e-04
  7.889122e-02    1.875789e-04
  7.919015e-02    1.867302e-04
  7.948908e-02    1.900876e-04
  7.978801e-02    1.888709e-04
  8.008694e-02    1.898890e-04
  8.038587e-02    1.918719e-04
  8.068480e-02    1.910461e-04
  8.098373e-02    1.893673e-04
  8.128266e-02    1.871001e-04
  8.158159e-02    1.816820e-04
  8.188052e-02    1.835766e-04
  8.217945e-02    1.838959e-04
  8.247838e-02    1.774256e-04
  8.277731e-02    1.786743e-04
  8.307624e-02    1.830115e-04
  8.337518e-02    1.798480e-04
  8.367411e-02    1.800762e-04
  8.397304e-02    1.771408e-04
  8.427197e-02    1.796671e-04
  8.457090e-02    1.781217e-04
  8.486983e-02    1.766696e-04
  8.516876e-02    1.805584e-04
  8.546769e-02    1.777843e-04
  8.576662e-02    1.776511e-04
  8.606555e-02    1.794321e-04
  8.636448e-02    1.815147e-04
  8.666341e-02    1.790745e-04
  8.696234e-02    1.725888e-04
  8.726127e-02    1.735989e-04
  8.756020e-02    1.752691e-04
  8.785913e-02    1.784857e-04
  8.815806e-02    1.802438e-04
  8.845699e-02    1.729803e-04
  8.875592e-02    1.706099e-04
  8.905485e-02    1.716151e-04
  8.935378e-02    1.738322e-04
  8.965271e-02    1.716107e-04
  8.995164e-02    1.681517e-04
  9.025057e-02    1.683135e-04
  9.054950e-02    1.749845e-04
  9.084843e-02    1.722148e-04
  9.114737e-02    1.735559e-04
  9.144630e-02    1.749419e-04
  9.174523e-02    1.736450e-04
  9.204416e-02    1.702315e-04
  9.234309e-02    1.710910e-04
  9.264202e-02    1.707161e-04
  9.294095e-02    1.691705e-04
  9.323988e-02    1.690183e-04
  9.353881e-02    1.702104e-04
  9.383774e-02    1.663102e-04
  9.413667e-02    1.690650e-04
  9.443560e-02    1.744713e-04
  9.473453e-02    1.744089e-04
  9.503346e-02    1.697283e-04
  9.533239e-02    1.701650e-04
  9.563132e-02    1.666808e-04
  9.593025e-02    1.689248e-04
  9.622918e-02    1.697967e-04
  9.652811e-02    1.674035e-04
  9.682704e-02    1.665970e-04
  9.712597e-02    1.631688e-04
  9.742490e-02    1.691975e-04
  9.772383e-02    1.725531e-04
  9.802276e-02    1.664959e-04
  9.832169e-02    1.617699e-04
  9.862062e-02    1.611716e-04
  9.891956e-02    1.632403e-04
  9.921849e-02    1.604531e-04
  9.951742e-02    1.593246e-04
  9.981635e-02    1.596830e-04
  1.001153e-01    1.554872e-04
  1.004142e-01    1.565425e-04
  1.007131e-01    1.545446e-04
  1.010121e-01    1.592716e-04
  1.013110e-01    1.584469e-04
  1.016099e-01    1.564209e-04
  1.019089e-01    1.543977e-04
  1.022078e-01    1.470434e-04
  1.025067e-01    1.473029e-04
  1.028057e-01    1.575832e-04
  1.031046e-01    1.618677e-04
  1.034035e-01    1.588636e-04
  1.037024e-01    1.485960e-04
  1.040014e-01    1.485018e-04
  1.043003e-01    1.523613e-04
  1.045992e-01    1.527227e-04
  1.048982e-01    1.490223e-04
  1.051971e-01    1.565664e-04
  1.054960e-01    1.544194e-04
  1.057950e-01    1.525746e-04
  1.060939e-01    1.524398e-04
  1.063928e-01    1.546109e-04
  1.066917e-01    1.539017e-04
  1.069907e-01    1.484277e-04
  1.072896e-01    1.536176e-04
  1.075885e-01    1.591921e-04
  1.078875e-01    1.528941e-04
  1.081864e-01    1.548152e-04
  1.084853e-01    1.596110e-04
  1.087843e-01    1.527865e-04
  1.090832e-01    1.493533e-04
  1.093821e-01    1.513468e-04
  1.096810e-01    1.499917e-04
  1.099800e-01    1.480939e-04
  1.102789e-01    1.485837e-04
  1.105778e-01    1.554017e-04
  1.108768e-01    1.601576e-04
  1.111757e-01    1.491296e-04
  1.114746e-01    1.474746e-04
  1.117736e-01    1.480184e-04
  1.120725e-01    1.491384e-04
  1.123714e-01    1.558930e-04
  1.126704e-01    1.554932e-04
  1.129693e-01    1.582208e-04
  1.132682e-01    1.565571e-04
  1.135671e-01    1.551262e-04
  1.138661e-01    1.555476e-04
  1.141650e-01    1.485537e-04
  1.144639e-01    1.413777e-04
  1.147629e-01    1.393411e-04
  1.150618e-01    1.441346e-04
  1.153607e-01    1.447938e-04
  1.156597e-01    1.396657e-04
  1.159586e-01    1.418776e-04
  1.162575e-01    1.427665e-04
  1.165564e-01    1.381605e-04
  1.168554e-01    1.394152e-04
  1.171543e-01    1.424695e-04
  1.174532e-01    1.517613e-04
  1.177522e-01    1.500401e-04
  1.180511e-01    1.651291e-04
  1.183500e-01    1.676578e-04
  1.186490e-01    1.624672e-04
  1.189479e-01    1.508737e-04
  1.192468e-01    1.491297e-04
  1.195458e-01    1.424431e-04
  1.198447e-01    1.304732e-04
  1.201436e-01    1.787348e-04
  1.204425e-01    2.254739e-04
  1.207415e-01    1.830900e-04
  1.210404e-01    0.000000e+00
  1.213393e-01    0.000000e+00
  1.216383e-01    0.000000e+00
  1.219372e-01    0.000000e+00
  1.222361e-01    0.000000e+00
  1.225351e-01    0.000000e+00
  1.228340e-01    0.000000e+00
  1.231329e-01    0.000000e+00
  1.234318e-01    0.000000e+00
  1.237308e-01    0.000000e+00
  1.240297e-01    0.000000e+00
  1.243286e-01    0.000000e+00
  1.246276e-01    0.000000e+00
  1.249265e-01    0.000000e+00
  1.252254e-01    0.000000e+00
  1.255244e-01    0.000000e+00
  1.258233e-01    0.000000e+00
  1.261222e-01    0.000000e+00
  1.264212e-01    0.000000e+00
  1.267201e-01    0.000000e+00
  1.270190e-01    0.000000e+00
  1.273179e-01    0.000000e+00
  1.276169e-01    0.000000e+00
  1.279158e-01    0.000000e+00
  1.282147e-01    0.000000e+00
  1.285137e-01    0.000000e+00
  1.288126e-01    0.000000e+00
  1.291115e-01    0.000000e+00
  1.294105e-01    0.000000e+00
  1.297094e-01    0.000000e+00
  1.300083e-01    0.000000e+00
  1.303072e-01    0.000000e+00
  1.306062e-01    0.000000e+00
  1.309051e-01    0.000000e+00
  1.312040e-01    0.000000e+00
  1.315030e-01    0.000000e+00
  1.318019e-01    0.000000e+00
  1.321008e-01    0.000000e+00
  1.323998e-01    0.000000e+00
  1.326987e-01    0.000000e+00
  1.329976e-01    0.000000e+00
  1.332965e-01    0.000000e+00
  1.335955e-01    0.000000e+00
  1.338944e-01    0.000000e+00
  1.341933e-01    0.000000e+00
  1.344923e-01    0.000000e+00
  1.347912e-01    0.000000e+00
  1.350901e-01    0.000000e+00
  1.353891e-01    0.000000e+00
  1.356880e-01    0.000000e+00
  1.359869e-01    0.000000e+00
  1.362859e-01    0.000000e+00
  1.365848e-01    0.000000e+00
  1.368837e-01    0.000000e+00
  1.371826e-01    0.000000e+00
  1.374816e-01    0.000000e+00
  1.377805e-01    0.000000e+00
  1.380794e-01    0.000000e+00
  1.383784e-01    0.000000e+00
  1.386773e-01    0.000000e+00
  1.389762e-01    0.000000e+00
  1.392752e-01    0.000000e+00
  1.395741e-01    0.000000e+00
  1.398730e-01    0.000000e+00
  1.401719e-01    0.000000e+00
  1.404709e-01    0.000000e+00
  1.407698e-01    0.000000e+00
  1.410687e-01    0.000000e+00
  1.413677e-01    0.000000e+00
  1.416666e-01    0.000000e+00
  1.419655e-01    0.000000e+00
  1.422645e-01    0.000000e+00
  1.425634e-01    0.000000e+00
  1.428623e-01    0.000000e+00
  1.431613e-01    0.000000e+00
  1.434602e-01    0.000000e+00
  1.437591e-01    0.000000e+00
  1.440580e-01    0.000000e+00
  1.443570e-01    0.000000e+00
  1.446559e-01    0.000000e+00
  1.449548e-01    0.000000e+00
  1.452538e-01    0.000000e+00
  1.455527e-01    0.000000e+00
  1.458516e-01    0.000000e+00
  1.461506e-01    0.000000e+00
  1.464495e-01    0.000000e+00
  1.467484e-01    0.000000e+00
  1.470473e-01    0.000000e+00
  1.473463e-01    0.000000e+00
  1.476452e-01    0.000000e+00
  1.479441e-01    0.000000e+00
  1.482431e-01    0.000000e+00
  1.485420e-01    0.000000e+00
  1.488409e-01    0.000000e+00
  1.491399e-01    0.000000e+00
  1.494388e-01    0.000000e+00
  1.497377e-01    0.000000e+00
  1.500367e-01    0.000000e+00
  1.503356e-01    0.000000e+00
  1.506345e-01    0.000000e+00
  1.509334e-01    0.000000e+00
  1.512324e-01    0.000000e+00
  1.515313e-01    0.000000e+00
  1.518302e-01    0.000000e+00
  1.521292e-01    0.000000e+00
  1.524281e-01    0.000000e+00
  1.527270e-01    0.000000e+00
  1.530260e-01    0.000000e+00
  1.533249e-01    0.000000e+00
  1.536238e-01    0.000000e+00
