# == pyFAI calibration ==
# Distance Sample to Detector: 2.266 m
# PONI: 5.659e-02, 4.293e-02 m
# Rotations: 0.000000 0.000000 0.000000 rad
# 
# == Fit2d calibration ==
# Distance Sample-beamCenter: 2266.000 mm
# Center: x=249.594, y=329.012 pix
# Tilt: 0.000 deg  TiltPlanRot: 0.000 deg
# 
# Detector Pilatus 300k	 PixelSize= 1.720e-04, 1.720e-04 m
#    Detector has a mask: True 
#    Detector has a dark current: False 
#    detector has a flat field: False 
# 
# Wavelength: 1.27818e-10 m
# Mask applied: user provided
# Dark current applied: False
# Flat field applied: False
# Polarization factor: None
# Normalization factor: 21373.45
# --> AL_DowExpt1_220227_555cf593-04d7-4371-83a2-fe95ca58dc59_1_r1d.csv
#        q_A^-1             I 
  4.457554e-03    1.203573e-02
  4.756484e-03    1.025654e-02
  5.055415e-03    8.662787e-03
  5.354345e-03    7.104695e-03
  5.653276e-03    5.766182e-03
  5.952206e-03    1.342383e-02
  6.251136e-03    1.233743e-02
  6.550067e-03    1.054965e-02
  6.848997e-03    8.730672e-03
  7.147927e-03    7.036667e-03
  7.446858e-03    5.721984e-03
  7.745788e-03    4.687586e-03
  8.044719e-03    3.847319e-03
  8.343649e-03    3.150455e-03
  8.642579e-03    2.623763e-03
  8.941510e-03    2.256471e-03
  9.240440e-03    1.941497e-03
  9.539371e-03    1.670671e-03
  9.838301e-03    1.429711e-03
  1.013723e-02    1.219636e-03
  1.043616e-02    1.056259e-03
  1.073509e-02    9.126019e-04
  1.103402e-02    7.987111e-04
  1.133295e-02    6.946378e-04
  1.163188e-02    6.282353e-04
  1.193081e-02    5.585935e-04
  1.222974e-02    4.831207e-04
  1.252867e-02    4.357158e-04
  1.282760e-02    3.940976e-04
  1.312654e-02    3.477923e-04
  1.342547e-02    3.171586e-04
  1.372440e-02    2.913366e-04
  1.402333e-02    2.607755e-04
  1.432226e-02    2.309228e-04
  1.462119e-02    2.102229e-04
  1.492012e-02    1.950217e-04
  1.521905e-02    1.793210e-04
  1.551798e-02    1.634071e-04
  1.581691e-02    1.482865e-04
  1.611584e-02    1.379377e-04
  1.641477e-02    1.301464e-04
  1.671370e-02    1.251537e-04
  1.701263e-02    1.100032e-04
  1.731156e-02    9.804635e-05
  1.761049e-02    9.350686e-05
  1.790942e-02    8.624657e-05
  1.820835e-02    8.363961e-05
  1.850728e-02    7.791424e-05
  1.880621e-02    7.732892e-05
  1.910514e-02    7.283007e-05
  1.940407e-02    6.551974e-05
  1.970300e-02    6.574966e-05
  2.000193e-02    6.088212e-05
  2.030086e-02    5.826315e-05
  2.059979e-02    5.493956e-05
  2.089873e-02    5.032858e-05
  2.119766e-02    4.859103e-05
  2.149659e-02    4.913249e-05
  2.179552e-02    4.809006e-05
  2.209445e-02    4.591526e-05
  2.239338e-02    4.544682e-05
  2.269231e-02    4.270034e-05
  2.299124e-02    4.099381e-05
  2.329017e-02    4.291994e-05
  2.358910e-02    3.758063e-05
  2.388803e-02    3.387294e-05
  2.418696e-02    3.553709e-05
  2.448589e-02    3.505356e-05
  2.478482e-02    3.201198e-05
  2.508375e-02    2.888285e-05
  2.538268e-02    2.935690e-05
  2.568161e-02    3.022014e-05
  2.598054e-02    2.913028e-05
  2.627947e-02    2.733852e-05
  2.657840e-02    2.676662e-05
  2.687733e-02    2.732302e-05
  2.717626e-02    2.575037e-05
  2.747519e-02    2.259417e-05
  2.777412e-02    2.259180e-05
  2.807305e-02    2.295478e-05
  2.837198e-02    2.117834e-05
  2.867092e-02    2.186312e-05
  2.896985e-02    2.211938e-05
  2.926878e-02    2.169323e-05
  2.956771e-02    2.152211e-05
  2.986664e-02    2.023630e-05
  3.016557e-02    1.760903e-05
  3.046450e-02    1.773112e-05
  3.076343e-02    1.947608e-05
  3.106236e-02    1.829540e-05
  3.136129e-02    1.757097e-05
  3.166022e-02    1.659315e-05
  3.195915e-02    1.658386e-05
  3.225808e-02    1.576474e-05
  3.255701e-02    1.370098e-05
  3.285594e-02    1.280128e-05
  3.315487e-02    1.431979e-05
  3.345380e-02    1.589730e-05
  3.375273e-02    1.520227e-05
  3.405166e-02    1.269701e-05
  3.435059e-02    1.271082e-05
  3.464952e-02    1.517504e-05
  3.494845e-02    1.429036e-05
  3.524738e-02    1.356176e-05
  3.554631e-02    1.250499e-05
  3.584524e-02    1.216493e-05
  3.614417e-02    1.216203e-05
  3.644310e-02    1.158077e-05
  3.674204e-02    1.266088e-05
  3.704097e-02    1.399203e-05
  3.733990e-02    1.374845e-05
  3.763883e-02    1.064569e-05
  3.793776e-02    1.063928e-05
  3.823669e-02    1.113189e-05
  3.853562e-02    1.097408e-05
  3.883455e-02    1.061284e-05
  3.913348e-02    1.050146e-05
  3.943241e-02    1.071431e-05
  3.973134e-02    1.120463e-05
  4.003027e-02    1.102078e-05
  4.032920e-02    1.085148e-05
  4.062813e-02    1.051983e-05
  4.092706e-02    1.060893e-05
  4.122599e-02    1.058111e-05
  4.152492e-02    1.091510e-05
  4.182385e-02    1.120960e-05
  4.212278e-02    1.086532e-05
  4.242171e-02    1.160519e-05
  4.272064e-02    1.413699e-05
  4.301957e-02    1.488219e-05
  4.331850e-02    1.235907e-05
  4.361743e-02    1.008550e-05
  4.391636e-02    9.098093e-06
  4.421529e-02    8.818553e-06
  4.451423e-02    9.848914e-06
  4.481316e-02    8.262086e-06
  4.511209e-02    8.041338e-06
  4.541102e-02    8.332487e-06
  4.570995e-02    8.101321e-06
  4.600888e-02    7.593713e-06
  4.630781e-02    7.431644e-06
  4.660674e-02    7.722526e-06
  4.690567e-02    8.393244e-06
  4.720460e-02    7.580054e-06
  4.750353e-02    6.935507e-06
  4.780246e-02    7.237342e-06
  4.810139e-02    7.132143e-06
  4.840032e-02    6.290924e-06
  4.869925e-02    6.241788e-06
  4.899818e-02    6.681718e-06
  4.929711e-02    6.659862e-06
  4.959604e-02    7.143776e-06
  4.989497e-02    6.894015e-06
  5.019390e-02    7.073666e-06
  5.049283e-02    7.199007e-06
  5.079176e-02    7.346414e-06
  5.109069e-02    7.156740e-06
  5.138962e-02    7.435081e-06
  5.168855e-02    8.156371e-06
  5.198748e-02    7.426828e-06
  5.228642e-02    6.826614e-06
  5.258535e-02    6.643251e-06
  5.288428e-02    6.622841e-06
  5.318321e-02    7.481991e-06
  5.348214e-02    7.553136e-06
  5.378107e-02    6.915784e-06
  5.408000e-02    6.546684e-06
  5.437893e-02    6.472078e-06
  5.467786e-02    6.648788e-06
  5.497679e-02    6.749679e-06
  5.527572e-02    6.308368e-06
  5.557465e-02    5.546548e-06
  5.587358e-02    5.869926e-06
  5.617251e-02    6.568781e-06
  5.647144e-02    6.760214e-06
  5.677037e-02    6.607218e-06
  5.706930e-02    5.512549e-06
  5.736823e-02    4.902483e-06
  5.766716e-02    5.208881e-06
  5.796609e-02    5.275172e-06
  5.826502e-02    5.283177e-06
  5.856395e-02    5.591587e-06
  5.886288e-02    5.036959e-06
  5.916181e-02    5.311251e-06
  5.946074e-02    5.314222e-06
  5.975967e-02    5.643261e-06
  6.005861e-02    5.132041e-06
  6.035754e-02    4.727671e-06
  6.065647e-02    5.946576e-06
  6.095540e-02    5.648099e-06
  6.125433e-02    5.630823e-06
  6.155326e-02    5.293321e-06
  6.185219e-02    4.856923e-06
  6.215112e-02    4.969573e-06
  6.245005e-02    5.721326e-06
  6.274898e-02    5.768964e-06
  6.304791e-02    5.078609e-06
  6.334684e-02    5.223616e-06
  6.364577e-02    4.648301e-06
  6.394470e-02    4.587655e-06
  6.424363e-02    5.484733e-06
  6.454256e-02    5.641202e-06
  6.484149e-02    4.878483e-06
  6.514042e-02    4.977904e-06
  6.543935e-02    4.791684e-06
  6.573828e-02    4.892656e-06
  6.603721e-02    5.190493e-06
  6.633614e-02    5.218980e-06
  6.663507e-02    4.839672e-06
  6.693400e-02    4.706035e-06
  6.723293e-02    4.892072e-06
  6.753186e-02    4.660301e-06
  6.783080e-02    4.273740e-06
  6.812973e-02    4.211910e-06
  6.842866e-02    4.487912e-06
  6.872759e-02    5.314371e-06
  6.902652e-02    4.931019e-06
  6.932545e-02    4.457699e-06
  6.962438e-02    4.137270e-06
  6.992331e-02    4.855405e-06
  7.022224e-02    4.257475e-06
  7.052117e-02    4.624427e-06
  7.082010e-02    4.637393e-06
  7.111903e-02    4.486420e-06
  7.141796e-02    4.818628e-06
  7.171689e-02    5.069951e-06
  7.201582e-02    4.739542e-06
  7.231475e-02    5.027498e-06
  7.261368e-02    4.454880e-06
  7.291261e-02    3.976761e-06
  7.321154e-02    4.362368e-06
  7.351047e-02    4.266023e-06
  7.380940e-02    4.419125e-06
  7.410833e-02    4.456570e-06
  7.440726e-02    4.028424e-06
  7.470619e-02    4.133551e-06
  7.500512e-02    4.352461e-06
  7.530405e-02    4.376194e-06
  7.560299e-02    4.324412e-06
  7.590192e-02    4.595093e-06
  7.620085e-02    4.269367e-06
  7.649978e-02    4.663274e-06
  7.679871e-02    4.761921e-06
  7.709764e-02    4.335673e-06
  7.739657e-02    4.388546e-06
  7.769550e-02    4.852076e-06
  7.799443e-02    5.136385e-06
  7.829336e-02    4.547861e-06
  7.859229e-02    4.215433e-06
  7.889122e-02    4.470775e-06
  7.919015e-02    3.956208e-06
  7.948908e-02    4.264900e-06
  7.978801e-02    4.123899e-06
  8.008694e-02    3.739742e-06
  8.038587e-02    3.949643e-06
  8.068480e-02    4.415605e-06
  8.098373e-02    4.446447e-06
  8.128266e-02    4.156483e-06
  8.158159e-02    3.768482e-06
  8.188052e-02    3.963280e-06
  8.217945e-02    4.033017e-06
  8.247838e-02    4.453999e-06
  8.277731e-02    4.244568e-06
  8.307624e-02    3.844803e-06
  8.337518e-02    3.798779e-06
  8.367411e-02    3.933896e-06
  8.397304e-02    3.762375e-06
  8.427197e-02    3.673438e-06
  8.457090e-02    3.953836e-06
  8.486983e-02    3.677242e-06
  8.516876e-02    3.515925e-06
  8.546769e-02    3.696477e-06
  8.576662e-02    3.791853e-06
  8.606555e-02    3.437082e-06
  8.636448e-02    3.370138e-06
  8.666341e-02    3.824710e-06
  8.696234e-02    3.858949e-06
  8.726127e-02    3.894557e-06
  8.756020e-02    4.102651e-06
  8.785913e-02    3.964045e-06
  8.815806e-02    3.548487e-06
  8.845699e-02    3.621422e-06
  8.875592e-02    3.887207e-06
  8.905485e-02    4.042643e-06
  8.935378e-02    3.789932e-06
  8.965271e-02    3.619296e-06
  8.995164e-02    3.868679e-06
  9.025057e-02    4.723852e-06
  9.054950e-02    4.771500e-06
  9.084843e-02    3.846608e-06
  9.114737e-02    4.063689e-06
  9.144630e-02    4.337847e-06
  9.174523e-02    4.359658e-06
  9.204416e-02    4.449153e-06
  9.234309e-02    4.710912e-06
  9.264202e-02    4.324866e-06
  9.294095e-02    4.289763e-06
  9.323988e-02    4.403641e-06
  9.353881e-02    4.554592e-06
  9.383774e-02    4.573841e-06
  9.413667e-02    4.477956e-06
  9.443560e-02    4.531284e-06
  9.473453e-02    4.743187e-06
  9.503346e-02    4.429126e-06
  9.533239e-02    3.845447e-06
  9.563132e-02    3.852001e-06
  9.593025e-02    4.162262e-06
  9.622918e-02    4.879359e-06
  9.652811e-02    4.975326e-06
  9.682704e-02    4.548628e-06
  9.712597e-02    4.613708e-06
  9.742490e-02    4.025268e-06
  9.772383e-02    4.124369e-06
  9.802276e-02    4.367857e-06
  9.832169e-02    4.490731e-06
  9.862062e-02    4.789524e-06
  9.891956e-02    4.651974e-06
  9.921849e-02    4.275927e-06
  9.951742e-02    4.198271e-06
  9.981635e-02    4.149526e-06
  1.001153e-01    4.519737e-06
  1.004142e-01    5.034293e-06
  1.007131e-01    4.524143e-06
  1.010121e-01    3.971347e-06
  1.013110e-01    4.004995e-06
  1.016099e-01    3.922756e-06
  1.019089e-01    4.470365e-06
  1.022078e-01    5.023753e-06
  1.025067e-01    4.547050e-06
  1.028057e-01    4.424473e-06
  1.031046e-01    4.758714e-06
  1.034035e-01    4.936352e-06
  1.037024e-01    4.668660e-06
  1.040014e-01    4.164510e-06
  1.043003e-01    3.805717e-06
  1.045992e-01    4.789018e-06
  1.048982e-01    5.035439e-06
  1.051971e-01    4.674311e-06
  1.054960e-01    5.000861e-06
  1.057950e-01    4.924340e-06
  1.060939e-01    4.730303e-06
  1.063928e-01    5.488883e-06
  1.066917e-01    5.649359e-06
  1.069907e-01    5.345178e-06
  1.072896e-01    4.619018e-06
  1.075885e-01    4.216171e-06
  1.078875e-01    4.754352e-06
  1.081864e-01    4.824715e-06
  1.084853e-01    5.112957e-06
  1.087843e-01    5.331636e-06
  1.090832e-01    5.297433e-06
  1.093821e-01    5.364909e-06
  1.096810e-01    5.648862e-06
  1.099800e-01    5.345193e-06
  1.102789e-01    5.309371e-06
  1.105778e-01    5.487774e-06
  1.108768e-01    5.362530e-06
  1.111757e-01    5.727994e-06
  1.114746e-01    4.951141e-06
  1.117736e-01    4.781262e-06
  1.120725e-01    4.822078e-06
  1.123714e-01    4.983512e-06
  1.126704e-01    4.850202e-06
  1.129693e-01    4.641802e-06
  1.132682e-01    3.796455e-06
  1.135671e-01    3.478880e-06
  1.138661e-01    3.846077e-06
  1.141650e-01    3.063522e-06
  1.144639e-01    3.481991e-06
  1.147629e-01    3.260405e-06
  1.150618e-01    3.227142e-06
  1.153607e-01    2.802808e-06
  1.156597e-01    2.865019e-06
  1.159586e-01    2.523001e-06
  1.162575e-01    2.968300e-06
  1.165564e-01    3.556107e-06
  1.168554e-01    3.167350e-06
  1.171543e-01    3.060587e-06
  1.174532e-01    3.209849e-06
  1.177522e-01    3.563086e-06
  1.180511e-01    4.388590e-06
  1.183500e-01    4.613023e-06
  1.186490e-01    3.614652e-06
  1.189479e-01    3.733794e-06
  1.192468e-01    4.667472e-06
  1.195458e-01    3.721799e-06
  1.198447e-01    1.292787e-06
  1.201436e-01    1.728394e-06
  1.204425e-01    5.181587e-06
  1.207415e-01    0.000000e+00
  1.210404e-01    0.000000e+00
  1.213393e-01    0.000000e+00
  1.216383e-01    0.000000e+00
  1.219372e-01    0.000000e+00
  1.222361e-01    0.000000e+00
  1.225351e-01    0.000000e+00
  1.228340e-01    0.000000e+00
  1.231329e-01    0.000000e+00
  1.234318e-01    0.000000e+00
  1.237308e-01    0.000000e+00
  1.240297e-01    0.000000e+00
  1.243286e-01    0.000000e+00
  1.246276e-01    0.000000e+00
  1.249265e-01    0.000000e+00
  1.252254e-01    0.000000e+00
  1.255244e-01    0.000000e+00
  1.258233e-01    0.000000e+00
  1.261222e-01    0.000000e+00
  1.264212e-01    0.000000e+00
  1.267201e-01    0.000000e+00
  1.270190e-01    0.000000e+00
  1.273179e-01    0.000000e+00
  1.276169e-01    0.000000e+00
  1.279158e-01    0.000000e+00
  1.282147e-01    0.000000e+00
  1.285137e-01    0.000000e+00
  1.288126e-01    0.000000e+00
  1.291115e-01    0.000000e+00
  1.294105e-01    0.000000e+00
  1.297094e-01    0.000000e+00
  1.300083e-01    0.000000e+00
  1.303072e-01    0.000000e+00
  1.306062e-01    0.000000e+00
  1.309051e-01    0.000000e+00
  1.312040e-01    0.000000e+00
  1.315030e-01    0.000000e+00
  1.318019e-01    0.000000e+00
  1.321008e-01    0.000000e+00
  1.323998e-01    0.000000e+00
  1.326987e-01    0.000000e+00
  1.329976e-01    0.000000e+00
  1.332965e-01    0.000000e+00
  1.335955e-01    0.000000e+00
  1.338944e-01    0.000000e+00
  1.341933e-01    0.000000e+00
  1.344923e-01    0.000000e+00
  1.347912e-01    0.000000e+00
  1.350901e-01    0.000000e+00
  1.353891e-01    0.000000e+00
  1.356880e-01    0.000000e+00
  1.359869e-01    0.000000e+00
  1.362859e-01    0.000000e+00
  1.365848e-01    0.000000e+00
  1.368837e-01    0.000000e+00
  1.371826e-01    0.000000e+00
  1.374816e-01    0.000000e+00
  1.377805e-01    0.000000e+00
  1.380794e-01    0.000000e+00
  1.383784e-01    0.000000e+00
  1.386773e-01    0.000000e+00
  1.389762e-01    0.000000e+00
  1.392752e-01    0.000000e+00
  1.395741e-01    0.000000e+00
  1.398730e-01    0.000000e+00
  1.401719e-01    0.000000e+00
  1.404709e-01    0.000000e+00
  1.407698e-01    0.000000e+00
  1.410687e-01    0.000000e+00
  1.413677e-01    0.000000e+00
  1.416666e-01    0.000000e+00
  1.419655e-01    0.000000e+00
  1.422645e-01    0.000000e+00
  1.425634e-01    0.000000e+00
  1.428623e-01    0.000000e+00
  1.431613e-01    0.000000e+00
  1.434602e-01    0.000000e+00
  1.437591e-01    0.000000e+00
  1.440580e-01    0.000000e+00
  1.443570e-01    0.000000e+00
  1.446559e-01    0.000000e+00
  1.449548e-01    0.000000e+00
  1.452538e-01    0.000000e+00
  1.455527e-01    0.000000e+00
  1.458516e-01    0.000000e+00
  1.461506e-01    0.000000e+00
  1.464495e-01    0.000000e+00
  1.467484e-01    0.000000e+00
  1.470473e-01    0.000000e+00
  1.473463e-01    0.000000e+00
  1.476452e-01    0.000000e+00
  1.479441e-01    0.000000e+00
  1.482431e-01    0.000000e+00
  1.485420e-01    0.000000e+00
  1.488409e-01    0.000000e+00
  1.491399e-01    0.000000e+00
  1.494388e-01    0.000000e+00
  1.497377e-01    0.000000e+00
  1.500367e-01    0.000000e+00
  1.503356e-01    0.000000e+00
  1.506345e-01    0.000000e+00
  1.509334e-01    0.000000e+00
  1.512324e-01    0.000000e+00
  1.515313e-01    0.000000e+00
  1.518302e-01    0.000000e+00
  1.521292e-01    0.000000e+00
  1.524281e-01    0.000000e+00
  1.527270e-01    0.000000e+00
  1.530260e-01    0.000000e+00
  1.533249e-01    0.000000e+00
  1.536238e-01    0.000000e+00
