# == pyFAI calibration ==
# Distance Sample to Detector: 2.266 m
# PONI: 5.659e-02, 4.293e-02 m
# Rotations: 0.000000 0.000000 0.000000 rad
# 
# == Fit2d calibration ==
# Distance Sample-beamCenter: 2266.000 mm
# Center: x=249.594, y=329.012 pix
# Tilt: 0.000 deg  TiltPlanRot: 0.000 deg
# 
# Detector Pilatus 300k	 PixelSize= 1.720e-04, 1.720e-04 m
#    Detector has a mask: True 
#    Detector has a dark current: False 
#    detector has a flat field: False 
# 
# Wavelength: 1.27818e-10 m
# Mask applied: user provided
# Dark current applied: False
# Flat field applied: False
# Polarization factor: None
# Normalization factor: 38789.0
# --> AL_DowExpt1_220227_320f43e3-819e-40b5-bfad-004d1d11ab96_2_r1d.csv
#        q_A^-1             I 
  4.457554e-03    6.864317e-01
  4.756484e-03    6.008030e-01
  5.055415e-03    5.006981e-01
  5.354345e-03    4.101043e-01
  5.653276e-03    3.493167e-01
  5.952206e-03    6.978652e-01
  6.251136e-03    6.431177e-01
  6.550067e-03    5.581664e-01
  6.848997e-03    4.669825e-01
  7.147927e-03    3.859358e-01
  7.446858e-03    3.212069e-01
  7.745788e-03    2.678952e-01
  8.044719e-03    2.248520e-01
  8.343649e-03    1.911591e-01
  8.642579e-03    1.632460e-01
  8.941510e-03    1.404220e-01
  9.240440e-03    1.213094e-01
  9.539371e-03    1.050459e-01
  9.838301e-03    9.124334e-02
  1.013723e-02    8.003596e-02
  1.043616e-02    7.044494e-02
  1.073509e-02    6.175205e-02
  1.103402e-02    5.464668e-02
  1.133295e-02    4.862547e-02
  1.163188e-02    4.345602e-02
  1.193081e-02    3.894539e-02
  1.222974e-02    3.500258e-02
  1.252867e-02    3.156824e-02
  1.282760e-02    2.850842e-02
  1.312654e-02    2.586430e-02
  1.342547e-02    2.351293e-02
  1.372440e-02    2.133771e-02
  1.402333e-02    1.950849e-02
  1.432226e-02    1.781322e-02
  1.462119e-02    1.627741e-02
  1.492012e-02    1.490736e-02
  1.521905e-02    1.372791e-02
  1.551798e-02    1.267688e-02
  1.581691e-02    1.164185e-02
  1.611584e-02    1.076523e-02
  1.641477e-02    9.955908e-03
  1.671370e-02    9.179513e-03
  1.701263e-02    8.516087e-03
  1.731156e-02    7.918103e-03
  1.761049e-02    7.393588e-03
  1.790942e-02    6.888860e-03
  1.820835e-02    6.393410e-03
  1.850728e-02    5.951985e-03
  1.880621e-02    5.550659e-03
  1.910514e-02    5.191553e-03
  1.940407e-02    4.856807e-03
  1.970300e-02    4.558099e-03
  2.000193e-02    4.277617e-03
  2.030086e-02    4.009767e-03
  2.059979e-02    3.789930e-03
  2.089873e-02    3.590604e-03
  2.119766e-02    3.394963e-03
  2.149659e-02    3.179657e-03
  2.179552e-02    2.986071e-03
  2.209445e-02    2.836775e-03
  2.239338e-02    2.676677e-03
  2.269231e-02    2.520049e-03
  2.299124e-02    2.403412e-03
  2.329017e-02    2.281247e-03
  2.358910e-02    2.168576e-03
  2.388803e-02    2.060681e-03
  2.418696e-02    1.965410e-03
  2.448589e-02    1.849552e-03
  2.478482e-02    1.758405e-03
  2.508375e-02    1.686378e-03
  2.538268e-02    1.615123e-03
  2.568161e-02    1.562205e-03
  2.598054e-02    1.482389e-03
  2.627947e-02    1.404821e-03
  2.657840e-02    1.347115e-03
  2.687733e-02    1.290637e-03
  2.717626e-02    1.227800e-03
  2.747519e-02    1.180467e-03
  2.777412e-02    1.134438e-03
  2.807305e-02    1.078579e-03
  2.837198e-02    1.037683e-03
  2.867092e-02    1.013128e-03
  2.896985e-02    9.830060e-04
  2.926878e-02    9.429879e-04
  2.956771e-02    9.088760e-04
  2.986664e-02    8.711127e-04
  3.016557e-02    8.419015e-04
  3.046450e-02    8.123979e-04
  3.076343e-02    7.791430e-04
  3.106236e-02    7.472756e-04
  3.136129e-02    7.232749e-04
  3.166022e-02    7.059841e-04
  3.195915e-02    6.854108e-04
  3.225808e-02    6.634407e-04
  3.255701e-02    6.400242e-04
  3.285594e-02    6.221304e-04
  3.315487e-02    6.008132e-04
  3.345380e-02    5.825323e-04
  3.375273e-02    5.627812e-04
  3.405166e-02    5.472276e-04
  3.435059e-02    5.311589e-04
  3.464952e-02    5.211021e-04
  3.494845e-02    5.090048e-04
  3.524738e-02    4.920249e-04
  3.554631e-02    4.777566e-04
  3.584524e-02    4.688762e-04
  3.614417e-02    4.464927e-04
  3.644310e-02    4.362848e-04
  3.674204e-02    4.308773e-04
  3.704097e-02    4.134280e-04
  3.733990e-02    4.016564e-04
  3.763883e-02    3.930865e-04
  3.793776e-02    3.824192e-04
  3.823669e-02    3.790522e-04
  3.853562e-02    3.717835e-04
  3.883455e-02    3.565109e-04
  3.913348e-02    3.515177e-04
  3.943241e-02    3.445081e-04
  3.973134e-02    3.394870e-04
  4.003027e-02    3.353229e-04
  4.032920e-02    3.283932e-04
  4.062813e-02    3.208462e-04
  4.092706e-02    3.185366e-04
  4.122599e-02    3.138320e-04
  4.152492e-02    3.040872e-04
  4.182385e-02    2.993470e-04
  4.212278e-02    2.920197e-04
  4.242171e-02    2.842787e-04
  4.272064e-02    2.796548e-04
  4.301957e-02    2.779298e-04
  4.331850e-02    2.752640e-04
  4.361743e-02    2.690820e-04
  4.391636e-02    2.637729e-04
  4.421529e-02    2.619064e-04
  4.451423e-02    2.561694e-04
  4.481316e-02    2.533697e-04
  4.511209e-02    2.501620e-04
  4.541102e-02    2.456807e-04
  4.570995e-02    2.464010e-04
  4.600888e-02    2.430768e-04
  4.630781e-02    2.358350e-04
  4.660674e-02    2.341633e-04
  4.690567e-02    2.340806e-04
  4.720460e-02    2.307931e-04
  4.750353e-02    2.256062e-04
  4.780246e-02    2.229285e-04
  4.810139e-02    2.256123e-04
  4.840032e-02    2.243606e-04
  4.869925e-02    2.219829e-04
  4.899818e-02    2.142715e-04
  4.929711e-02    2.132175e-04
  4.959604e-02    2.121642e-04
  4.989497e-02    2.119336e-04
  5.019390e-02    2.109386e-04
  5.049283e-02    2.118432e-04
  5.079176e-02    2.083788e-04
  5.109069e-02    2.066614e-04
  5.138962e-02    2.062908e-04
  5.168855e-02    2.073896e-04
  5.198748e-02    2.040266e-04
  5.228642e-02    2.007397e-04
  5.258535e-02    1.955420e-04
  5.288428e-02    1.936146e-04
  5.318321e-02    1.961469e-04
  5.348214e-02    1.971912e-04
  5.378107e-02    1.907605e-04
  5.408000e-02    1.904608e-04
  5.437893e-02    1.908358e-04
  5.467786e-02    1.892828e-04
  5.497679e-02    1.879131e-04
  5.527572e-02    1.896890e-04
  5.557465e-02    1.878810e-04
  5.587358e-02    1.862555e-04
  5.617251e-02    1.847510e-04
  5.647144e-02    1.864149e-04
  5.677037e-02    1.845951e-04
  5.706930e-02    1.815554e-04
  5.736823e-02    1.803126e-04
  5.766716e-02    1.769977e-04
  5.796609e-02    1.748747e-04
  5.826502e-02    1.802690e-04
  5.856395e-02    1.805796e-04
  5.886288e-02    1.765111e-04
  5.916181e-02    1.790121e-04
  5.946074e-02    1.776312e-04
  5.975967e-02    1.750889e-04
  6.005861e-02    1.747834e-04
  6.035754e-02    1.746499e-04
  6.065647e-02    1.759593e-04
  6.095540e-02    1.769448e-04
  6.125433e-02    1.777267e-04
  6.155326e-02    1.796492e-04
  6.185219e-02    1.776274e-04
  6.215112e-02    1.729320e-04
  6.245005e-02    1.709808e-04
  6.274898e-02    1.724329e-04
  6.304791e-02    1.702820e-04
  6.334684e-02    1.685148e-04
  6.364577e-02    1.696291e-04
  6.394470e-02    1.722667e-04
  6.424363e-02    1.718170e-04
  6.454256e-02    1.667846e-04
  6.484149e-02    1.670911e-04
  6.514042e-02    1.681270e-04
  6.543935e-02    1.684727e-04
  6.573828e-02    1.702120e-04
  6.603721e-02    1.690024e-04
  6.633614e-02    1.665067e-04
  6.663507e-02    1.662663e-04
  6.693400e-02    1.686083e-04
  6.723293e-02    1.684770e-04
  6.753186e-02    1.701650e-04
  6.783080e-02    1.710183e-04
  6.812973e-02    1.682600e-04
  6.842866e-02    1.694391e-04
  6.872759e-02    1.699145e-04
  6.902652e-02    1.690660e-04
  6.932545e-02    1.677773e-04
  6.962438e-02    1.694839e-04
  6.992331e-02    1.683129e-04
  7.022224e-02    1.673798e-04
  7.052117e-02    1.682675e-04
  7.082010e-02    1.694811e-04
  7.111903e-02    1.672641e-04
  7.141796e-02    1.683223e-04
  7.171689e-02    1.689364e-04
  7.201582e-02    1.693229e-04
  7.231475e-02    1.673665e-04
  7.261368e-02    1.642666e-04
  7.291261e-02    1.651840e-04
  7.321154e-02    1.640550e-04
  7.351047e-02    1.639118e-04
  7.380940e-02    1.642769e-04
  7.410833e-02    1.642020e-04
  7.440726e-02    1.641788e-04
  7.470619e-02    1.653091e-04
  7.500512e-02    1.663911e-04
  7.530405e-02    1.633845e-04
  7.560299e-02    1.623584e-04
  7.590192e-02    1.652059e-04
  7.620085e-02    1.648398e-04
  7.649978e-02    1.642841e-04
  7.679871e-02    1.651284e-04
  7.709764e-02    1.625168e-04
  7.739657e-02    1.630923e-04
  7.769550e-02    1.622838e-04
  7.799443e-02    1.625215e-04
  7.829336e-02    1.626669e-04
  7.859229e-02    1.608519e-04
  7.889122e-02    1.603820e-04
  7.919015e-02    1.595720e-04
  7.948908e-02    1.603786e-04
  7.978801e-02    1.608196e-04
  8.008694e-02    1.620181e-04
  8.038587e-02    1.601222e-04
  8.068480e-02    1.589817e-04
  8.098373e-02    1.600564e-04
  8.128266e-02    1.598377e-04
  8.158159e-02    1.601229e-04
  8.188052e-02    1.557272e-04
  8.217945e-02    1.571086e-04
  8.247838e-02    1.572763e-04
  8.277731e-02    1.571543e-04
  8.307624e-02    1.571956e-04
  8.337518e-02    1.560496e-04
  8.367411e-02    1.575669e-04
  8.397304e-02    1.576216e-04
  8.427197e-02    1.527980e-04
  8.457090e-02    1.513887e-04
  8.486983e-02    1.538015e-04
  8.516876e-02    1.543933e-04
  8.546769e-02    1.542016e-04
  8.576662e-02    1.521879e-04
  8.606555e-02    1.516130e-04
  8.636448e-02    1.507951e-04
  8.666341e-02    1.506168e-04
  8.696234e-02    1.509455e-04
  8.726127e-02    1.504453e-04
  8.756020e-02    1.508725e-04
  8.785913e-02    1.501747e-04
  8.815806e-02    1.511339e-04
  8.845699e-02    1.516395e-04
  8.875592e-02    1.491664e-04
  8.905485e-02    1.493325e-04
  8.935378e-02    1.494645e-04
  8.965271e-02    1.464883e-04
  8.995164e-02    1.476157e-04
  9.025057e-02    1.469673e-04
  9.054950e-02    1.481037e-04
  9.084843e-02    1.467018e-04
  9.114737e-02    1.437570e-04
  9.144630e-02    1.462476e-04
  9.174523e-02    1.484150e-04
  9.204416e-02    1.470301e-04
  9.234309e-02    1.425661e-04
  9.264202e-02    1.408090e-04
  9.294095e-02    1.430516e-04
  9.323988e-02    1.427194e-04
  9.353881e-02    1.410772e-04
  9.383774e-02    1.430207e-04
  9.413667e-02    1.423421e-04
  9.443560e-02    1.410319e-04
  9.473453e-02    1.411151e-04
  9.503346e-02    1.435234e-04
  9.533239e-02    1.421198e-04
  9.563132e-02    1.415189e-04
  9.593025e-02    1.407414e-04
  9.622918e-02    1.401320e-04
  9.652811e-02    1.407751e-04
  9.682704e-02    1.406465e-04
  9.712597e-02    1.414944e-04
  9.742490e-02    1.432984e-04
  9.772383e-02    1.416993e-04
  9.802276e-02    1.390583e-04
  9.832169e-02    1.371146e-04
  9.862062e-02    1.366346e-04
  9.891956e-02    1.367912e-04
  9.921849e-02    1.347823e-04
  9.951742e-02    1.349874e-04
  9.981635e-02    1.371449e-04
  1.001153e-01    1.380623e-04
  1.004142e-01    1.343931e-04
  1.007131e-01    1.332949e-04
  1.010121e-01    1.337077e-04
  1.013110e-01    1.338155e-04
  1.016099e-01    1.325577e-04
  1.019089e-01    1.318261e-04
  1.022078e-01    1.335023e-04
  1.025067e-01    1.337032e-04
  1.028057e-01    1.335170e-04
  1.031046e-01    1.344944e-04
  1.034035e-01    1.320457e-04
  1.037024e-01    1.281132e-04
  1.040014e-01    1.278589e-04
  1.043003e-01    1.279700e-04
  1.045992e-01    1.284678e-04
  1.048982e-01    1.307635e-04
  1.051971e-01    1.310766e-04
  1.054960e-01    1.297950e-04
  1.057950e-01    1.278889e-04
  1.060939e-01    1.282673e-04
  1.063928e-01    1.284766e-04
  1.066917e-01    1.281021e-04
  1.069907e-01    1.284871e-04
  1.072896e-01    1.269106e-04
  1.075885e-01    1.260091e-04
  1.078875e-01    1.259150e-04
  1.081864e-01    1.243151e-04
  1.084853e-01    1.268646e-04
  1.087843e-01    1.268736e-04
  1.090832e-01    1.258563e-04
  1.093821e-01    1.234946e-04
  1.096810e-01    1.244397e-04
  1.099800e-01    1.270680e-04
  1.102789e-01    1.251785e-04
  1.105778e-01    1.254124e-04
  1.108768e-01    1.256699e-04
  1.111757e-01    1.246263e-04
  1.114746e-01    1.237886e-04
  1.117736e-01    1.246613e-04
  1.120725e-01    1.265771e-04
  1.123714e-01    1.259958e-04
  1.126704e-01    1.242047e-04
  1.129693e-01    1.235843e-04
  1.132682e-01    1.240974e-04
  1.135671e-01    1.236242e-04
  1.138661e-01    1.208241e-04
  1.141650e-01    1.206682e-04
  1.144639e-01    1.183182e-04
  1.147629e-01    1.177786e-04
  1.150618e-01    1.196929e-04
  1.153607e-01    1.157940e-04
  1.156597e-01    1.159390e-04
  1.159586e-01    1.155365e-04
  1.162575e-01    1.156281e-04
  1.165564e-01    1.176825e-04
  1.168554e-01    1.198340e-04
  1.171543e-01    1.161595e-04
  1.174532e-01    1.109870e-04
  1.177522e-01    1.098505e-04
  1.180511e-01    1.136107e-04
  1.183500e-01    1.168971e-04
  1.186490e-01    1.156575e-04
  1.189479e-01    1.180979e-04
  1.192468e-01    1.190372e-04
  1.195458e-01    1.139935e-04
  1.198447e-01    1.097374e-04
  1.201436e-01    1.090911e-04
  1.204425e-01    9.311587e-05
  1.207415e-01    7.844035e-05
  1.210404e-01    1.032154e-04
  1.213393e-01    0.000000e+00
  1.216383e-01    0.000000e+00
  1.219372e-01    0.000000e+00
  1.222361e-01    0.000000e+00
  1.225351e-01    0.000000e+00
  1.228340e-01    0.000000e+00
  1.231329e-01    0.000000e+00
  1.234318e-01    0.000000e+00
  1.237308e-01    0.000000e+00
  1.240297e-01    0.000000e+00
  1.243286e-01    0.000000e+00
  1.246276e-01    0.000000e+00
  1.249265e-01    0.000000e+00
  1.252254e-01    0.000000e+00
  1.255244e-01    0.000000e+00
  1.258233e-01    0.000000e+00
  1.261222e-01    0.000000e+00
  1.264212e-01    0.000000e+00
  1.267201e-01    0.000000e+00
  1.270190e-01    0.000000e+00
  1.273179e-01    0.000000e+00
  1.276169e-01    0.000000e+00
  1.279158e-01    0.000000e+00
  1.282147e-01    0.000000e+00
  1.285137e-01    0.000000e+00
  1.288126e-01    0.000000e+00
  1.291115e-01    0.000000e+00
  1.294105e-01    0.000000e+00
  1.297094e-01    0.000000e+00
  1.300083e-01    0.000000e+00
  1.303072e-01    0.000000e+00
  1.306062e-01    0.000000e+00
  1.309051e-01    0.000000e+00
  1.312040e-01    0.000000e+00
  1.315030e-01    0.000000e+00
  1.318019e-01    0.000000e+00
  1.321008e-01    0.000000e+00
  1.323998e-01    0.000000e+00
  1.326987e-01    0.000000e+00
  1.329976e-01    0.000000e+00
  1.332965e-01    0.000000e+00
  1.335955e-01    0.000000e+00
  1.338944e-01    0.000000e+00
  1.341933e-01    0.000000e+00
  1.344923e-01    0.000000e+00
  1.347912e-01    0.000000e+00
  1.350901e-01    0.000000e+00
  1.353891e-01    0.000000e+00
  1.356880e-01    0.000000e+00
  1.359869e-01    0.000000e+00
  1.362859e-01    0.000000e+00
  1.365848e-01    0.000000e+00
  1.368837e-01    0.000000e+00
  1.371826e-01    0.000000e+00
  1.374816e-01    0.000000e+00
  1.377805e-01    0.000000e+00
  1.380794e-01    0.000000e+00
  1.383784e-01    0.000000e+00
  1.386773e-01    0.000000e+00
  1.389762e-01    0.000000e+00
  1.392752e-01    0.000000e+00
  1.395741e-01    0.000000e+00
  1.398730e-01    0.000000e+00
  1.401719e-01    0.000000e+00
  1.404709e-01    0.000000e+00
  1.407698e-01    0.000000e+00
  1.410687e-01    0.000000e+00
  1.413677e-01    0.000000e+00
  1.416666e-01    0.000000e+00
  1.419655e-01    0.000000e+00
  1.422645e-01    0.000000e+00
  1.425634e-01    0.000000e+00
  1.428623e-01    0.000000e+00
  1.431613e-01    0.000000e+00
  1.434602e-01    0.000000e+00
  1.437591e-01    0.000000e+00
  1.440580e-01    0.000000e+00
  1.443570e-01    0.000000e+00
  1.446559e-01    0.000000e+00
  1.449548e-01    0.000000e+00
  1.452538e-01    0.000000e+00
  1.455527e-01    0.000000e+00
  1.458516e-01    0.000000e+00
  1.461506e-01    0.000000e+00
  1.464495e-01    0.000000e+00
  1.467484e-01    0.000000e+00
  1.470473e-01    0.000000e+00
  1.473463e-01    0.000000e+00
  1.476452e-01    0.000000e+00
  1.479441e-01    0.000000e+00
  1.482431e-01    0.000000e+00
  1.485420e-01    0.000000e+00
  1.488409e-01    0.000000e+00
  1.491399e-01    0.000000e+00
  1.494388e-01    0.000000e+00
  1.497377e-01    0.000000e+00
  1.500367e-01    0.000000e+00
  1.503356e-01    0.000000e+00
  1.506345e-01    0.000000e+00
  1.509334e-01    0.000000e+00
  1.512324e-01    0.000000e+00
  1.515313e-01    0.000000e+00
  1.518302e-01    0.000000e+00
  1.521292e-01    0.000000e+00
  1.524281e-01    0.000000e+00
  1.527270e-01    0.000000e+00
  1.530260e-01    0.000000e+00
  1.533249e-01    0.000000e+00
  1.536238e-01    0.000000e+00
