# == pyFAI calibration ==
# Distance Sample to Detector: 2.266 m
# PONI: 5.659e-02, 4.293e-02 m
# Rotations: 0.000000 0.000000 0.000000 rad
# 
# == Fit2d calibration ==
# Distance Sample-beamCenter: 2266.000 mm
# Center: x=249.594, y=329.012 pix
# Tilt: 0.000 deg  TiltPlanRot: 0.000 deg
# 
# Detector Pilatus 300k	 PixelSize= 1.720e-04, 1.720e-04 m
#    Detector has a mask: True 
#    Detector has a dark current: False 
#    detector has a flat field: False 
# 
# Wavelength: 1.27818e-10 m
# Mask applied: user provided
# Dark current applied: False
# Flat field applied: False
# Polarization factor: None
# Normalization factor: 16239.240000000002
# --> AL_DowExpt1_220227_01146fe9-c5fe-4e08-be5d-13ccce9ea5a4_1_r1d.csv
#        q_A^-1             I 
  4.457554e-03    1.684068e+00
  4.756484e-03    1.486235e+00
  5.055415e-03    1.248548e+00
  5.354345e-03    1.032947e+00
  5.653276e-03    8.795357e-01
  5.952206e-03    1.829756e+00
  6.251136e-03    1.686024e+00
  6.550067e-03    1.464226e+00
  6.848997e-03    1.223984e+00
  7.147927e-03    1.007159e+00
  7.446858e-03    8.375607e-01
  7.745788e-03    6.988471e-01
  8.044719e-03    5.857117e-01
  8.343649e-03    4.974208e-01
  8.642579e-03    4.239146e-01
  8.941510e-03    3.641559e-01
  9.240440e-03    3.141800e-01
  9.539371e-03    2.712863e-01
  9.838301e-03    2.357686e-01
  1.013723e-02    2.068317e-01
  1.043616e-02    1.818937e-01
  1.073509e-02    1.588467e-01
  1.103402e-02    1.402473e-01
  1.133295e-02    1.244800e-01
  1.163188e-02    1.110180e-01
  1.193081e-02    9.932388e-02
  1.222974e-02    8.901881e-02
  1.252867e-02    7.993303e-02
  1.282760e-02    7.213499e-02
  1.312654e-02    6.540422e-02
  1.342547e-02    5.930506e-02
  1.372440e-02    5.391388e-02
  1.402333e-02    4.912274e-02
  1.432226e-02    4.466186e-02
  1.462119e-02    4.080759e-02
  1.492012e-02    3.761614e-02
  1.521905e-02    3.437760e-02
  1.551798e-02    3.152610e-02
  1.581691e-02    2.900830e-02
  1.611584e-02    2.670210e-02
  1.641477e-02    2.468992e-02
  1.671370e-02    2.292189e-02
  1.701263e-02    2.121382e-02
  1.731156e-02    1.954975e-02
  1.761049e-02    1.814229e-02
  1.790942e-02    1.683623e-02
  1.820835e-02    1.569978e-02
  1.850728e-02    1.467529e-02
  1.880621e-02    1.369538e-02
  1.910514e-02    1.273183e-02
  1.940407e-02    1.186912e-02
  1.970300e-02    1.109459e-02
  2.000193e-02    1.041489e-02
  2.030086e-02    9.786268e-03
  2.059979e-02    9.158577e-03
  2.089873e-02    8.615091e-03
  2.119766e-02    8.124226e-03
  2.149659e-02    7.624559e-03
  2.179552e-02    7.136835e-03
  2.209445e-02    6.742288e-03
  2.239338e-02    6.412196e-03
  2.269231e-02    6.038379e-03
  2.299124e-02    5.708524e-03
  2.329017e-02    5.404184e-03
  2.358910e-02    5.125471e-03
  2.388803e-02    4.820223e-03
  2.418696e-02    4.575179e-03
  2.448589e-02    4.348645e-03
  2.478482e-02    4.127167e-03
  2.508375e-02    3.921891e-03
  2.538268e-02    3.719089e-03
  2.568161e-02    3.555893e-03
  2.598054e-02    3.421984e-03
  2.627947e-02    3.246551e-03
  2.657840e-02    3.084901e-03
  2.687733e-02    2.934564e-03
  2.717626e-02    2.804578e-03
  2.747519e-02    2.675781e-03
  2.777412e-02    2.577083e-03
  2.807305e-02    2.479571e-03
  2.837198e-02    2.374068e-03
  2.867092e-02    2.270232e-03
  2.896985e-02    2.180958e-03
  2.926878e-02    2.075701e-03
  2.956771e-02    1.989406e-03
  2.986664e-02    1.937962e-03
  3.016557e-02    1.857457e-03
  3.046450e-02    1.782233e-03
  3.076343e-02    1.713376e-03
  3.106236e-02    1.636358e-03
  3.136129e-02    1.577455e-03
  3.166022e-02    1.513861e-03
  3.195915e-02    1.462860e-03
  3.225808e-02    1.418109e-03
  3.255701e-02    1.367017e-03
  3.285594e-02    1.333072e-03
  3.315487e-02    1.272756e-03
  3.345380e-02    1.222543e-03
  3.375273e-02    1.188528e-03
  3.405166e-02    1.151995e-03
  3.435059e-02    1.103890e-03
  3.464952e-02    1.057962e-03
  3.494845e-02    1.035427e-03
  3.524738e-02    1.005571e-03
  3.554631e-02    9.791725e-04
  3.584524e-02    9.493462e-04
  3.614417e-02    9.009339e-04
  3.644310e-02    8.648456e-04
  3.674204e-02    8.427408e-04
  3.704097e-02    8.217217e-04
  3.733990e-02    7.999250e-04
  3.763883e-02    7.731519e-04
  3.793776e-02    7.649589e-04
  3.823669e-02    7.476778e-04
  3.853562e-02    7.182728e-04
  3.883455e-02    6.831195e-04
  3.913348e-02    6.738156e-04
  3.943241e-02    6.680830e-04
  3.973134e-02    6.441894e-04
  4.003027e-02    6.315869e-04
  4.032920e-02    6.090358e-04
  4.062813e-02    5.809720e-04
  4.092706e-02    5.693547e-04
  4.122599e-02    5.570129e-04
  4.152492e-02    5.428548e-04
  4.182385e-02    5.387923e-04
  4.212278e-02    5.266955e-04
  4.242171e-02    5.208226e-04
  4.272064e-02    5.106279e-04
  4.301957e-02    4.922265e-04
  4.331850e-02    4.767597e-04
  4.361743e-02    4.715687e-04
  4.391636e-02    4.575309e-04
  4.421529e-02    4.400895e-04
  4.451423e-02    4.368146e-04
  4.481316e-02    4.366614e-04
  4.511209e-02    4.232478e-04
  4.541102e-02    4.138047e-04
  4.570995e-02    4.074178e-04
  4.600888e-02    3.948284e-04
  4.630781e-02    3.952237e-04
  4.660674e-02    3.809637e-04
  4.690567e-02    3.690288e-04
  4.720460e-02    3.684655e-04
  4.750353e-02    3.643869e-04
  4.780246e-02    3.622673e-04
  4.810139e-02    3.578501e-04
  4.840032e-02    3.521944e-04
  4.869925e-02    3.417884e-04
  4.899818e-02    3.364579e-04
  4.929711e-02    3.386327e-04
  4.959604e-02    3.414242e-04
  4.989497e-02    3.308554e-04
  5.019390e-02    3.171914e-04
  5.049283e-02    3.104617e-04
  5.079176e-02    3.092460e-04
  5.109069e-02    3.039161e-04
  5.138962e-02    3.037423e-04
  5.168855e-02    3.012342e-04
  5.198748e-02    2.970051e-04
  5.228642e-02    2.981166e-04
  5.258535e-02    2.929361e-04
  5.288428e-02    2.824512e-04
  5.318321e-02    2.797298e-04
  5.348214e-02    2.750239e-04
  5.378107e-02    2.696701e-04
  5.408000e-02    2.709154e-04
  5.437893e-02    2.689772e-04
  5.467786e-02    2.640345e-04
  5.497679e-02    2.537096e-04
  5.527572e-02    2.521148e-04
  5.557465e-02    2.527207e-04
  5.587358e-02    2.516134e-04
  5.617251e-02    2.504195e-04
  5.647144e-02    2.438853e-04
  5.677037e-02    2.466335e-04
  5.706930e-02    2.471601e-04
  5.736823e-02    2.356419e-04
  5.766716e-02    2.309906e-04
  5.796609e-02    2.376753e-04
  5.826502e-02    2.377766e-04
  5.856395e-02    2.296277e-04
  5.886288e-02    2.267675e-04
  5.916181e-02    2.250775e-04
  5.946074e-02    2.248363e-04
  5.975967e-02    2.215911e-04
  6.005861e-02    2.218247e-04
  6.035754e-02    2.166403e-04
  6.065647e-02    2.160552e-04
  6.095540e-02    2.168496e-04
  6.125433e-02    2.182591e-04
  6.155326e-02    2.190808e-04
  6.185219e-02    2.170792e-04
  6.215112e-02    2.121111e-04
  6.245005e-02    2.083798e-04
  6.274898e-02    2.063696e-04
  6.304791e-02    2.062800e-04
  6.334684e-02    2.052950e-04
  6.364577e-02    2.013254e-04
  6.394470e-02    2.036326e-04
  6.424363e-02    2.005180e-04
  6.454256e-02    1.988197e-04
  6.484149e-02    2.012060e-04
  6.514042e-02    1.984532e-04
  6.543935e-02    1.990086e-04
  6.573828e-02    1.995945e-04
  6.603721e-02    1.956054e-04
  6.633614e-02    1.963097e-04
  6.663507e-02    1.965796e-04
  6.693400e-02    1.974013e-04
  6.723293e-02    1.953897e-04
  6.753186e-02    1.969988e-04
  6.783080e-02    1.922003e-04
  6.812973e-02    1.855448e-04
  6.842866e-02    1.825672e-04
  6.872759e-02    1.853860e-04
  6.902652e-02    1.879056e-04
  6.932545e-02    1.868794e-04
  6.962438e-02    1.861770e-04
  6.992331e-02    1.845684e-04
  7.022224e-02    1.856567e-04
  7.052117e-02    1.854936e-04
  7.082010e-02    1.846874e-04
  7.111903e-02    1.808043e-04
  7.141796e-02    1.825248e-04
  7.171689e-02    1.799051e-04
  7.201582e-02    1.802189e-04
  7.231475e-02    1.826902e-04
  7.261368e-02    1.801863e-04
  7.291261e-02    1.775179e-04
  7.321154e-02    1.827218e-04
  7.351047e-02    1.816156e-04
  7.380940e-02    1.797700e-04
  7.410833e-02    1.789545e-04
  7.440726e-02    1.780879e-04
  7.470619e-02    1.721508e-04
  7.500512e-02    1.707867e-04
  7.530405e-02    1.757698e-04
  7.560299e-02    1.743917e-04
  7.590192e-02    1.705547e-04
  7.620085e-02    1.679695e-04
  7.649978e-02    1.728339e-04
  7.679871e-02    1.744372e-04
  7.709764e-02    1.710097e-04
  7.739657e-02    1.713423e-04
  7.769550e-02    1.712384e-04
  7.799443e-02    1.690903e-04
  7.829336e-02    1.659331e-04
  7.859229e-02    1.654241e-04
  7.889122e-02    1.678004e-04
  7.919015e-02    1.713752e-04
  7.948908e-02    1.651789e-04
  7.978801e-02    1.651401e-04
  8.008694e-02    1.679444e-04
  8.038587e-02    1.638601e-04
  8.068480e-02    1.599770e-04
  8.098373e-02    1.643283e-04
  8.128266e-02    1.640263e-04
  8.158159e-02    1.652469e-04
  8.188052e-02    1.683618e-04
  8.217945e-02    1.652064e-04
  8.247838e-02    1.632049e-04
  8.277731e-02    1.596247e-04
  8.307624e-02    1.576256e-04
  8.337518e-02    1.583252e-04
  8.367411e-02    1.589587e-04
  8.397304e-02    1.580157e-04
  8.427197e-02    1.559008e-04
  8.457090e-02    1.558352e-04
  8.486983e-02    1.535281e-04
  8.516876e-02    1.537894e-04
  8.546769e-02    1.539948e-04
  8.576662e-02    1.524696e-04
  8.606555e-02    1.515124e-04
  8.636448e-02    1.528761e-04
  8.666341e-02    1.545548e-04
  8.696234e-02    1.526974e-04
  8.726127e-02    1.494864e-04
  8.756020e-02    1.504305e-04
  8.785913e-02    1.516102e-04
  8.815806e-02    1.502659e-04
  8.845699e-02    1.459771e-04
  8.875592e-02    1.494490e-04
  8.905485e-02    1.504808e-04
  8.935378e-02    1.498202e-04
  8.965271e-02    1.486625e-04
  8.995164e-02    1.467994e-04
  9.025057e-02    1.452153e-04
  9.054950e-02    1.425334e-04
  9.084843e-02    1.420953e-04
  9.114737e-02    1.425642e-04
  9.144630e-02    1.397821e-04
  9.174523e-02    1.410718e-04
  9.204416e-02    1.434030e-04
  9.234309e-02    1.377190e-04
  9.264202e-02    1.379252e-04
  9.294095e-02    1.378695e-04
  9.323988e-02    1.391247e-04
  9.353881e-02    1.401807e-04
  9.383774e-02    1.406967e-04
  9.413667e-02    1.387499e-04
  9.443560e-02    1.370105e-04
  9.473453e-02    1.355167e-04
  9.503346e-02    1.362828e-04
  9.533239e-02    1.315506e-04
  9.563132e-02    1.335358e-04
  9.593025e-02    1.404081e-04
  9.622918e-02    1.379944e-04
  9.652811e-02    1.328467e-04
  9.682704e-02    1.364788e-04
  9.712597e-02    1.385576e-04
  9.742490e-02    1.388348e-04
  9.772383e-02    1.370904e-04
  9.802276e-02    1.340463e-04
  9.832169e-02    1.313135e-04
  9.862062e-02    1.317934e-04
  9.891956e-02    1.323863e-04
  9.921849e-02    1.311390e-04
  9.951742e-02    1.336863e-04
  9.981635e-02    1.319086e-04
  1.001153e-01    1.306362e-04
  1.004142e-01    1.290287e-04
  1.007131e-01    1.301028e-04
  1.010121e-01    1.282715e-04
  1.013110e-01    1.255114e-04
  1.016099e-01    1.288516e-04
  1.019089e-01    1.310148e-04
  1.022078e-01    1.318459e-04
  1.025067e-01    1.267915e-04
  1.028057e-01    1.263619e-04
  1.031046e-01    1.262231e-04
  1.034035e-01    1.267506e-04
  1.037024e-01    1.267101e-04
  1.040014e-01    1.237969e-04
  1.043003e-01    1.264350e-04
  1.045992e-01    1.242485e-04
  1.048982e-01    1.244110e-04
  1.051971e-01    1.250485e-04
  1.054960e-01    1.217254e-04
  1.057950e-01    1.217355e-04
  1.060939e-01    1.238764e-04
  1.063928e-01    1.240647e-04
  1.066917e-01    1.213459e-04
  1.069907e-01    1.213337e-04
  1.072896e-01    1.196974e-04
  1.075885e-01    1.195483e-04
  1.078875e-01    1.203182e-04
  1.081864e-01    1.212591e-04
  1.084853e-01    1.205869e-04
  1.087843e-01    1.232427e-04
  1.090832e-01    1.235057e-04
  1.093821e-01    1.177108e-04
  1.096810e-01    1.176456e-04
  1.099800e-01    1.202542e-04
  1.102789e-01    1.221795e-04
  1.105778e-01    1.201563e-04
  1.108768e-01    1.164654e-04
  1.111757e-01    1.168004e-04
  1.114746e-01    1.208306e-04
  1.117736e-01    1.227408e-04
  1.120725e-01    1.184859e-04
  1.123714e-01    1.165321e-04
  1.126704e-01    1.149164e-04
  1.129693e-01    1.099243e-04
  1.132682e-01    1.095508e-04
  1.135671e-01    1.068435e-04
  1.138661e-01    1.091161e-04
  1.141650e-01    1.113777e-04
  1.144639e-01    1.105927e-04
  1.147629e-01    1.086080e-04
  1.150618e-01    1.112476e-04
  1.153607e-01    1.125103e-04
  1.156597e-01    1.143627e-04
  1.159586e-01    1.118365e-04
  1.162575e-01    1.049592e-04
  1.165564e-01    1.001211e-04
  1.168554e-01    1.015803e-04
  1.171543e-01    1.069430e-04
  1.174532e-01    9.918966e-05
  1.177522e-01    1.065819e-04
  1.180511e-01    1.074875e-04
  1.183500e-01    1.100282e-04
  1.186490e-01    9.777716e-05
  1.189479e-01    9.650067e-05
  1.192468e-01    1.094716e-04
  1.195458e-01    1.083565e-04
  1.198447e-01    1.043152e-04
  1.201436e-01    9.382750e-05
  1.204425e-01    9.777666e-05
  1.207415e-01    9.651882e-05
  1.210404e-01    6.163502e-05
  1.213393e-01    0.000000e+00
  1.216383e-01    0.000000e+00
  1.219372e-01    0.000000e+00
  1.222361e-01    0.000000e+00
  1.225351e-01    0.000000e+00
  1.228340e-01    0.000000e+00
  1.231329e-01    0.000000e+00
  1.234318e-01    0.000000e+00
  1.237308e-01    0.000000e+00
  1.240297e-01    0.000000e+00
  1.243286e-01    0.000000e+00
  1.246276e-01    0.000000e+00
  1.249265e-01    0.000000e+00
  1.252254e-01    0.000000e+00
  1.255244e-01    0.000000e+00
  1.258233e-01    0.000000e+00
  1.261222e-01    0.000000e+00
  1.264212e-01    0.000000e+00
  1.267201e-01    0.000000e+00
  1.270190e-01    0.000000e+00
  1.273179e-01    0.000000e+00
  1.276169e-01    0.000000e+00
  1.279158e-01    0.000000e+00
  1.282147e-01    0.000000e+00
  1.285137e-01    0.000000e+00
  1.288126e-01    0.000000e+00
  1.291115e-01    0.000000e+00
  1.294105e-01    0.000000e+00
  1.297094e-01    0.000000e+00
  1.300083e-01    0.000000e+00
  1.303072e-01    0.000000e+00
  1.306062e-01    0.000000e+00
  1.309051e-01    0.000000e+00
  1.312040e-01    0.000000e+00
  1.315030e-01    0.000000e+00
  1.318019e-01    0.000000e+00
  1.321008e-01    0.000000e+00
  1.323998e-01    0.000000e+00
  1.326987e-01    0.000000e+00
  1.329976e-01    0.000000e+00
  1.332965e-01    0.000000e+00
  1.335955e-01    0.000000e+00
  1.338944e-01    0.000000e+00
  1.341933e-01    0.000000e+00
  1.344923e-01    0.000000e+00
  1.347912e-01    0.000000e+00
  1.350901e-01    0.000000e+00
  1.353891e-01    0.000000e+00
  1.356880e-01    0.000000e+00
  1.359869e-01    0.000000e+00
  1.362859e-01    0.000000e+00
  1.365848e-01    0.000000e+00
  1.368837e-01    0.000000e+00
  1.371826e-01    0.000000e+00
  1.374816e-01    0.000000e+00
  1.377805e-01    0.000000e+00
  1.380794e-01    0.000000e+00
  1.383784e-01    0.000000e+00
  1.386773e-01    0.000000e+00
  1.389762e-01    0.000000e+00
  1.392752e-01    0.000000e+00
  1.395741e-01    0.000000e+00
  1.398730e-01    0.000000e+00
  1.401719e-01    0.000000e+00
  1.404709e-01    0.000000e+00
  1.407698e-01    0.000000e+00
  1.410687e-01    0.000000e+00
  1.413677e-01    0.000000e+00
  1.416666e-01    0.000000e+00
  1.419655e-01    0.000000e+00
  1.422645e-01    0.000000e+00
  1.425634e-01    0.000000e+00
  1.428623e-01    0.000000e+00
  1.431613e-01    0.000000e+00
  1.434602e-01    0.000000e+00
  1.437591e-01    0.000000e+00
  1.440580e-01    0.000000e+00
  1.443570e-01    0.000000e+00
  1.446559e-01    0.000000e+00
  1.449548e-01    0.000000e+00
  1.452538e-01    0.000000e+00
  1.455527e-01    0.000000e+00
  1.458516e-01    0.000000e+00
  1.461506e-01    0.000000e+00
  1.464495e-01    0.000000e+00
  1.467484e-01    0.000000e+00
  1.470473e-01    0.000000e+00
  1.473463e-01    0.000000e+00
  1.476452e-01    0.000000e+00
  1.479441e-01    0.000000e+00
  1.482431e-01    0.000000e+00
  1.485420e-01    0.000000e+00
  1.488409e-01    0.000000e+00
  1.491399e-01    0.000000e+00
  1.494388e-01    0.000000e+00
  1.497377e-01    0.000000e+00
  1.500367e-01    0.000000e+00
  1.503356e-01    0.000000e+00
  1.506345e-01    0.000000e+00
  1.509334e-01    0.000000e+00
  1.512324e-01    0.000000e+00
  1.515313e-01    0.000000e+00
  1.518302e-01    0.000000e+00
  1.521292e-01    0.000000e+00
  1.524281e-01    0.000000e+00
  1.527270e-01    0.000000e+00
  1.530260e-01    0.000000e+00
  1.533249e-01    0.000000e+00
  1.536238e-01    0.000000e+00
