# == pyFAI calibration ==
# Distance Sample to Detector: 2.266 m
# PONI: 5.659e-02, 4.293e-02 m
# Rotations: 0.000000 0.000000 0.000000 rad
# 
# == Fit2d calibration ==
# Distance Sample-beamCenter: 2266.000 mm
# Center: x=249.594, y=329.012 pix
# Tilt: 0.000 deg  TiltPlanRot: 0.000 deg
# 
# Detector Pilatus 300k	 PixelSize= 1.720e-04, 1.720e-04 m
#    Detector has a mask: True 
#    Detector has a dark current: False 
#    detector has a flat field: False 
# 
# Wavelength: 1.27818e-10 m
# Mask applied: user provided
# Dark current applied: False
# Flat field applied: False
# Polarization factor: None
# Normalization factor: 60220.91
# --> AL_DowExpt1_220227_9acb3a8c-f1e6-4d74-a26c-38b5878ab071_0_r1d.csv
#        q_A^-1             I 
  4.457554e-03    1.160895e+00
  4.756484e-03    1.023410e+00
  5.055415e-03    8.602001e-01
  5.354345e-03    7.118826e-01
  5.653276e-03    6.110237e-01
  5.952206e-03    1.294203e+00
  6.251136e-03    1.213802e+00
  6.550067e-03    1.070219e+00
  6.848997e-03    9.039919e-01
  7.147927e-03    7.481403e-01
  7.446858e-03    6.213916e-01
  7.745788e-03    5.165446e-01
  8.044719e-03    4.321064e-01
  8.343649e-03    3.666921e-01
  8.642579e-03    3.123574e-01
  8.941510e-03    2.682604e-01
  9.240440e-03    2.319339e-01
  9.539371e-03    2.008062e-01
  9.838301e-03    1.745611e-01
  1.013723e-02    1.532513e-01
  1.043616e-02    1.347615e-01
  1.073509e-02    1.178232e-01
  1.103402e-02    1.040297e-01
  1.133295e-02    9.219976e-02
  1.163188e-02    8.227313e-02
  1.193081e-02    7.362530e-02
  1.222974e-02    6.592779e-02
  1.252867e-02    5.926386e-02
  1.282760e-02    5.329472e-02
  1.312654e-02    4.815256e-02
  1.342547e-02    4.362743e-02
  1.372440e-02    3.961129e-02
  1.402333e-02    3.608190e-02
  1.432226e-02    3.287337e-02
  1.462119e-02    3.001345e-02
  1.492012e-02    2.756489e-02
  1.521905e-02    2.524982e-02
  1.551798e-02    2.315366e-02
  1.581691e-02    2.130235e-02
  1.611584e-02    1.960490e-02
  1.641477e-02    1.807454e-02
  1.671370e-02    1.668622e-02
  1.701263e-02    1.542411e-02
  1.731156e-02    1.424838e-02
  1.761049e-02    1.322315e-02
  1.790942e-02    1.227637e-02
  1.820835e-02    1.137460e-02
  1.850728e-02    1.062375e-02
  1.880621e-02    9.919004e-03
  1.910514e-02    9.208569e-03
  1.940407e-02    8.581393e-03
  1.970300e-02    8.030198e-03
  2.000193e-02    7.519245e-03
  2.030086e-02    7.053165e-03
  2.059979e-02    6.629969e-03
  2.089873e-02    6.211264e-03
  2.119766e-02    5.828875e-03
  2.149659e-02    5.461087e-03
  2.179552e-02    5.111029e-03
  2.209445e-02    4.831836e-03
  2.239338e-02    4.570187e-03
  2.269231e-02    4.296683e-03
  2.299124e-02    4.053169e-03
  2.329017e-02    3.818488e-03
  2.358910e-02    3.612924e-03
  2.388803e-02    3.409122e-03
  2.418696e-02    3.238577e-03
  2.448589e-02    3.070881e-03
  2.478482e-02    2.903280e-03
  2.508375e-02    2.765343e-03
  2.538268e-02    2.623170e-03
  2.568161e-02    2.485289e-03
  2.598054e-02    2.364164e-03
  2.627947e-02    2.244724e-03
  2.657840e-02    2.137578e-03
  2.687733e-02    2.035194e-03
  2.717626e-02    1.929101e-03
  2.747519e-02    1.834891e-03
  2.777412e-02    1.763274e-03
  2.807305e-02    1.690757e-03
  2.837198e-02    1.616956e-03
  2.867092e-02    1.536845e-03
  2.896985e-02    1.464326e-03
  2.926878e-02    1.405500e-03
  2.956771e-02    1.346974e-03
  2.986664e-02    1.280258e-03
  3.016557e-02    1.227000e-03
  3.046450e-02    1.176620e-03
  3.076343e-02    1.128822e-03
  3.106236e-02    1.084709e-03
  3.136129e-02    1.047682e-03
  3.166022e-02    1.007146e-03
  3.195915e-02    9.622737e-04
  3.225808e-02    9.213971e-04
  3.255701e-02    8.891313e-04
  3.285594e-02    8.651181e-04
  3.315487e-02    8.312097e-04
  3.345380e-02    7.944149e-04
  3.375273e-02    7.654692e-04
  3.405166e-02    7.378557e-04
  3.435059e-02    7.078995e-04
  3.464952e-02    6.791762e-04
  3.494845e-02    6.568248e-04
  3.524738e-02    6.379590e-04
  3.554631e-02    6.186804e-04
  3.584524e-02    5.957378e-04
  3.614417e-02    5.721326e-04
  3.644310e-02    5.496469e-04
  3.674204e-02    5.366775e-04
  3.704097e-02    5.207161e-04
  3.733990e-02    5.063888e-04
  3.763883e-02    4.841368e-04
  3.793776e-02    4.623254e-04
  3.823669e-02    4.474973e-04
  3.853562e-02    4.302464e-04
  3.883455e-02    4.172044e-04
  3.913348e-02    4.091375e-04
  3.943241e-02    3.959929e-04
  3.973134e-02    3.853905e-04
  4.003027e-02    3.779171e-04
  4.032920e-02    3.633767e-04
  4.062813e-02    3.497045e-04
  4.092706e-02    3.421118e-04
  4.122599e-02    3.288955e-04
  4.152492e-02    3.220981e-04
  4.182385e-02    3.186469e-04
  4.212278e-02    3.044922e-04
  4.242171e-02    2.959408e-04
  4.272064e-02    2.884538e-04
  4.301957e-02    2.790714e-04
  4.331850e-02    2.719873e-04
  4.361743e-02    2.622140e-04
  4.391636e-02    2.579194e-04
  4.421529e-02    2.533936e-04
  4.451423e-02    2.444422e-04
  4.481316e-02    2.402051e-04
  4.511209e-02    2.336592e-04
  4.541102e-02    2.262032e-04
  4.570995e-02    2.226868e-04
  4.600888e-02    2.188312e-04
  4.630781e-02    2.107533e-04
  4.660674e-02    2.049950e-04
  4.690567e-02    2.034027e-04
  4.720460e-02    1.971133e-04
  4.750353e-02    1.920806e-04
  4.780246e-02    1.873474e-04
  4.810139e-02    1.832511e-04
  4.840032e-02    1.779856e-04
  4.869925e-02    1.763742e-04
  4.899818e-02    1.722181e-04
  4.929711e-02    1.679941e-04
  4.959604e-02    1.633256e-04
  4.989497e-02    1.619541e-04
  5.019390e-02    1.603421e-04
  5.049283e-02    1.530674e-04
  5.079176e-02    1.502899e-04
  5.109069e-02    1.496520e-04
  5.138962e-02    1.475434e-04
  5.168855e-02    1.479684e-04
  5.198748e-02    1.452778e-04
  5.228642e-02    1.415087e-04
  5.258535e-02    1.400246e-04
  5.288428e-02    1.357990e-04
  5.318321e-02    1.328173e-04
  5.348214e-02    1.290571e-04
  5.378107e-02    1.286293e-04
  5.408000e-02    1.252505e-04
  5.437893e-02    1.243607e-04
  5.467786e-02    1.202026e-04
  5.497679e-02    1.158732e-04
  5.527572e-02    1.159467e-04
  5.557465e-02    1.151055e-04
  5.587358e-02    1.117465e-04
  5.617251e-02    1.100228e-04
  5.647144e-02    1.077591e-04
  5.677037e-02    1.052096e-04
  5.706930e-02    1.029112e-04
  5.736823e-02    1.019403e-04
  5.766716e-02    1.012876e-04
  5.796609e-02    9.820695e-05
  5.826502e-02    9.773162e-05
  5.856395e-02    9.761989e-05
  5.886288e-02    9.773502e-05
  5.916181e-02    9.391354e-05
  5.946074e-02    9.276188e-05
  5.975967e-02    9.227053e-05
  6.005861e-02    9.065330e-05
  6.035754e-02    8.883037e-05
  6.065647e-02    8.811346e-05
  6.095540e-02    8.620817e-05
  6.125433e-02    8.669010e-05
  6.155326e-02    8.710577e-05
  6.185219e-02    8.623599e-05
  6.215112e-02    8.180880e-05
  6.245005e-02    8.120878e-05
  6.274898e-02    8.084907e-05
  6.304791e-02    7.967233e-05
  6.334684e-02    8.058704e-05
  6.364577e-02    7.803297e-05
  6.394470e-02    7.663124e-05
  6.424363e-02    7.568882e-05
  6.454256e-02    7.414378e-05
  6.484149e-02    7.255711e-05
  6.514042e-02    7.146866e-05
  6.543935e-02    7.211103e-05
  6.573828e-02    7.140321e-05
  6.603721e-02    7.181848e-05
  6.633614e-02    7.150994e-05
  6.663507e-02    7.024419e-05
  6.693400e-02    7.059539e-05
  6.723293e-02    6.891978e-05
  6.753186e-02    6.754862e-05
  6.783080e-02    6.798407e-05
  6.812973e-02    6.745954e-05
  6.842866e-02    6.574347e-05
  6.872759e-02    6.504353e-05
  6.902652e-02    6.458744e-05
  6.932545e-02    6.503077e-05
  6.962438e-02    6.348201e-05
  6.992331e-02    6.147941e-05
  7.022224e-02    6.175069e-05
  7.052117e-02    6.122146e-05
  7.082010e-02    6.123899e-05
  7.111903e-02    6.164159e-05
  7.141796e-02    6.063603e-05
  7.171689e-02    6.000627e-05
  7.201582e-02    5.956000e-05
  7.231475e-02    5.773200e-05
  7.261368e-02    5.777496e-05
  7.291261e-02    5.820842e-05
  7.321154e-02    5.844199e-05
  7.351047e-02    5.817282e-05
  7.380940e-02    5.720098e-05
  7.410833e-02    5.641705e-05
  7.440726e-02    5.562031e-05
  7.470619e-02    5.446086e-05
  7.500512e-02    5.416524e-05
  7.530405e-02    5.352745e-05
  7.560299e-02    5.226190e-05
  7.590192e-02    5.288236e-05
  7.620085e-02    5.385778e-05
  7.649978e-02    5.359765e-05
  7.679871e-02    5.344699e-05
  7.709764e-02    5.301753e-05
  7.739657e-02    5.198307e-05
  7.769550e-02    5.169088e-05
  7.799443e-02    5.025860e-05
  7.829336e-02    4.961310e-05
  7.859229e-02    5.061523e-05
  7.889122e-02    4.997520e-05
  7.919015e-02    5.019736e-05
  7.948908e-02    4.964953e-05
  7.978801e-02    4.910165e-05
  8.008694e-02    4.896079e-05
  8.038587e-02    4.854099e-05
  8.068480e-02    4.824653e-05
  8.098373e-02    4.753510e-05
  8.128266e-02    4.645737e-05
  8.158159e-02    4.643089e-05
  8.188052e-02    4.723834e-05
  8.217945e-02    4.621292e-05
  8.247838e-02    4.625988e-05
  8.277731e-02    4.694520e-05
  8.307624e-02    4.682552e-05
  8.337518e-02    4.677262e-05
  8.367411e-02    4.553869e-05
  8.397304e-02    4.557163e-05
  8.427197e-02    4.395475e-05
  8.457090e-02    4.256816e-05
  8.486983e-02    4.318598e-05
  8.516876e-02    4.400863e-05
  8.546769e-02    4.363945e-05
  8.576662e-02    4.239660e-05
  8.606555e-02    4.256255e-05
  8.636448e-02    4.245156e-05
  8.666341e-02    4.127219e-05
  8.696234e-02    4.085229e-05
  8.726127e-02    4.072500e-05
  8.756020e-02    4.006814e-05
  8.785913e-02    3.996093e-05
  8.815806e-02    4.037825e-05
  8.845699e-02    4.029687e-05
  8.875592e-02    3.982714e-05
  8.905485e-02    3.979815e-05
  8.935378e-02    3.946245e-05
  8.965271e-02    3.838867e-05
  8.995164e-02    3.818310e-05
  9.025057e-02    3.754136e-05
  9.054950e-02    3.790749e-05
  9.084843e-02    3.793397e-05
  9.114737e-02    3.738722e-05
  9.144630e-02    3.755734e-05
  9.174523e-02    3.695277e-05
  9.204416e-02    3.649341e-05
  9.234309e-02    3.632170e-05
  9.264202e-02    3.555350e-05
  9.294095e-02    3.544010e-05
  9.323988e-02    3.541315e-05
  9.353881e-02    3.576383e-05
  9.383774e-02    3.628943e-05
  9.413667e-02    3.532716e-05
  9.443560e-02    3.466250e-05
  9.473453e-02    3.496503e-05
  9.503346e-02    3.520164e-05
  9.533239e-02    3.549942e-05
  9.563132e-02    3.499700e-05
  9.593025e-02    3.460134e-05
  9.622918e-02    3.456438e-05
  9.652811e-02    3.454059e-05
  9.682704e-02    3.564839e-05
  9.712597e-02    3.529524e-05
  9.742490e-02    3.468724e-05
  9.772383e-02    3.473390e-05
  9.802276e-02    3.400968e-05
  9.832169e-02    3.423743e-05
  9.862062e-02    3.380699e-05
  9.891956e-02    3.329332e-05
  9.921849e-02    3.332068e-05
  9.951742e-02    3.256601e-05
  9.981635e-02    3.172818e-05
  1.001153e-01    3.127567e-05
  1.004142e-01    3.067534e-05
  1.007131e-01    3.133967e-05
  1.010121e-01    3.149948e-05
  1.013110e-01    3.122260e-05
  1.016099e-01    3.157095e-05
  1.019089e-01    3.167372e-05
  1.022078e-01    3.071165e-05
  1.025067e-01    3.048466e-05
  1.028057e-01    3.120932e-05
  1.031046e-01    2.991569e-05
  1.034035e-01    2.965475e-05
  1.037024e-01    2.980385e-05
  1.040014e-01    2.978252e-05
  1.043003e-01    3.013023e-05
  1.045992e-01    2.883851e-05
  1.048982e-01    2.806731e-05
  1.051971e-01    2.871835e-05
  1.054960e-01    2.915167e-05
  1.057950e-01    2.900032e-05
  1.060939e-01    2.876981e-05
  1.063928e-01    2.919807e-05
  1.066917e-01    2.918673e-05
  1.069907e-01    2.856998e-05
  1.072896e-01    2.822898e-05
  1.075885e-01    2.945721e-05
  1.078875e-01    2.927544e-05
  1.081864e-01    2.863504e-05
  1.084853e-01    2.880017e-05
  1.087843e-01    2.819794e-05
  1.090832e-01    2.834909e-05
  1.093821e-01    2.736753e-05
  1.096810e-01    2.700825e-05
  1.099800e-01    2.763873e-05
  1.102789e-01    2.830131e-05
  1.105778e-01    2.913493e-05
  1.108768e-01    2.834529e-05
  1.111757e-01    2.711098e-05
  1.114746e-01    2.729704e-05
  1.117736e-01    2.663626e-05
  1.120725e-01    2.641524e-05
  1.123714e-01    2.668409e-05
  1.126704e-01    2.689034e-05
  1.129693e-01    2.622878e-05
  1.132682e-01    2.579105e-05
  1.135671e-01    2.636546e-05
  1.138661e-01    2.571772e-05
  1.141650e-01    2.570655e-05
  1.144639e-01    2.566881e-05
  1.147629e-01    2.489339e-05
  1.150618e-01    2.467951e-05
  1.153607e-01    2.357277e-05
  1.156597e-01    2.358397e-05
  1.159586e-01    2.273621e-05
  1.162575e-01    2.323626e-05
  1.165564e-01    2.495382e-05
  1.168554e-01    2.500246e-05
  1.171543e-01    2.596178e-05
  1.174532e-01    2.476981e-05
  1.177522e-01    2.339414e-05
  1.180511e-01    2.492632e-05
  1.183500e-01    2.684714e-05
  1.186490e-01    2.599209e-05
  1.189479e-01    2.397691e-05
  1.192468e-01    2.308572e-05
  1.195458e-01    2.312659e-05
  1.198447e-01    2.496101e-05
  1.201436e-01    2.912413e-05
  1.204425e-01    2.817326e-05
  1.207415e-01    2.381957e-05
  1.210404e-01    0.000000e+00
  1.213393e-01    0.000000e+00
  1.216383e-01    0.000000e+00
  1.219372e-01    0.000000e+00
  1.222361e-01    0.000000e+00
  1.225351e-01    0.000000e+00
  1.228340e-01    0.000000e+00
  1.231329e-01    0.000000e+00
  1.234318e-01    0.000000e+00
  1.237308e-01    0.000000e+00
  1.240297e-01    0.000000e+00
  1.243286e-01    0.000000e+00
  1.246276e-01    0.000000e+00
  1.249265e-01    0.000000e+00
  1.252254e-01    0.000000e+00
  1.255244e-01    0.000000e+00
  1.258233e-01    0.000000e+00
  1.261222e-01    0.000000e+00
  1.264212e-01    0.000000e+00
  1.267201e-01    0.000000e+00
  1.270190e-01    0.000000e+00
  1.273179e-01    0.000000e+00
  1.276169e-01    0.000000e+00
  1.279158e-01    0.000000e+00
  1.282147e-01    0.000000e+00
  1.285137e-01    0.000000e+00
  1.288126e-01    0.000000e+00
  1.291115e-01    0.000000e+00
  1.294105e-01    0.000000e+00
  1.297094e-01    0.000000e+00
  1.300083e-01    0.000000e+00
  1.303072e-01    0.000000e+00
  1.306062e-01    0.000000e+00
  1.309051e-01    0.000000e+00
  1.312040e-01    0.000000e+00
  1.315030e-01    0.000000e+00
  1.318019e-01    0.000000e+00
  1.321008e-01    0.000000e+00
  1.323998e-01    0.000000e+00
  1.326987e-01    0.000000e+00
  1.329976e-01    0.000000e+00
  1.332965e-01    0.000000e+00
  1.335955e-01    0.000000e+00
  1.338944e-01    0.000000e+00
  1.341933e-01    0.000000e+00
  1.344923e-01    0.000000e+00
  1.347912e-01    0.000000e+00
  1.350901e-01    0.000000e+00
  1.353891e-01    0.000000e+00
  1.356880e-01    0.000000e+00
  1.359869e-01    0.000000e+00
  1.362859e-01    0.000000e+00
  1.365848e-01    0.000000e+00
  1.368837e-01    0.000000e+00
  1.371826e-01    0.000000e+00
  1.374816e-01    0.000000e+00
  1.377805e-01    0.000000e+00
  1.380794e-01    0.000000e+00
  1.383784e-01    0.000000e+00
  1.386773e-01    0.000000e+00
  1.389762e-01    0.000000e+00
  1.392752e-01    0.000000e+00
  1.395741e-01    0.000000e+00
  1.398730e-01    0.000000e+00
  1.401719e-01    0.000000e+00
  1.404709e-01    0.000000e+00
  1.407698e-01    0.000000e+00
  1.410687e-01    0.000000e+00
  1.413677e-01    0.000000e+00
  1.416666e-01    0.000000e+00
  1.419655e-01    0.000000e+00
  1.422645e-01    0.000000e+00
  1.425634e-01    0.000000e+00
  1.428623e-01    0.000000e+00
  1.431613e-01    0.000000e+00
  1.434602e-01    0.000000e+00
  1.437591e-01    0.000000e+00
  1.440580e-01    0.000000e+00
  1.443570e-01    0.000000e+00
  1.446559e-01    0.000000e+00
  1.449548e-01    0.000000e+00
  1.452538e-01    0.000000e+00
  1.455527e-01    0.000000e+00
  1.458516e-01    0.000000e+00
  1.461506e-01    0.000000e+00
  1.464495e-01    0.000000e+00
  1.467484e-01    0.000000e+00
  1.470473e-01    0.000000e+00
  1.473463e-01    0.000000e+00
  1.476452e-01    0.000000e+00
  1.479441e-01    0.000000e+00
  1.482431e-01    0.000000e+00
  1.485420e-01    0.000000e+00
  1.488409e-01    0.000000e+00
  1.491399e-01    0.000000e+00
  1.494388e-01    0.000000e+00
  1.497377e-01    0.000000e+00
  1.500367e-01    0.000000e+00
  1.503356e-01    0.000000e+00
  1.506345e-01    0.000000e+00
  1.509334e-01    0.000000e+00
  1.512324e-01    0.000000e+00
  1.515313e-01    0.000000e+00
  1.518302e-01    0.000000e+00
  1.521292e-01    0.000000e+00
  1.524281e-01    0.000000e+00
  1.527270e-01    0.000000e+00
  1.530260e-01    0.000000e+00
  1.533249e-01    0.000000e+00
  1.536238e-01    0.000000e+00
