# == pyFAI calibration ==
# Distance Sample to Detector: 2.266 m
# PONI: 5.659e-02, 4.293e-02 m
# Rotations: 0.000000 0.000000 0.000000 rad
# 
# == Fit2d calibration ==
# Distance Sample-beamCenter: 2266.000 mm
# Center: x=249.594, y=329.012 pix
# Tilt: 0.000 deg  TiltPlanRot: 0.000 deg
# 
# Detector Pilatus 300k	 PixelSize= 1.720e-04, 1.720e-04 m
#    Detector has a mask: True 
#    Detector has a dark current: False 
#    detector has a flat field: False 
# 
# Wavelength: 1.27818e-10 m
# Mask applied: user provided
# Dark current applied: False
# Flat field applied: False
# Polarization factor: None
# Normalization factor: 40188.09000000001
# --> AL_DowExpt1_220227_797693af-0bb0-4d68-b2c8-2a5ef8ea2ed0_1_r1d.csv
#        q_A^-1             I 
  4.457554e-03    8.763137e+00
  4.756484e-03    7.844748e+00
  5.055415e-03    6.708759e+00
  5.354345e-03    5.640127e+00
  5.653276e-03    4.870009e+00
  5.952206e-03    8.187276e+00
  6.251136e-03    7.765179e+00
  6.550067e-03    6.967450e+00
  6.848997e-03    6.002495e+00
  7.147927e-03    5.075951e+00
  7.446858e-03    4.307433e+00
  7.745788e-03    3.653651e+00
  8.044719e-03    3.106197e+00
  8.343649e-03    2.669321e+00
  8.642579e-03    2.294692e+00
  8.941510e-03    1.982562e+00
  9.240440e-03    1.722354e+00
  9.539371e-03    1.496506e+00
  9.838301e-03    1.305519e+00
  1.013723e-02    1.147855e+00
  1.043616e-02    1.011597e+00
  1.073509e-02    8.871513e-01
  1.103402e-02    7.854646e-01
  1.133295e-02    6.971930e-01
  1.163188e-02    6.221582e-01
  1.193081e-02    5.573135e-01
  1.222974e-02    5.003441e-01
  1.252867e-02    4.503045e-01
  1.282760e-02    4.063017e-01
  1.312654e-02    3.672612e-01
  1.342547e-02    3.332602e-01
  1.372440e-02    3.024896e-01
  1.402333e-02    2.753338e-01
  1.432226e-02    2.507691e-01
  1.462119e-02    2.290308e-01
  1.492012e-02    2.100239e-01
  1.521905e-02    1.921441e-01
  1.551798e-02    1.763974e-01
  1.581691e-02    1.620995e-01
  1.611584e-02    1.492762e-01
  1.641477e-02    1.376680e-01
  1.671370e-02    1.268847e-01
  1.701263e-02    1.172413e-01
  1.731156e-02    1.086273e-01
  1.761049e-02    1.007416e-01
  1.790942e-02    9.349563e-02
  1.820835e-02    8.674721e-02
  1.850728e-02    8.075871e-02
  1.880621e-02    7.530525e-02
  1.910514e-02    7.007644e-02
  1.940407e-02    6.530299e-02
  1.970300e-02    6.111544e-02
  2.000193e-02    5.717390e-02
  2.030086e-02    5.338752e-02
  2.059979e-02    5.004683e-02
  2.089873e-02    4.691528e-02
  2.119766e-02    4.397330e-02
  2.149659e-02    4.133771e-02
  2.179552e-02    3.888534e-02
  2.209445e-02    3.658615e-02
  2.239338e-02    3.454895e-02
  2.269231e-02    3.247041e-02
  2.299124e-02    3.056330e-02
  2.329017e-02    2.883499e-02
  2.358910e-02    2.726887e-02
  2.388803e-02    2.579523e-02
  2.418696e-02    2.443531e-02
  2.448589e-02    2.308290e-02
  2.478482e-02    2.181536e-02
  2.508375e-02    2.072424e-02
  2.538268e-02    1.973522e-02
  2.568161e-02    1.876585e-02
  2.598054e-02    1.779413e-02
  2.627947e-02    1.684898e-02
  2.657840e-02    1.605656e-02
  2.687733e-02    1.527417e-02
  2.717626e-02    1.453512e-02
  2.747519e-02    1.385624e-02
  2.777412e-02    1.325019e-02
  2.807305e-02    1.261224e-02
  2.837198e-02    1.201098e-02
  2.867092e-02    1.146178e-02
  2.896985e-02    1.093672e-02
  2.926878e-02    1.047143e-02
  2.956771e-02    1.003200e-02
  2.986664e-02    9.608791e-03
  3.016557e-02    9.218765e-03
  3.046450e-02    8.802156e-03
  3.076343e-02    8.426076e-03
  3.106236e-02    8.109403e-03
  3.136129e-02    7.801922e-03
  3.166022e-02    7.488377e-03
  3.195915e-02    7.157929e-03
  3.225808e-02    6.867566e-03
  3.255701e-02    6.587213e-03
  3.285594e-02    6.334159e-03
  3.315487e-02    6.105928e-03
  3.345380e-02    5.877619e-03
  3.375273e-02    5.633302e-03
  3.405166e-02    5.424096e-03
  3.435059e-02    5.244096e-03
  3.464952e-02    5.021880e-03
  3.494845e-02    4.841639e-03
  3.524738e-02    4.676262e-03
  3.554631e-02    4.505193e-03
  3.584524e-02    4.356246e-03
  3.614417e-02    4.214459e-03
  3.644310e-02    4.066170e-03
  3.674204e-02    3.916824e-03
  3.704097e-02    3.770540e-03
  3.733990e-02    3.661684e-03
  3.763883e-02    3.544831e-03
  3.793776e-02    3.427328e-03
  3.823669e-02    3.302859e-03
  3.853562e-02    3.205229e-03
  3.883455e-02    3.096340e-03
  3.913348e-02    2.986838e-03
  3.943241e-02    2.893840e-03
  3.973134e-02    2.805137e-03
  4.003027e-02    2.722156e-03
  4.032920e-02    2.629821e-03
  4.062813e-02    2.545361e-03
  4.092706e-02    2.480546e-03
  4.122599e-02    2.410528e-03
  4.152492e-02    2.332348e-03
  4.182385e-02    2.260936e-03
  4.212278e-02    2.200971e-03
  4.242171e-02    2.154640e-03
  4.272064e-02    2.088167e-03
  4.301957e-02    2.018744e-03
  4.331850e-02    1.967077e-03
  4.361743e-02    1.914131e-03
  4.391636e-02    1.858192e-03
  4.421529e-02    1.802407e-03
  4.451423e-02    1.756545e-03
  4.481316e-02    1.711221e-03
  4.511209e-02    1.662902e-03
  4.541102e-02    1.624290e-03
  4.570995e-02    1.592214e-03
  4.600888e-02    1.554196e-03
  4.630781e-02    1.517292e-03
  4.660674e-02    1.473286e-03
  4.690567e-02    1.435906e-03
  4.720460e-02    1.408186e-03
  4.750353e-02    1.371617e-03
  4.780246e-02    1.338572e-03
  4.810139e-02    1.299728e-03
  4.840032e-02    1.261262e-03
  4.869925e-02    1.233326e-03
  4.899818e-02    1.212717e-03
  4.929711e-02    1.183909e-03
  4.959604e-02    1.147913e-03
  4.989497e-02    1.124977e-03
  5.019390e-02    1.104683e-03
  5.049283e-02    1.086524e-03
  5.079176e-02    1.055715e-03
  5.109069e-02    1.040004e-03
  5.138962e-02    1.024433e-03
  5.168855e-02    1.012166e-03
  5.198748e-02    1.005750e-03
  5.228642e-02    9.927632e-04
  5.258535e-02    9.581017e-04
  5.288428e-02    9.293354e-04
  5.318321e-02    9.037533e-04
  5.348214e-02    8.848585e-04
  5.378107e-02    8.693950e-04
  5.408000e-02    8.483534e-04
  5.437893e-02    8.316383e-04
  5.467786e-02    8.111948e-04
  5.497679e-02    7.904327e-04
  5.527572e-02    7.781474e-04
  5.557465e-02    7.653704e-04
  5.587358e-02    7.494501e-04
  5.617251e-02    7.327829e-04
  5.647144e-02    7.246670e-04
  5.677037e-02    7.099067e-04
  5.706930e-02    6.984381e-04
  5.736823e-02    6.880887e-04
  5.766716e-02    6.734188e-04
  5.796609e-02    6.659746e-04
  5.826502e-02    6.565111e-04
  5.856395e-02    6.393713e-04
  5.886288e-02    6.312057e-04
  5.916181e-02    6.162581e-04
  5.946074e-02    6.078145e-04
  5.975967e-02    6.034633e-04
  6.005861e-02    5.903467e-04
  6.035754e-02    5.829571e-04
  6.065647e-02    5.778920e-04
  6.095540e-02    5.710708e-04
  6.125433e-02    5.708637e-04
  6.155326e-02    5.666385e-04
  6.185219e-02    5.599756e-04
  6.215112e-02    5.418444e-04
  6.245005e-02    5.270011e-04
  6.274898e-02    5.199538e-04
  6.304791e-02    5.068189e-04
  6.334684e-02    5.001031e-04
  6.364577e-02    4.979127e-04
  6.394470e-02    4.902044e-04
  6.424363e-02    4.840638e-04
  6.454256e-02    4.764355e-04
  6.484149e-02    4.681063e-04
  6.514042e-02    4.654644e-04
  6.543935e-02    4.638990e-04
  6.573828e-02    4.558970e-04
  6.603721e-02    4.420714e-04
  6.633614e-02    4.377648e-04
  6.663507e-02    4.378134e-04
  6.693400e-02    4.344422e-04
  6.723293e-02    4.279529e-04
  6.753186e-02    4.226505e-04
  6.783080e-02    4.178262e-04
  6.812973e-02    4.151919e-04
  6.842866e-02    4.068360e-04
  6.872759e-02    4.038570e-04
  6.902652e-02    3.989674e-04
  6.932545e-02    3.934317e-04
  6.962438e-02    3.901193e-04
  6.992331e-02    3.874031e-04
  7.022224e-02    3.863205e-04
  7.052117e-02    3.827762e-04
  7.082010e-02    3.767106e-04
  7.111903e-02    3.740395e-04
  7.141796e-02    3.674197e-04
  7.171689e-02    3.630980e-04
  7.201582e-02    3.608428e-04
  7.231475e-02    3.569364e-04
  7.261368e-02    3.550638e-04
  7.291261e-02    3.540017e-04
  7.321154e-02    3.484541e-04
  7.351047e-02    3.454025e-04
  7.380940e-02    3.434715e-04
  7.410833e-02    3.414488e-04
  7.440726e-02    3.320017e-04
  7.470619e-02    3.311210e-04
  7.500512e-02    3.293795e-04
  7.530405e-02    3.262566e-04
  7.560299e-02    3.285399e-04
  7.590192e-02    3.249251e-04
  7.620085e-02    3.177061e-04
  7.649978e-02    3.077839e-04
  7.679871e-02    3.098041e-04
  7.709764e-02    3.074222e-04
  7.739657e-02    3.052009e-04
  7.769550e-02    3.058559e-04
  7.799443e-02    3.026365e-04
  7.829336e-02    2.984389e-04
  7.859229e-02    2.952781e-04
  7.889122e-02    2.930047e-04
  7.919015e-02    2.897085e-04
  7.948908e-02    2.855552e-04
  7.978801e-02    2.852793e-04
  8.008694e-02    2.835369e-04
  8.038587e-02    2.792019e-04
  8.068480e-02    2.768587e-04
  8.098373e-02    2.713073e-04
  8.128266e-02    2.756202e-04
  8.158159e-02    2.745088e-04
  8.188052e-02    2.704600e-04
  8.217945e-02    2.666734e-04
  8.247838e-02    2.656223e-04
  8.277731e-02    2.609848e-04
  8.307624e-02    2.576296e-04
  8.337518e-02    2.558669e-04
  8.367411e-02    2.539353e-04
  8.397304e-02    2.494566e-04
  8.427197e-02    2.490237e-04
  8.457090e-02    2.495999e-04
  8.486983e-02    2.455991e-04
  8.516876e-02    2.434846e-04
  8.546769e-02    2.410807e-04
  8.576662e-02    2.411117e-04
  8.606555e-02    2.383426e-04
  8.636448e-02    2.384234e-04
  8.666341e-02    2.329012e-04
  8.696234e-02    2.305501e-04
  8.726127e-02    2.308089e-04
  8.756020e-02    2.282878e-04
  8.785913e-02    2.242598e-04
  8.815806e-02    2.200874e-04
  8.845699e-02    2.206674e-04
  8.875592e-02    2.195714e-04
  8.905485e-02    2.158742e-04
  8.935378e-02    2.154278e-04
  8.965271e-02    2.144864e-04
  8.995164e-02    2.129843e-04
  9.025057e-02    2.090160e-04
  9.054950e-02    2.037869e-04
  9.084843e-02    2.013670e-04
  9.114737e-02    2.048317e-04
  9.144630e-02    2.038386e-04
  9.174523e-02    2.002928e-04
  9.204416e-02    1.991825e-04
  9.234309e-02    1.961264e-04
  9.264202e-02    1.943671e-04
  9.294095e-02    1.945075e-04
  9.323988e-02    1.961909e-04
  9.353881e-02    1.939317e-04
  9.383774e-02    1.899818e-04
  9.413667e-02    1.887450e-04
  9.443560e-02    1.888289e-04
  9.473453e-02    1.881729e-04
  9.503346e-02    1.878767e-04
  9.533239e-02    1.876188e-04
  9.563132e-02    1.886814e-04
  9.593025e-02    1.873671e-04
  9.622918e-02    1.842355e-04
  9.652811e-02    1.820982e-04
  9.682704e-02    1.835457e-04
  9.712597e-02    1.853793e-04
  9.742490e-02    1.838520e-04
  9.772383e-02    1.814259e-04
  9.802276e-02    1.788675e-04
  9.832169e-02    1.756015e-04
  9.862062e-02    1.738660e-04
  9.891956e-02    1.725655e-04
  9.921849e-02    1.707333e-04
  9.951742e-02    1.679046e-04
  9.981635e-02    1.637896e-04
  1.001153e-01    1.650451e-04
  1.004142e-01    1.628204e-04
  1.007131e-01    1.636780e-04
  1.010121e-01    1.636813e-04
  1.013110e-01    1.602785e-04
  1.016099e-01    1.599532e-04
  1.019089e-01    1.584256e-04
  1.022078e-01    1.569535e-04
  1.025067e-01    1.559503e-04
  1.028057e-01    1.549911e-04
  1.031046e-01    1.540602e-04
  1.034035e-01    1.524121e-04
  1.037024e-01    1.501051e-04
  1.040014e-01    1.505172e-04
  1.043003e-01    1.503902e-04
  1.045992e-01    1.506369e-04
  1.048982e-01    1.497841e-04
  1.051971e-01    1.482478e-04
  1.054960e-01    1.481161e-04
  1.057950e-01    1.451923e-04
  1.060939e-01    1.455658e-04
  1.063928e-01    1.452676e-04
  1.066917e-01    1.423806e-04
  1.069907e-01    1.419556e-04
  1.072896e-01    1.416820e-04
  1.075885e-01    1.404731e-04
  1.078875e-01    1.385564e-04
  1.081864e-01    1.375103e-04
  1.084853e-01    1.384387e-04
  1.087843e-01    1.370202e-04
  1.090832e-01    1.359259e-04
  1.093821e-01    1.372671e-04
  1.096810e-01    1.375484e-04
  1.099800e-01    1.364469e-04
  1.102789e-01    1.351168e-04
  1.105778e-01    1.365279e-04
  1.108768e-01    1.375926e-04
  1.111757e-01    1.378547e-04
  1.114746e-01    1.351247e-04
  1.117736e-01    1.325179e-04
  1.120725e-01    1.321406e-04
  1.123714e-01    1.338399e-04
  1.126704e-01    1.333054e-04
  1.129693e-01    1.303851e-04
  1.132682e-01    1.283967e-04
  1.135671e-01    1.262891e-04
  1.138661e-01    1.258855e-04
  1.141650e-01    1.216914e-04
  1.144639e-01    1.217143e-04
  1.147629e-01    1.216701e-04
  1.150618e-01    1.171161e-04
  1.153607e-01    1.154591e-04
  1.156597e-01    1.156092e-04
  1.159586e-01    1.123777e-04
  1.162575e-01    1.120951e-04
  1.165564e-01    1.145830e-04
  1.168554e-01    1.145035e-04
  1.171543e-01    1.159784e-04
  1.174532e-01    1.202133e-04
  1.177522e-01    1.208231e-04
  1.180511e-01    1.215443e-04
  1.183500e-01    1.193612e-04
  1.186490e-01    1.208642e-04
  1.189479e-01    1.163867e-04
  1.192468e-01    1.085563e-04
  1.195458e-01    1.114945e-04
  1.198447e-01    1.182745e-04
  1.201436e-01    1.200258e-04
  1.204425e-01    9.449120e-05
  1.207415e-01    6.664265e-05
  1.210404e-01    9.962214e-05
  1.213393e-01    0.000000e+00
  1.216383e-01    0.000000e+00
  1.219372e-01    0.000000e+00
  1.222361e-01    0.000000e+00
  1.225351e-01    0.000000e+00
  1.228340e-01    0.000000e+00
  1.231329e-01    0.000000e+00
  1.234318e-01    0.000000e+00
  1.237308e-01    0.000000e+00
  1.240297e-01    0.000000e+00
  1.243286e-01    0.000000e+00
  1.246276e-01    0.000000e+00
  1.249265e-01    0.000000e+00
  1.252254e-01    0.000000e+00
  1.255244e-01    0.000000e+00
  1.258233e-01    0.000000e+00
  1.261222e-01    0.000000e+00
  1.264212e-01    0.000000e+00
  1.267201e-01    0.000000e+00
  1.270190e-01    0.000000e+00
  1.273179e-01    0.000000e+00
  1.276169e-01    0.000000e+00
  1.279158e-01    0.000000e+00
  1.282147e-01    0.000000e+00
  1.285137e-01    0.000000e+00
  1.288126e-01    0.000000e+00
  1.291115e-01    0.000000e+00
  1.294105e-01    0.000000e+00
  1.297094e-01    0.000000e+00
  1.300083e-01    0.000000e+00
  1.303072e-01    0.000000e+00
  1.306062e-01    0.000000e+00
  1.309051e-01    0.000000e+00
  1.312040e-01    0.000000e+00
  1.315030e-01    0.000000e+00
  1.318019e-01    0.000000e+00
  1.321008e-01    0.000000e+00
  1.323998e-01    0.000000e+00
  1.326987e-01    0.000000e+00
  1.329976e-01    0.000000e+00
  1.332965e-01    0.000000e+00
  1.335955e-01    0.000000e+00
  1.338944e-01    0.000000e+00
  1.341933e-01    0.000000e+00
  1.344923e-01    0.000000e+00
  1.347912e-01    0.000000e+00
  1.350901e-01    0.000000e+00
  1.353891e-01    0.000000e+00
  1.356880e-01    0.000000e+00
  1.359869e-01    0.000000e+00
  1.362859e-01    0.000000e+00
  1.365848e-01    0.000000e+00
  1.368837e-01    0.000000e+00
  1.371826e-01    0.000000e+00
  1.374816e-01    0.000000e+00
  1.377805e-01    0.000000e+00
  1.380794e-01    0.000000e+00
  1.383784e-01    0.000000e+00
  1.386773e-01    0.000000e+00
  1.389762e-01    0.000000e+00
  1.392752e-01    0.000000e+00
  1.395741e-01    0.000000e+00
  1.398730e-01    0.000000e+00
  1.401719e-01    0.000000e+00
  1.404709e-01    0.000000e+00
  1.407698e-01    0.000000e+00
  1.410687e-01    0.000000e+00
  1.413677e-01    0.000000e+00
  1.416666e-01    0.000000e+00
  1.419655e-01    0.000000e+00
  1.422645e-01    0.000000e+00
  1.425634e-01    0.000000e+00
  1.428623e-01    0.000000e+00
  1.431613e-01    0.000000e+00
  1.434602e-01    0.000000e+00
  1.437591e-01    0.000000e+00
  1.440580e-01    0.000000e+00
  1.443570e-01    0.000000e+00
  1.446559e-01    0.000000e+00
  1.449548e-01    0.000000e+00
  1.452538e-01    0.000000e+00
  1.455527e-01    0.000000e+00
  1.458516e-01    0.000000e+00
  1.461506e-01    0.000000e+00
  1.464495e-01    0.000000e+00
  1.467484e-01    0.000000e+00
  1.470473e-01    0.000000e+00
  1.473463e-01    0.000000e+00
  1.476452e-01    0.000000e+00
  1.479441e-01    0.000000e+00
  1.482431e-01    0.000000e+00
  1.485420e-01    0.000000e+00
  1.488409e-01    0.000000e+00
  1.491399e-01    0.000000e+00
  1.494388e-01    0.000000e+00
  1.497377e-01    0.000000e+00
  1.500367e-01    0.000000e+00
  1.503356e-01    0.000000e+00
  1.506345e-01    0.000000e+00
  1.509334e-01    0.000000e+00
  1.512324e-01    0.000000e+00
  1.515313e-01    0.000000e+00
  1.518302e-01    0.000000e+00
  1.521292e-01    0.000000e+00
  1.524281e-01    0.000000e+00
  1.527270e-01    0.000000e+00
  1.530260e-01    0.000000e+00
  1.533249e-01    0.000000e+00
  1.536238e-01    0.000000e+00
