# == pyFAI calibration ==
# Distance Sample to Detector: 2.266 m
# PONI: 5.659e-02, 4.293e-02 m
# Rotations: 0.000000 0.000000 0.000000 rad
# 
# == Fit2d calibration ==
# Distance Sample-beamCenter: 2266.000 mm
# Center: x=249.594, y=329.012 pix
# Tilt: 0.000 deg  TiltPlanRot: 0.000 deg
# 
# Detector Pilatus 300k	 PixelSize= 1.720e-04, 1.720e-04 m
#    Detector has a mask: True 
#    Detector has a dark current: False 
#    detector has a flat field: False 
# 
# Wavelength: 1.27818e-10 m
# Mask applied: user provided
# Dark current applied: False
# Flat field applied: False
# Polarization factor: None
# Normalization factor: 357.08000000000004
# --> AL_DowExpt1_220227_aedcd4fd-92a4-405d-bb9b-85947d47decb_1_r1d.csv
#        q_A^-1             I 
  4.457554e-03    4.723391e+01
  4.756484e-03    4.138150e+01
  5.055415e-03    3.462630e+01
  5.354345e-03    2.844571e+01
  5.653276e-03    2.404182e+01
  5.952206e-03    5.426840e+01
  6.251136e-03    5.053727e+01
  6.550067e-03    4.398555e+01
  6.848997e-03    3.659641e+01
  7.147927e-03    2.986700e+01
  7.446858e-03    2.450540e+01
  7.745788e-03    2.010526e+01
  8.044719e-03    1.657214e+01
  8.343649e-03    1.384684e+01
  8.642579e-03    1.160738e+01
  8.941510e-03    9.814200e+00
  9.240440e-03    8.359579e+00
  9.539371e-03    7.131905e+00
  9.838301e-03    6.097225e+00
  1.013723e-02    5.269551e+00
  1.043616e-02    4.573887e+00
  1.073509e-02    3.942598e+00
  1.103402e-02    3.439478e+00
  1.133295e-02    3.022163e+00
  1.163188e-02    2.671804e+00
  1.193081e-02    2.373727e+00
  1.222974e-02    2.118918e+00
  1.252867e-02    1.888258e+00
  1.282760e-02    1.696629e+00
  1.312654e-02    1.527513e+00
  1.342547e-02    1.376293e+00
  1.372440e-02    1.239795e+00
  1.402333e-02    1.128989e+00
  1.432226e-02    1.018754e+00
  1.462119e-02    9.242570e-01
  1.492012e-02    8.494000e-01
  1.521905e-02    7.749819e-01
  1.551798e-02    7.100047e-01
  1.581691e-02    6.523464e-01
  1.611584e-02    5.989516e-01
  1.641477e-02    5.490303e-01
  1.671370e-02    5.044845e-01
  1.701263e-02    4.635063e-01
  1.731156e-02    4.292649e-01
  1.761049e-02    3.991648e-01
  1.790942e-02    3.690326e-01
  1.820835e-02    3.435579e-01
  1.850728e-02    3.213077e-01
  1.880621e-02    2.993809e-01
  1.910514e-02    2.779124e-01
  1.940407e-02    2.586513e-01
  1.970300e-02    2.411324e-01
  2.000193e-02    2.244492e-01
  2.030086e-02    2.107477e-01
  2.059979e-02    1.984537e-01
  2.089873e-02    1.862979e-01
  2.119766e-02    1.741954e-01
  2.149659e-02    1.628245e-01
  2.179552e-02    1.519326e-01
  2.209445e-02    1.450114e-01
  2.239338e-02    1.362535e-01
  2.269231e-02    1.272674e-01
  2.299124e-02    1.196864e-01
  2.329017e-02    1.135649e-01
  2.358910e-02    1.070158e-01
  2.388803e-02    1.006458e-01
  2.418696e-02    9.571615e-02
  2.448589e-02    9.075393e-02
  2.478482e-02    8.688059e-02
  2.508375e-02    8.193762e-02
  2.538268e-02    7.705528e-02
  2.568161e-02    7.218590e-02
  2.598054e-02    6.930377e-02
  2.627947e-02    6.622528e-02
  2.657840e-02    6.277349e-02
  2.687733e-02    6.001687e-02
  2.717626e-02    5.748719e-02
  2.747519e-02    5.362739e-02
  2.777412e-02    5.189216e-02
  2.807305e-02    5.038497e-02
  2.837198e-02    4.787109e-02
  2.867092e-02    4.502457e-02
  2.896985e-02    4.265679e-02
  2.926878e-02    4.098513e-02
  2.956771e-02    3.950151e-02
  2.986664e-02    3.800483e-02
  3.016557e-02    3.589296e-02
  3.046450e-02    3.438805e-02
  3.076343e-02    3.356638e-02
  3.106236e-02    3.235441e-02
  3.136129e-02    3.048966e-02
  3.166022e-02    2.872642e-02
  3.195915e-02    2.783846e-02
  3.225808e-02    2.658352e-02
  3.255701e-02    2.608577e-02
  3.285594e-02    2.519327e-02
  3.315487e-02    2.370403e-02
  3.345380e-02    2.287496e-02
  3.375273e-02    2.218968e-02
  3.405166e-02    2.134486e-02
  3.435059e-02    2.063017e-02
  3.464952e-02    2.018586e-02
  3.494845e-02    1.942826e-02
  3.524738e-02    1.826897e-02
  3.554631e-02    1.794958e-02
  3.584524e-02    1.712745e-02
  3.614417e-02    1.655402e-02
  3.644310e-02    1.632250e-02
  3.674204e-02    1.552250e-02
  3.704097e-02    1.503853e-02
  3.733990e-02    1.434586e-02
  3.763883e-02    1.388208e-02
  3.793776e-02    1.331193e-02
  3.823669e-02    1.281257e-02
  3.853562e-02    1.219396e-02
  3.883455e-02    1.178288e-02
  3.913348e-02    1.165184e-02
  3.943241e-02    1.105067e-02
  3.973134e-02    1.063375e-02
  4.003027e-02    1.064979e-02
  4.032920e-02    1.023895e-02
  4.062813e-02    9.828798e-03
  4.092706e-02    9.651601e-03
  4.122599e-02    9.273972e-03
  4.152492e-02    9.004886e-03
  4.182385e-02    8.684658e-03
  4.212278e-02    8.618011e-03
  4.242171e-02    8.192878e-03
  4.272064e-02    8.055333e-03
  4.301957e-02    8.178787e-03
  4.331850e-02    7.774386e-03
  4.361743e-02    7.503849e-03
  4.391636e-02    7.209515e-03
  4.421529e-02    7.219772e-03
  4.451423e-02    6.953476e-03
  4.481316e-02    6.665860e-03
  4.511209e-02    6.595291e-03
  4.541102e-02    6.377548e-03
  4.570995e-02    5.921538e-03
  4.600888e-02    5.797979e-03
  4.630781e-02    5.949389e-03
  4.660674e-02    5.599014e-03
  4.690567e-02    5.311528e-03
  4.720460e-02    5.249858e-03
  4.750353e-02    5.122676e-03
  4.780246e-02    5.130541e-03
  4.810139e-02    5.000564e-03
  4.840032e-02    4.899734e-03
  4.869925e-02    4.794983e-03
  4.899818e-02    4.711316e-03
  4.929711e-02    4.704298e-03
  4.959604e-02    4.602555e-03
  4.989497e-02    4.415221e-03
  5.019390e-02    4.301757e-03
  5.049283e-02    3.943444e-03
  5.079176e-02    3.880833e-03
  5.109069e-02    4.099062e-03
  5.138962e-02    4.098343e-03
  5.168855e-02    3.839245e-03
  5.198748e-02    3.902265e-03
  5.228642e-02    3.763914e-03
  5.258535e-02    3.519250e-03
  5.288428e-02    3.546927e-03
  5.318321e-02    3.475793e-03
  5.348214e-02    3.277284e-03
  5.378107e-02    3.196779e-03
  5.408000e-02    3.253020e-03
  5.437893e-02    3.217672e-03
  5.467786e-02    3.146050e-03
  5.497679e-02    3.055375e-03
  5.527572e-02    3.031230e-03
  5.557465e-02    2.823138e-03
  5.587358e-02    2.876053e-03
  5.617251e-02    2.977984e-03
  5.647144e-02    2.775826e-03
  5.677037e-02    2.654176e-03
  5.706930e-02    2.607458e-03
  5.736823e-02    2.614020e-03
  5.766716e-02    2.514783e-03
  5.796609e-02    2.511116e-03
  5.826502e-02    2.403391e-03
  5.856395e-02    2.379382e-03
  5.886288e-02    2.334173e-03
  5.916181e-02    2.265546e-03
  5.946074e-02    2.375353e-03
  5.975967e-02    2.363927e-03
  6.005861e-02    2.232814e-03
  6.035754e-02    2.162118e-03
  6.065647e-02    2.158860e-03
  6.095540e-02    2.109635e-03
  6.125433e-02    2.012029e-03
  6.155326e-02    2.031931e-03
  6.185219e-02    2.110202e-03
  6.215112e-02    2.008990e-03
  6.245005e-02    1.988753e-03
  6.274898e-02    1.932704e-03
  6.304791e-02    1.826852e-03
  6.334684e-02    1.894988e-03
  6.364577e-02    2.009477e-03
  6.394470e-02    1.900048e-03
  6.424363e-02    1.855331e-03
  6.454256e-02    1.840465e-03
  6.484149e-02    1.790517e-03
  6.514042e-02    1.775289e-03
  6.543935e-02    1.799538e-03
  6.573828e-02    1.703229e-03
  6.603721e-02    1.638289e-03
  6.633614e-02    1.598193e-03
  6.663507e-02    1.626072e-03
  6.693400e-02    1.640255e-03
  6.723293e-02    1.516924e-03
  6.753186e-02    1.536755e-03
  6.783080e-02    1.584491e-03
  6.812973e-02    1.629424e-03
  6.842866e-02    1.550151e-03
  6.872759e-02    1.531330e-03
  6.902652e-02    1.500914e-03
  6.932545e-02    1.462446e-03
  6.962438e-02    1.465359e-03
  6.992331e-02    1.492075e-03
  7.022224e-02    1.452633e-03
  7.052117e-02    1.396412e-03
  7.082010e-02    1.368733e-03
  7.111903e-02    1.406288e-03
  7.141796e-02    1.386286e-03
  7.171689e-02    1.381824e-03
  7.201582e-02    1.266011e-03
  7.231475e-02    1.308295e-03
  7.261368e-02    1.410624e-03
  7.291261e-02    1.376500e-03
  7.321154e-02    1.281967e-03
  7.351047e-02    1.325455e-03
  7.380940e-02    1.314002e-03
  7.410833e-02    1.292193e-03
  7.440726e-02    1.332146e-03
  7.470619e-02    1.302901e-03
  7.500512e-02    1.233734e-03
  7.530405e-02    1.292088e-03
  7.560299e-02    1.298099e-03
  7.590192e-02    1.159989e-03
  7.620085e-02    1.173759e-03
  7.649978e-02    1.213343e-03
  7.679871e-02    1.189211e-03
  7.709764e-02    1.128701e-03
  7.739657e-02    1.141574e-03
  7.769550e-02    1.134329e-03
  7.799443e-02    1.116523e-03
  7.829336e-02    1.131574e-03
  7.859229e-02    1.166669e-03
  7.889122e-02    1.101918e-03
  7.919015e-02    1.078234e-03
  7.948908e-02    1.062834e-03
  7.978801e-02    1.044878e-03
  8.008694e-02    1.025618e-03
  8.038587e-02    9.805544e-04
  8.068480e-02    1.001398e-03
  8.098373e-02    1.054471e-03
  8.128266e-02    1.051631e-03
  8.158159e-02    1.035760e-03
  8.188052e-02    1.018514e-03
  8.217945e-02    1.008457e-03
  8.247838e-02    9.601017e-04
  8.277731e-02    9.720711e-04
  8.307624e-02    9.750043e-04
  8.337518e-02    9.553850e-04
  8.367411e-02    9.173584e-04
  8.397304e-02    9.361111e-04
  8.427197e-02    9.143500e-04
  8.457090e-02    8.979306e-04
  8.486983e-02    8.950022e-04
  8.516876e-02    9.149919e-04
  8.546769e-02    9.041395e-04
  8.576662e-02    9.446907e-04
  8.606555e-02    8.443875e-04
  8.636448e-02    7.992077e-04
  8.666341e-02    8.019038e-04
  8.696234e-02    8.755164e-04
  8.726127e-02    8.764392e-04
  8.756020e-02    8.504923e-04
  8.785913e-02    8.514279e-04
  8.815806e-02    8.064156e-04
  8.845699e-02    8.031168e-04
  8.875592e-02    8.020069e-04
  8.905485e-02    8.218343e-04
  8.935378e-02    7.843567e-04
  8.965271e-02    7.487299e-04
  8.995164e-02    7.962690e-04
  9.025057e-02    8.167131e-04
  9.054950e-02    7.694564e-04
  9.084843e-02    7.467030e-04
  9.114737e-02    7.146857e-04
  9.144630e-02    7.338953e-04
  9.174523e-02    7.818667e-04
  9.204416e-02    7.876576e-04
  9.234309e-02    7.787053e-04
  9.264202e-02    7.190835e-04
  9.294095e-02    7.046518e-04
  9.323988e-02    7.466157e-04
  9.353881e-02    7.293594e-04
  9.383774e-02    6.996967e-04
  9.413667e-02    6.336834e-04
  9.443560e-02    6.486059e-04
  9.473453e-02    7.176159e-04
  9.503346e-02    7.302911e-04
  9.533239e-02    6.901494e-04
  9.563132e-02    7.002879e-04
  9.593025e-02    7.127465e-04
  9.622918e-02    7.148585e-04
  9.652811e-02    7.019895e-04
  9.682704e-02    6.854982e-04
  9.712597e-02    6.734259e-04
  9.742490e-02    6.998659e-04
  9.772383e-02    7.087818e-04
  9.802276e-02    6.716017e-04
  9.832169e-02    6.704258e-04
  9.862062e-02    7.398988e-04
  9.891956e-02    7.307305e-04
  9.921849e-02    6.702645e-04
  9.951742e-02    6.282413e-04
  9.981635e-02    6.570441e-04
  1.001153e-01    6.461325e-04
  1.004142e-01    6.208376e-04
  1.007131e-01    6.336548e-04
  1.010121e-01    6.447327e-04
  1.013110e-01    5.989593e-04
  1.016099e-01    6.050422e-04
  1.019089e-01    5.787360e-04
  1.022078e-01    5.659491e-04
  1.025067e-01    5.709165e-04
  1.028057e-01    5.894786e-04
  1.031046e-01    5.925286e-04
  1.034035e-01    6.178173e-04
  1.037024e-01    5.885983e-04
  1.040014e-01    5.997650e-04
  1.043003e-01    6.006618e-04
  1.045992e-01    6.130754e-04
  1.048982e-01    6.186476e-04
  1.051971e-01    6.233885e-04
  1.054960e-01    5.893690e-04
  1.057950e-01    5.946502e-04
  1.060939e-01    5.547644e-04
  1.063928e-01    5.289199e-04
  1.066917e-01    5.568091e-04
  1.069907e-01    5.966351e-04
  1.072896e-01    5.773436e-04
  1.075885e-01    5.300563e-04
  1.078875e-01    5.910708e-04
  1.081864e-01    5.898340e-04
  1.084853e-01    5.752965e-04
  1.087843e-01    5.651606e-04
  1.090832e-01    5.231223e-04
  1.093821e-01    5.220992e-04
  1.096810e-01    5.443919e-04
  1.099800e-01    5.772919e-04
  1.102789e-01    5.794236e-04
  1.105778e-01    6.097418e-04
  1.108768e-01    6.021101e-04
  1.111757e-01    5.455635e-04
  1.114746e-01    5.194873e-04
  1.117736e-01    5.210044e-04
  1.120725e-01    4.721612e-04
  1.123714e-01    4.700132e-04
  1.126704e-01    5.181247e-04
  1.129693e-01    4.956460e-04
  1.132682e-01    4.464643e-04
  1.135671e-01    4.239638e-04
  1.138661e-01    4.764357e-04
  1.141650e-01    4.518811e-04
  1.144639e-01    4.369446e-04
  1.147629e-01    4.139695e-04
  1.150618e-01    3.163158e-04
  1.153607e-01    2.798990e-04
  1.156597e-01    3.715151e-04
  1.159586e-01    4.635615e-04
  1.162575e-01    3.985884e-04
  1.165564e-01    3.531409e-04
  1.168554e-01    3.424959e-04
  1.171543e-01    4.077771e-04
  1.174532e-01    4.750702e-04
  1.177522e-01    4.580700e-04
  1.180511e-01    4.187946e-04
  1.183500e-01    4.253118e-04
  1.186490e-01    3.842707e-04
  1.189479e-01    2.604326e-04
  1.192468e-01    2.918552e-04
  1.195458e-01    3.970634e-04
  1.198447e-01    2.294158e-04
  1.201436e-01    4.363711e-04
  1.204425e-01    6.695944e-04
  1.207415e-01    6.303115e-04
  1.210404e-01    0.000000e+00
  1.213393e-01    0.000000e+00
  1.216383e-01    0.000000e+00
  1.219372e-01    0.000000e+00
  1.222361e-01    0.000000e+00
  1.225351e-01    0.000000e+00
  1.228340e-01    0.000000e+00
  1.231329e-01    0.000000e+00
  1.234318e-01    0.000000e+00
  1.237308e-01    0.000000e+00
  1.240297e-01    0.000000e+00
  1.243286e-01    0.000000e+00
  1.246276e-01    0.000000e+00
  1.249265e-01    0.000000e+00
  1.252254e-01    0.000000e+00
  1.255244e-01    0.000000e+00
  1.258233e-01    0.000000e+00
  1.261222e-01    0.000000e+00
  1.264212e-01    0.000000e+00
  1.267201e-01    0.000000e+00
  1.270190e-01    0.000000e+00
  1.273179e-01    0.000000e+00
  1.276169e-01    0.000000e+00
  1.279158e-01    0.000000e+00
  1.282147e-01    0.000000e+00
  1.285137e-01    0.000000e+00
  1.288126e-01    0.000000e+00
  1.291115e-01    0.000000e+00
  1.294105e-01    0.000000e+00
  1.297094e-01    0.000000e+00
  1.300083e-01    0.000000e+00
  1.303072e-01    0.000000e+00
  1.306062e-01    0.000000e+00
  1.309051e-01    0.000000e+00
  1.312040e-01    0.000000e+00
  1.315030e-01    0.000000e+00
  1.318019e-01    0.000000e+00
  1.321008e-01    0.000000e+00
  1.323998e-01    0.000000e+00
  1.326987e-01    0.000000e+00
  1.329976e-01    0.000000e+00
  1.332965e-01    0.000000e+00
  1.335955e-01    0.000000e+00
  1.338944e-01    0.000000e+00
  1.341933e-01    0.000000e+00
  1.344923e-01    0.000000e+00
  1.347912e-01    0.000000e+00
  1.350901e-01    0.000000e+00
  1.353891e-01    0.000000e+00
  1.356880e-01    0.000000e+00
  1.359869e-01    0.000000e+00
  1.362859e-01    0.000000e+00
  1.365848e-01    0.000000e+00
  1.368837e-01    0.000000e+00
  1.371826e-01    0.000000e+00
  1.374816e-01    0.000000e+00
  1.377805e-01    0.000000e+00
  1.380794e-01    0.000000e+00
  1.383784e-01    0.000000e+00
  1.386773e-01    0.000000e+00
  1.389762e-01    0.000000e+00
  1.392752e-01    0.000000e+00
  1.395741e-01    0.000000e+00
  1.398730e-01    0.000000e+00
  1.401719e-01    0.000000e+00
  1.404709e-01    0.000000e+00
  1.407698e-01    0.000000e+00
  1.410687e-01    0.000000e+00
  1.413677e-01    0.000000e+00
  1.416666e-01    0.000000e+00
  1.419655e-01    0.000000e+00
  1.422645e-01    0.000000e+00
  1.425634e-01    0.000000e+00
  1.428623e-01    0.000000e+00
  1.431613e-01    0.000000e+00
  1.434602e-01    0.000000e+00
  1.437591e-01    0.000000e+00
  1.440580e-01    0.000000e+00
  1.443570e-01    0.000000e+00
  1.446559e-01    0.000000e+00
  1.449548e-01    0.000000e+00
  1.452538e-01    0.000000e+00
  1.455527e-01    0.000000e+00
  1.458516e-01    0.000000e+00
  1.461506e-01    0.000000e+00
  1.464495e-01    0.000000e+00
  1.467484e-01    0.000000e+00
  1.470473e-01    0.000000e+00
  1.473463e-01    0.000000e+00
  1.476452e-01    0.000000e+00
  1.479441e-01    0.000000e+00
  1.482431e-01    0.000000e+00
  1.485420e-01    0.000000e+00
  1.488409e-01    0.000000e+00
  1.491399e-01    0.000000e+00
  1.494388e-01    0.000000e+00
  1.497377e-01    0.000000e+00
  1.500367e-01    0.000000e+00
  1.503356e-01    0.000000e+00
  1.506345e-01    0.000000e+00
  1.509334e-01    0.000000e+00
  1.512324e-01    0.000000e+00
  1.515313e-01    0.000000e+00
  1.518302e-01    0.000000e+00
  1.521292e-01    0.000000e+00
  1.524281e-01    0.000000e+00
  1.527270e-01    0.000000e+00
  1.530260e-01    0.000000e+00
  1.533249e-01    0.000000e+00
  1.536238e-01    0.000000e+00
