# == pyFAI calibration ==
# Distance Sample to Detector: 2.266 m
# PONI: 5.659e-02, 4.293e-02 m
# Rotations: 0.000000 0.000000 0.000000 rad
# 
# == Fit2d calibration ==
# Distance Sample-beamCenter: 2266.000 mm
# Center: x=249.594, y=329.012 pix
# Tilt: 0.000 deg  TiltPlanRot: 0.000 deg
# 
# Detector Pilatus 300k	 PixelSize= 1.720e-04, 1.720e-04 m
#    Detector has a mask: True 
#    Detector has a dark current: False 
#    detector has a flat field: False 
# 
# Wavelength: 1.27818e-10 m
# Mask applied: user provided
# Dark current applied: False
# Flat field applied: False
# Polarization factor: None
# Normalization factor: 63674.79
# --> AL_DowExpt1_220227_736cd135-a80e-4d48-adb9-fadcb03f207b_2_r1d.csv
#        q_A^-1             I 
  4.457554e-03    3.497741e+00
  4.756484e-03    3.101063e+00
  5.055415e-03    2.615489e+00
  5.354345e-03    2.172013e+00
  5.653276e-03    1.857304e+00
  5.952206e-03    3.151054e+00
  6.251136e-03    2.931608e+00
  6.550067e-03    2.580254e+00
  6.848997e-03    2.190440e+00
  7.147927e-03    1.831184e+00
  7.446858e-03    1.541059e+00
  7.745788e-03    1.298246e+00
  8.044719e-03    1.097361e+00
  8.343649e-03    9.377900e-01
  8.642579e-03    8.045418e-01
  8.941510e-03    6.947669e-01
  9.240440e-03    6.028839e-01
  9.539371e-03    5.236501e-01
  9.838301e-03    4.568585e-01
  1.013723e-02    4.016021e-01
  1.043616e-02    3.539943e-01
  1.073509e-02    3.108071e-01
  1.103402e-02    2.757036e-01
  1.133295e-02    2.454845e-01
  1.163188e-02    2.195006e-01
  1.193081e-02    1.972208e-01
  1.222974e-02    1.773168e-01
  1.252867e-02    1.598425e-01
  1.282760e-02    1.446369e-01
  1.312654e-02    1.311307e-01
  1.342547e-02    1.192358e-01
  1.372440e-02    1.085459e-01
  1.402333e-02    9.909224e-02
  1.432226e-02    9.052131e-02
  1.462119e-02    8.282489e-02
  1.492012e-02    7.610095e-02
  1.521905e-02    6.989626e-02
  1.551798e-02    6.430016e-02
  1.581691e-02    5.920742e-02
  1.611584e-02    5.474325e-02
  1.641477e-02    5.057055e-02
  1.671370e-02    4.673773e-02
  1.701263e-02    4.335310e-02
  1.731156e-02    4.023821e-02
  1.761049e-02    3.736741e-02
  1.790942e-02    3.481701e-02
  1.820835e-02    3.239437e-02
  1.850728e-02    3.022342e-02
  1.880621e-02    2.822139e-02
  1.910514e-02    2.639214e-02
  1.940407e-02    2.462571e-02
  1.970300e-02    2.304280e-02
  2.000193e-02    2.162322e-02
  2.030086e-02    2.028379e-02
  2.059979e-02    1.909023e-02
  2.089873e-02    1.793633e-02
  2.119766e-02    1.686376e-02
  2.149659e-02    1.586108e-02
  2.179552e-02    1.494231e-02
  2.209445e-02    1.409190e-02
  2.239338e-02    1.329780e-02
  2.269231e-02    1.257147e-02
  2.299124e-02    1.188844e-02
  2.329017e-02    1.122020e-02
  2.358910e-02    1.059867e-02
  2.388803e-02    1.005437e-02
  2.418696e-02    9.540891e-03
  2.448589e-02    9.038760e-03
  2.478482e-02    8.593649e-03
  2.508375e-02    8.164359e-03
  2.538268e-02    7.742114e-03
  2.568161e-02    7.368181e-03
  2.598054e-02    6.997298e-03
  2.627947e-02    6.665225e-03
  2.657840e-02    6.360402e-03
  2.687733e-02    6.065643e-03
  2.717626e-02    5.767447e-03
  2.747519e-02    5.502151e-03
  2.777412e-02    5.272837e-03
  2.807305e-02    5.032925e-03
  2.837198e-02    4.800217e-03
  2.867092e-02    4.603034e-03
  2.896985e-02    4.401664e-03
  2.926878e-02    4.207236e-03
  2.956771e-02    4.023494e-03
  2.986664e-02    3.856023e-03
  3.016557e-02    3.680006e-03
  3.046450e-02    3.543837e-03
  3.076343e-02    3.408625e-03
  3.106236e-02    3.264237e-03
  3.136129e-02    3.135924e-03
  3.166022e-02    3.020016e-03
  3.195915e-02    2.909267e-03
  3.225808e-02    2.803171e-03
  3.255701e-02    2.687530e-03
  3.285594e-02    2.583193e-03
  3.315487e-02    2.483758e-03
  3.345380e-02    2.390484e-03
  3.375273e-02    2.301558e-03
  3.405166e-02    2.225436e-03
  3.435059e-02    2.131023e-03
  3.464952e-02    2.055363e-03
  3.494845e-02    1.991500e-03
  3.524738e-02    1.919474e-03
  3.554631e-02    1.859243e-03
  3.584524e-02    1.798994e-03
  3.614417e-02    1.735786e-03
  3.644310e-02    1.676085e-03
  3.674204e-02    1.616962e-03
  3.704097e-02    1.558024e-03
  3.733990e-02    1.505212e-03
  3.763883e-02    1.465338e-03
  3.793776e-02    1.419907e-03
  3.823669e-02    1.364848e-03
  3.853562e-02    1.321254e-03
  3.883455e-02    1.286455e-03
  3.913348e-02    1.243095e-03
  3.943241e-02    1.205028e-03
  3.973134e-02    1.173238e-03
  4.003027e-02    1.134748e-03
  4.032920e-02    1.100105e-03
  4.062813e-02    1.073377e-03
  4.092706e-02    1.040403e-03
  4.122599e-02    1.012501e-03
  4.152492e-02    9.804631e-04
  4.182385e-02    9.590163e-04
  4.212278e-02    9.404956e-04
  4.242171e-02    9.099574e-04
  4.272064e-02    8.808549e-04
  4.301957e-02    8.579321e-04
  4.331850e-02    8.329482e-04
  4.361743e-02    8.119930e-04
  4.391636e-02    7.910015e-04
  4.421529e-02    7.714744e-04
  4.451423e-02    7.570653e-04
  4.481316e-02    7.336740e-04
  4.511209e-02    7.208007e-04
  4.541102e-02    7.000043e-04
  4.570995e-02    6.781904e-04
  4.600888e-02    6.685214e-04
  4.630781e-02    6.555540e-04
  4.660674e-02    6.386115e-04
  4.690567e-02    6.261108e-04
  4.720460e-02    6.132752e-04
  4.750353e-02    5.999052e-04
  4.780246e-02    5.847030e-04
  4.810139e-02    5.713012e-04
  4.840032e-02    5.637562e-04
  4.869925e-02    5.489154e-04
  4.899818e-02    5.386999e-04
  4.929711e-02    5.283630e-04
  4.959604e-02    5.170341e-04
  4.989497e-02    5.064831e-04
  5.019390e-02    4.981853e-04
  5.049283e-02    4.919632e-04
  5.079176e-02    4.814328e-04
  5.109069e-02    4.765905e-04
  5.138962e-02    4.699159e-04
  5.168855e-02    4.582453e-04
  5.198748e-02    4.546267e-04
  5.228642e-02    4.538449e-04
  5.258535e-02    4.407188e-04
  5.288428e-02    4.263530e-04
  5.318321e-02    4.181420e-04
  5.348214e-02    4.106982e-04
  5.378107e-02    3.989876e-04
  5.408000e-02    3.900968e-04
  5.437893e-02    3.854418e-04
  5.467786e-02    3.807499e-04
  5.497679e-02    3.760435e-04
  5.527572e-02    3.719366e-04
  5.557465e-02    3.620062e-04
  5.587358e-02    3.552442e-04
  5.617251e-02    3.486113e-04
  5.647144e-02    3.435276e-04
  5.677037e-02    3.373447e-04
  5.706930e-02    3.323531e-04
  5.736823e-02    3.315150e-04
  5.766716e-02    3.284570e-04
  5.796609e-02    3.239201e-04
  5.826502e-02    3.175198e-04
  5.856395e-02    3.132155e-04
  5.886288e-02    3.105807e-04
  5.916181e-02    3.070375e-04
  5.946074e-02    3.040592e-04
  5.975967e-02    2.982232e-04
  6.005861e-02    2.931081e-04
  6.035754e-02    2.925986e-04
  6.065647e-02    2.899739e-04
  6.095540e-02    2.875001e-04
  6.125433e-02    2.887958e-04
  6.155326e-02    2.889083e-04
  6.185219e-02    2.839269e-04
  6.215112e-02    2.781407e-04
  6.245005e-02    2.734649e-04
  6.274898e-02    2.688489e-04
  6.304791e-02    2.651558e-04
  6.334684e-02    2.631158e-04
  6.364577e-02    2.622886e-04
  6.394470e-02    2.589970e-04
  6.424363e-02    2.551875e-04
  6.454256e-02    2.524568e-04
  6.484149e-02    2.524292e-04
  6.514042e-02    2.491034e-04
  6.543935e-02    2.445092e-04
  6.573828e-02    2.448408e-04
  6.603721e-02    2.454835e-04
  6.633614e-02    2.417135e-04
  6.663507e-02    2.384165e-04
  6.693400e-02    2.368947e-04
  6.723293e-02    2.349198e-04
  6.753186e-02    2.344728e-04
  6.783080e-02    2.333532e-04
  6.812973e-02    2.298965e-04
  6.842866e-02    2.242270e-04
  6.872759e-02    2.238672e-04
  6.902652e-02    2.272351e-04
  6.932545e-02    2.252342e-04
  6.962438e-02    2.246183e-04
  6.992331e-02    2.209408e-04
  7.022224e-02    2.200958e-04
  7.052117e-02    2.179847e-04
  7.082010e-02    2.146548e-04
  7.111903e-02    2.116535e-04
  7.141796e-02    2.106781e-04
  7.171689e-02    2.079639e-04
  7.201582e-02    2.077793e-04
  7.231475e-02    2.082111e-04
  7.261368e-02    2.077923e-04
  7.291261e-02    2.072726e-04
  7.321154e-02    2.076283e-04
  7.351047e-02    2.060491e-04
  7.380940e-02    2.047054e-04
  7.410833e-02    2.038396e-04
  7.440726e-02    1.998580e-04
  7.470619e-02    1.987283e-04
  7.500512e-02    1.991691e-04
  7.530405e-02    1.965654e-04
  7.560299e-02    1.950631e-04
  7.590192e-02    1.946926e-04
  7.620085e-02    1.930508e-04
  7.649978e-02    1.928761e-04
  7.679871e-02    1.904697e-04
  7.709764e-02    1.881423e-04
  7.739657e-02    1.886182e-04
  7.769550e-02    1.881496e-04
  7.799443e-02    1.863428e-04
  7.829336e-02    1.865329e-04
  7.859229e-02    1.830018e-04
  7.889122e-02    1.813946e-04
  7.919015e-02    1.802502e-04
  7.948908e-02    1.818337e-04
  7.978801e-02    1.806247e-04
  8.008694e-02    1.791935e-04
  8.038587e-02    1.767863e-04
  8.068480e-02    1.770979e-04
  8.098373e-02    1.761408e-04
  8.128266e-02    1.750321e-04
  8.158159e-02    1.744784e-04
  8.188052e-02    1.720645e-04
  8.217945e-02    1.708776e-04
  8.247838e-02    1.697921e-04
  8.277731e-02    1.705737e-04
  8.307624e-02    1.683064e-04
  8.337518e-02    1.659484e-04
  8.367411e-02    1.663238e-04
  8.397304e-02    1.675513e-04
  8.427197e-02    1.662368e-04
  8.457090e-02    1.639577e-04
  8.486983e-02    1.627037e-04
  8.516876e-02    1.622736e-04
  8.546769e-02    1.594584e-04
  8.576662e-02    1.598624e-04
  8.606555e-02    1.612311e-04
  8.636448e-02    1.580435e-04
  8.666341e-02    1.583482e-04
  8.696234e-02    1.578971e-04
  8.726127e-02    1.540478e-04
  8.756020e-02    1.531733e-04
  8.785913e-02    1.520483e-04
  8.815806e-02    1.515515e-04
  8.845699e-02    1.513125e-04
  8.875592e-02    1.495858e-04
  8.905485e-02    1.497757e-04
  8.935378e-02    1.482939e-04
  8.965271e-02    1.486054e-04
  8.995164e-02    1.487353e-04
  9.025057e-02    1.470296e-04
  9.054950e-02    1.462443e-04
  9.084843e-02    1.434493e-04
  9.114737e-02    1.437358e-04
  9.144630e-02    1.444215e-04
  9.174523e-02    1.432183e-04
  9.204416e-02    1.409715e-04
  9.234309e-02    1.398580e-04
  9.264202e-02    1.403318e-04
  9.294095e-02    1.404808e-04
  9.323988e-02    1.386691e-04
  9.353881e-02    1.392045e-04
  9.383774e-02    1.396274e-04
  9.413667e-02    1.366812e-04
  9.443560e-02    1.358672e-04
  9.473453e-02    1.364334e-04
  9.503346e-02    1.356441e-04
  9.533239e-02    1.366061e-04
  9.563132e-02    1.353504e-04
  9.593025e-02    1.344804e-04
  9.622918e-02    1.354960e-04
  9.652811e-02    1.355862e-04
  9.682704e-02    1.350454e-04
  9.712597e-02    1.349847e-04
  9.742490e-02    1.317723e-04
  9.772383e-02    1.319306e-04
  9.802276e-02    1.328044e-04
  9.832169e-02    1.306794e-04
  9.862062e-02    1.290061e-04
  9.891956e-02    1.281345e-04
  9.921849e-02    1.274596e-04
  9.951742e-02    1.270872e-04
  9.981635e-02    1.248061e-04
  1.001153e-01    1.242367e-04
  1.004142e-01    1.240409e-04
  1.007131e-01    1.240010e-04
  1.010121e-01    1.246580e-04
  1.013110e-01    1.229893e-04
  1.016099e-01    1.218367e-04
  1.019089e-01    1.210108e-04
  1.022078e-01    1.204480e-04
  1.025067e-01    1.189323e-04
  1.028057e-01    1.182025e-04
  1.031046e-01    1.184158e-04
  1.034035e-01    1.178447e-04
  1.037024e-01    1.196478e-04
  1.040014e-01    1.185264e-04
  1.043003e-01    1.167205e-04
  1.045992e-01    1.173721e-04
  1.048982e-01    1.142014e-04
  1.051971e-01    1.133507e-04
  1.054960e-01    1.139216e-04
  1.057950e-01    1.143021e-04
  1.060939e-01    1.144392e-04
  1.063928e-01    1.147724e-04
  1.066917e-01    1.142217e-04
  1.069907e-01    1.137747e-04
  1.072896e-01    1.122743e-04
  1.075885e-01    1.119215e-04
  1.078875e-01    1.120876e-04
  1.081864e-01    1.113256e-04
  1.084853e-01    1.107484e-04
  1.087843e-01    1.113158e-04
  1.090832e-01    1.110900e-04
  1.093821e-01    1.106645e-04
  1.096810e-01    1.134129e-04
  1.099800e-01    1.129312e-04
  1.102789e-01    1.099968e-04
  1.105778e-01    1.087298e-04
  1.108768e-01    1.080180e-04
  1.111757e-01    1.089621e-04
  1.114746e-01    1.092335e-04
  1.117736e-01    1.083777e-04
  1.120725e-01    1.066396e-04
  1.123714e-01    1.077714e-04
  1.126704e-01    1.088601e-04
  1.129693e-01    1.087833e-04
  1.132682e-01    1.045847e-04
  1.135671e-01    1.023698e-04
  1.138661e-01    1.012133e-04
  1.141650e-01    1.007579e-04
  1.144639e-01    1.011212e-04
  1.147629e-01    1.020879e-04
  1.150618e-01    9.966662e-05
  1.153607e-01    9.699059e-05
  1.156597e-01    9.768176e-05
  1.159586e-01    9.728820e-05
  1.162575e-01    9.837791e-05
  1.165564e-01    9.776626e-05
  1.168554e-01    9.516522e-05
  1.171543e-01    9.628088e-05
  1.174532e-01    9.975909e-05
  1.177522e-01    9.692308e-05
  1.180511e-01    9.545137e-05
  1.183500e-01    9.529421e-05
  1.186490e-01    9.629019e-05
  1.189479e-01    9.938837e-05
  1.192468e-01    9.430887e-05
  1.195458e-01    9.496339e-05
  1.198447e-01    9.655736e-05
  1.201436e-01    1.023122e-04
  1.204425e-01    1.037214e-04
  1.207415e-01    1.069091e-04
  1.210404e-01    9.431418e-05
  1.213393e-01    0.000000e+00
  1.216383e-01    0.000000e+00
  1.219372e-01    0.000000e+00
  1.222361e-01    0.000000e+00
  1.225351e-01    0.000000e+00
  1.228340e-01    0.000000e+00
  1.231329e-01    0.000000e+00
  1.234318e-01    0.000000e+00
  1.237308e-01    0.000000e+00
  1.240297e-01    0.000000e+00
  1.243286e-01    0.000000e+00
  1.246276e-01    0.000000e+00
  1.249265e-01    0.000000e+00
  1.252254e-01    0.000000e+00
  1.255244e-01    0.000000e+00
  1.258233e-01    0.000000e+00
  1.261222e-01    0.000000e+00
  1.264212e-01    0.000000e+00
  1.267201e-01    0.000000e+00
  1.270190e-01    0.000000e+00
  1.273179e-01    0.000000e+00
  1.276169e-01    0.000000e+00
  1.279158e-01    0.000000e+00
  1.282147e-01    0.000000e+00
  1.285137e-01    0.000000e+00
  1.288126e-01    0.000000e+00
  1.291115e-01    0.000000e+00
  1.294105e-01    0.000000e+00
  1.297094e-01    0.000000e+00
  1.300083e-01    0.000000e+00
  1.303072e-01    0.000000e+00
  1.306062e-01    0.000000e+00
  1.309051e-01    0.000000e+00
  1.312040e-01    0.000000e+00
  1.315030e-01    0.000000e+00
  1.318019e-01    0.000000e+00
  1.321008e-01    0.000000e+00
  1.323998e-01    0.000000e+00
  1.326987e-01    0.000000e+00
  1.329976e-01    0.000000e+00
  1.332965e-01    0.000000e+00
  1.335955e-01    0.000000e+00
  1.338944e-01    0.000000e+00
  1.341933e-01    0.000000e+00
  1.344923e-01    0.000000e+00
  1.347912e-01    0.000000e+00
  1.350901e-01    0.000000e+00
  1.353891e-01    0.000000e+00
  1.356880e-01    0.000000e+00
  1.359869e-01    0.000000e+00
  1.362859e-01    0.000000e+00
  1.365848e-01    0.000000e+00
  1.368837e-01    0.000000e+00
  1.371826e-01    0.000000e+00
  1.374816e-01    0.000000e+00
  1.377805e-01    0.000000e+00
  1.380794e-01    0.000000e+00
  1.383784e-01    0.000000e+00
  1.386773e-01    0.000000e+00
  1.389762e-01    0.000000e+00
  1.392752e-01    0.000000e+00
  1.395741e-01    0.000000e+00
  1.398730e-01    0.000000e+00
  1.401719e-01    0.000000e+00
  1.404709e-01    0.000000e+00
  1.407698e-01    0.000000e+00
  1.410687e-01    0.000000e+00
  1.413677e-01    0.000000e+00
  1.416666e-01    0.000000e+00
  1.419655e-01    0.000000e+00
  1.422645e-01    0.000000e+00
  1.425634e-01    0.000000e+00
  1.428623e-01    0.000000e+00
  1.431613e-01    0.000000e+00
  1.434602e-01    0.000000e+00
  1.437591e-01    0.000000e+00
  1.440580e-01    0.000000e+00
  1.443570e-01    0.000000e+00
  1.446559e-01    0.000000e+00
  1.449548e-01    0.000000e+00
  1.452538e-01    0.000000e+00
  1.455527e-01    0.000000e+00
  1.458516e-01    0.000000e+00
  1.461506e-01    0.000000e+00
  1.464495e-01    0.000000e+00
  1.467484e-01    0.000000e+00
  1.470473e-01    0.000000e+00
  1.473463e-01    0.000000e+00
  1.476452e-01    0.000000e+00
  1.479441e-01    0.000000e+00
  1.482431e-01    0.000000e+00
  1.485420e-01    0.000000e+00
  1.488409e-01    0.000000e+00
  1.491399e-01    0.000000e+00
  1.494388e-01    0.000000e+00
  1.497377e-01    0.000000e+00
  1.500367e-01    0.000000e+00
  1.503356e-01    0.000000e+00
  1.506345e-01    0.000000e+00
  1.509334e-01    0.000000e+00
  1.512324e-01    0.000000e+00
  1.515313e-01    0.000000e+00
  1.518302e-01    0.000000e+00
  1.521292e-01    0.000000e+00
  1.524281e-01    0.000000e+00
  1.527270e-01    0.000000e+00
  1.530260e-01    0.000000e+00
  1.533249e-01    0.000000e+00
  1.536238e-01    0.000000e+00
