# == pyFAI calibration ==
# Distance Sample to Detector: 2.266 m
# PONI: 5.659e-02, 4.293e-02 m
# Rotations: 0.000000 0.000000 0.000000 rad
# 
# == Fit2d calibration ==
# Distance Sample-beamCenter: 2266.000 mm
# Center: x=249.594, y=329.012 pix
# Tilt: 0.000 deg  TiltPlanRot: 0.000 deg
# 
# Detector Pilatus 300k	 PixelSize= 1.720e-04, 1.720e-04 m
#    Detector has a mask: True 
#    Detector has a dark current: False 
#    detector has a flat field: False 
# 
# Wavelength: 1.27818e-10 m
# Mask applied: user provided
# Dark current applied: False
# Flat field applied: False
# Polarization factor: None
# Normalization factor: 45767.86000000001
# --> AL_DowExpt1_220227_3c4869d4-2145-4f5c-8bad-739e86bce49b_1_r1d.csv
#        q_A^-1             I 
  4.457554e-03    7.132147e-01
  4.756484e-03    6.094310e-01
  5.055415e-03    4.892859e-01
  5.354345e-03    3.855264e-01
  5.653276e-03    3.210424e-01
  5.952206e-03    6.152526e-01
  6.251136e-03    5.834391e-01
  6.550067e-03    5.216648e-01
  6.848997e-03    4.478312e-01
  7.147927e-03    3.700710e-01
  7.446858e-03    3.011710e-01
  7.745788e-03    2.453691e-01
  8.044719e-03    2.025111e-01
  8.343649e-03    1.711597e-01
  8.642579e-03    1.465587e-01
  8.941510e-03    1.270178e-01
  9.240440e-03    1.108294e-01
  9.539371e-03    9.698234e-02
  9.838301e-03    8.542966e-02
  1.013723e-02    7.574061e-02
  1.043616e-02    6.704874e-02
  1.073509e-02    5.910273e-02
  1.103402e-02    5.239994e-02
  1.133295e-02    4.652508e-02
  1.163188e-02    4.141745e-02
  1.193081e-02    3.702917e-02
  1.222974e-02    3.302943e-02
  1.252867e-02    2.957639e-02
  1.282760e-02    2.664087e-02
  1.312654e-02    2.411884e-02
  1.342547e-02    2.193704e-02
  1.372440e-02    1.997135e-02
  1.402333e-02    1.827386e-02
  1.432226e-02    1.680390e-02
  1.462119e-02    1.543580e-02
  1.492012e-02    1.422656e-02
  1.521905e-02    1.312514e-02
  1.551798e-02    1.213164e-02
  1.581691e-02    1.115934e-02
  1.611584e-02    1.025379e-02
  1.641477e-02    9.452602e-03
  1.671370e-02    8.745789e-03
  1.701263e-02    8.063325e-03
  1.731156e-02    7.462686e-03
  1.761049e-02    6.938447e-03
  1.790942e-02    6.443480e-03
  1.820835e-02    5.975198e-03
  1.850728e-02    5.578442e-03
  1.880621e-02    5.256876e-03
  1.910514e-02    4.952479e-03
  1.940407e-02    4.622219e-03
  1.970300e-02    4.345574e-03
  2.000193e-02    4.096699e-03
  2.030086e-02    3.826946e-03
  2.059979e-02    3.617074e-03
  2.089873e-02    3.409016e-03
  2.119766e-02    3.189604e-03
  2.149659e-02    3.001614e-03
  2.179552e-02    2.832903e-03
  2.209445e-02    2.652178e-03
  2.239338e-02    2.506813e-03
  2.269231e-02    2.384629e-03
  2.299124e-02    2.241770e-03
  2.329017e-02    2.125840e-03
  2.358910e-02    2.030163e-03
  2.388803e-02    1.924571e-03
  2.418696e-02    1.824487e-03
  2.448589e-02    1.752709e-03
  2.478482e-02    1.671672e-03
  2.508375e-02    1.591634e-03
  2.538268e-02    1.513389e-03
  2.568161e-02    1.448698e-03
  2.598054e-02    1.381833e-03
  2.627947e-02    1.305756e-03
  2.657840e-02    1.250005e-03
  2.687733e-02    1.196584e-03
  2.717626e-02    1.146192e-03
  2.747519e-02    1.096484e-03
  2.777412e-02    1.056585e-03
  2.807305e-02    1.011829e-03
  2.837198e-02    9.675229e-04
  2.867092e-02    9.283649e-04
  2.896985e-02    8.908389e-04
  2.926878e-02    8.593486e-04
  2.956771e-02    8.351717e-04
  2.986664e-02    7.985528e-04
  3.016557e-02    7.640878e-04
  3.046450e-02    7.496920e-04
  3.076343e-02    7.228816e-04
  3.106236e-02    6.942013e-04
  3.136129e-02    6.694015e-04
  3.166022e-02    6.457145e-04
  3.195915e-02    6.219588e-04
  3.225808e-02    6.060603e-04
  3.255701e-02    5.874275e-04
  3.285594e-02    5.637419e-04
  3.315487e-02    5.462342e-04
  3.345380e-02    5.279788e-04
  3.375273e-02    5.147583e-04
  3.405166e-02    5.014613e-04
  3.435059e-02    4.836240e-04
  3.464952e-02    4.704403e-04
  3.494845e-02    4.604175e-04
  3.524738e-02    4.413645e-04
  3.554631e-02    4.270291e-04
  3.584524e-02    4.128327e-04
  3.614417e-02    4.077241e-04
  3.644310e-02    3.986564e-04
  3.674204e-02    3.896118e-04
  3.704097e-02    3.740877e-04
  3.733990e-02    3.660322e-04
  3.763883e-02    3.583128e-04
  3.793776e-02    3.469772e-04
  3.823669e-02    3.388195e-04
  3.853562e-02    3.301640e-04
  3.883455e-02    3.283166e-04
  3.913348e-02    3.202757e-04
  3.943241e-02    3.076782e-04
  3.973134e-02    3.029063e-04
  4.003027e-02    2.948251e-04
  4.032920e-02    2.915414e-04
  4.062813e-02    2.880246e-04
  4.092706e-02    2.801217e-04
  4.122599e-02    2.705714e-04
  4.152492e-02    2.700831e-04
  4.182385e-02    2.632538e-04
  4.212278e-02    2.555413e-04
  4.242171e-02    2.507696e-04
  4.272064e-02    2.451607e-04
  4.301957e-02    2.413087e-04
  4.331850e-02    2.410196e-04
  4.361743e-02    2.365603e-04
  4.391636e-02    2.300431e-04
  4.421529e-02    2.290066e-04
  4.451423e-02    2.264317e-04
  4.481316e-02    2.246139e-04
  4.511209e-02    2.189820e-04
  4.541102e-02    2.159805e-04
  4.570995e-02    2.140773e-04
  4.600888e-02    2.091913e-04
  4.630781e-02    2.076152e-04
  4.660674e-02    2.049094e-04
  4.690567e-02    2.021667e-04
  4.720460e-02    1.995904e-04
  4.750353e-02    1.962262e-04
  4.780246e-02    1.920073e-04
  4.810139e-02    1.884556e-04
  4.840032e-02    1.861976e-04
  4.869925e-02    1.843387e-04
  4.899818e-02    1.861505e-04
  4.929711e-02    1.842964e-04
  4.959604e-02    1.813428e-04
  4.989497e-02    1.781402e-04
  5.019390e-02    1.780501e-04
  5.049283e-02    1.756957e-04
  5.079176e-02    1.733171e-04
  5.109069e-02    1.737862e-04
  5.138962e-02    1.711579e-04
  5.168855e-02    1.730978e-04
  5.198748e-02    1.734404e-04
  5.228642e-02    1.743802e-04
  5.258535e-02    1.687578e-04
  5.288428e-02    1.667908e-04
  5.318321e-02    1.653544e-04
  5.348214e-02    1.647120e-04
  5.378107e-02    1.632556e-04
  5.408000e-02    1.612577e-04
  5.437893e-02    1.575921e-04
  5.467786e-02    1.552965e-04
  5.497679e-02    1.577479e-04
  5.527572e-02    1.564879e-04
  5.557465e-02    1.553364e-04
  5.587358e-02    1.570153e-04
  5.617251e-02    1.541143e-04
  5.647144e-02    1.521619e-04
  5.677037e-02    1.521358e-04
  5.706930e-02    1.497255e-04
  5.736823e-02    1.492713e-04
  5.766716e-02    1.479501e-04
  5.796609e-02    1.488672e-04
  5.826502e-02    1.453021e-04
  5.856395e-02    1.469177e-04
  5.886288e-02    1.471057e-04
  5.916181e-02    1.446438e-04
  5.946074e-02    1.449877e-04
  5.975967e-02    1.451288e-04
  6.005861e-02    1.467733e-04
  6.035754e-02    1.464520e-04
  6.065647e-02    1.434574e-04
  6.095540e-02    1.444424e-04
  6.125433e-02    1.449349e-04
  6.155326e-02    1.422664e-04
  6.185219e-02    1.413740e-04
  6.215112e-02    1.401278e-04
  6.245005e-02    1.402363e-04
  6.274898e-02    1.414503e-04
  6.304791e-02    1.373257e-04
  6.334684e-02    1.355911e-04
  6.364577e-02    1.360857e-04
  6.394470e-02    1.384639e-04
  6.424363e-02    1.380212e-04
  6.454256e-02    1.362699e-04
  6.484149e-02    1.371090e-04
  6.514042e-02    1.384503e-04
  6.543935e-02    1.380486e-04
  6.573828e-02    1.390015e-04
  6.603721e-02    1.388530e-04
  6.633614e-02    1.386383e-04
  6.663507e-02    1.362891e-04
  6.693400e-02    1.357436e-04
  6.723293e-02    1.334695e-04
  6.753186e-02    1.339162e-04
  6.783080e-02    1.346110e-04
  6.812973e-02    1.331820e-04
  6.842866e-02    1.319512e-04
  6.872759e-02    1.323340e-04
  6.902652e-02    1.319699e-04
  6.932545e-02    1.328111e-04
  6.962438e-02    1.313905e-04
  6.992331e-02    1.305481e-04
  7.022224e-02    1.304353e-04
  7.052117e-02    1.329746e-04
  7.082010e-02    1.348388e-04
  7.111903e-02    1.342754e-04
  7.141796e-02    1.328468e-04
  7.171689e-02    1.308408e-04
  7.201582e-02    1.306523e-04
  7.231475e-02    1.320509e-04
  7.261368e-02    1.301967e-04
  7.291261e-02    1.294055e-04
  7.321154e-02    1.287819e-04
  7.351047e-02    1.295956e-04
  7.380940e-02    1.303432e-04
  7.410833e-02    1.308120e-04
  7.440726e-02    1.280032e-04
  7.470619e-02    1.256069e-04
  7.500512e-02    1.273010e-04
  7.530405e-02    1.281420e-04
  7.560299e-02    1.283277e-04
  7.590192e-02    1.300836e-04
  7.620085e-02    1.288056e-04
  7.649978e-02    1.266301e-04
  7.679871e-02    1.273415e-04
  7.709764e-02    1.273656e-04
  7.739657e-02    1.279460e-04
  7.769550e-02    1.272924e-04
  7.799443e-02    1.271604e-04
  7.829336e-02    1.275137e-04
  7.859229e-02    1.272257e-04
  7.889122e-02    1.261133e-04
  7.919015e-02    1.258246e-04
  7.948908e-02    1.262050e-04
  7.978801e-02    1.268465e-04
  8.008694e-02    1.264747e-04
  8.038587e-02    1.245920e-04
  8.068480e-02    1.248235e-04
  8.098373e-02    1.243252e-04
  8.128266e-02    1.218206e-04
  8.158159e-02    1.209746e-04
  8.188052e-02    1.239248e-04
  8.217945e-02    1.237188e-04
  8.247838e-02    1.216970e-04
  8.277731e-02    1.220936e-04
  8.307624e-02    1.224050e-04
  8.337518e-02    1.218190e-04
  8.367411e-02    1.212400e-04
  8.397304e-02    1.211327e-04
  8.427197e-02    1.215473e-04
  8.457090e-02    1.218853e-04
  8.486983e-02    1.209786e-04
  8.516876e-02    1.194818e-04
  8.546769e-02    1.210464e-04
  8.576662e-02    1.194781e-04
  8.606555e-02    1.191953e-04
  8.636448e-02    1.215039e-04
  8.666341e-02    1.214737e-04
  8.696234e-02    1.192527e-04
  8.726127e-02    1.179455e-04
  8.756020e-02    1.162687e-04
  8.785913e-02    1.164388e-04
  8.815806e-02    1.172210e-04
  8.845699e-02    1.185274e-04
  8.875592e-02    1.196022e-04
  8.905485e-02    1.181472e-04
  8.935378e-02    1.168316e-04
  8.965271e-02    1.158951e-04
  8.995164e-02    1.154624e-04
  9.025057e-02    1.142177e-04
  9.054950e-02    1.147077e-04
  9.084843e-02    1.139714e-04
  9.114737e-02    1.143505e-04
  9.144630e-02    1.143154e-04
  9.174523e-02    1.136922e-04
  9.204416e-02    1.118437e-04
  9.234309e-02    1.124697e-04
  9.264202e-02    1.128877e-04
  9.294095e-02    1.099225e-04
  9.323988e-02    1.115184e-04
  9.353881e-02    1.125905e-04
  9.383774e-02    1.123242e-04
  9.413667e-02    1.108406e-04
  9.443560e-02    1.103096e-04
  9.473453e-02    1.100375e-04
  9.503346e-02    1.105826e-04
  9.533239e-02    1.113221e-04
  9.563132e-02    1.095746e-04
  9.593025e-02    1.086515e-04
  9.622918e-02    1.088378e-04
  9.652811e-02    1.095340e-04
  9.682704e-02    1.073738e-04
  9.712597e-02    1.076170e-04
  9.742490e-02    1.089141e-04
  9.772383e-02    1.096289e-04
  9.802276e-02    1.097267e-04
  9.832169e-02    1.075779e-04
  9.862062e-02    1.067945e-04
  9.891956e-02    1.063905e-04
  9.921849e-02    1.059037e-04
  9.951742e-02    1.044557e-04
  9.981635e-02    1.040448e-04
  1.001153e-01    1.051789e-04
  1.004142e-01    1.044099e-04
  1.007131e-01    1.035369e-04
  1.010121e-01    1.043209e-04
  1.013110e-01    1.051332e-04
  1.016099e-01    1.043283e-04
  1.019089e-01    1.043175e-04
  1.022078e-01    1.048758e-04
  1.025067e-01    1.036988e-04
  1.028057e-01    1.017801e-04
  1.031046e-01    1.021537e-04
  1.034035e-01    1.028713e-04
  1.037024e-01    1.025726e-04
  1.040014e-01    1.018796e-04
  1.043003e-01    1.014408e-04
  1.045992e-01    1.001098e-04
  1.048982e-01    1.006049e-04
  1.051971e-01    1.010867e-04
  1.054960e-01    1.006379e-04
  1.057950e-01    9.997816e-05
  1.060939e-01    9.977000e-05
  1.063928e-01    1.001327e-04
  1.066917e-01    9.900085e-05
  1.069907e-01    9.908889e-05
  1.072896e-01    9.939533e-05
  1.075885e-01    9.826950e-05
  1.078875e-01    9.865954e-05
  1.081864e-01    1.003821e-04
  1.084853e-01    9.966487e-05
  1.087843e-01    9.845602e-05
  1.090832e-01    9.771452e-05
  1.093821e-01    1.012653e-04
  1.096810e-01    1.007105e-04
  1.099800e-01    1.010686e-04
  1.102789e-01    1.008570e-04
  1.105778e-01    9.999319e-05
  1.108768e-01    9.813639e-05
  1.111757e-01    9.626873e-05
  1.114746e-01    9.651331e-05
  1.117736e-01    9.743610e-05
  1.120725e-01    9.847607e-05
  1.123714e-01    9.689153e-05
  1.126704e-01    9.432276e-05
  1.129693e-01    9.372877e-05
  1.132682e-01    9.552173e-05
  1.135671e-01    9.489960e-05
  1.138661e-01    9.129041e-05
  1.141650e-01    9.236833e-05
  1.144639e-01    9.209179e-05
  1.147629e-01    8.848441e-05
  1.150618e-01    9.337572e-05
  1.153607e-01    9.433025e-05
  1.156597e-01    9.254698e-05
  1.159586e-01    9.126193e-05
  1.162575e-01    8.770851e-05
  1.165564e-01    8.797354e-05
  1.168554e-01    9.281431e-05
  1.171543e-01    8.811314e-05
  1.174532e-01    8.272709e-05
  1.177522e-01    8.898443e-05
  1.180511e-01    9.395485e-05
  1.183500e-01    9.074689e-05
  1.186490e-01    9.162663e-05
  1.189479e-01    9.090676e-05
  1.192468e-01    8.721824e-05
  1.195458e-01    8.619497e-05
  1.198447e-01    8.549128e-05
  1.201436e-01    8.243689e-05
  1.204425e-01    7.589375e-05
  1.207415e-01    8.415334e-05
  1.210404e-01    1.312151e-04
  1.213393e-01    0.000000e+00
  1.216383e-01    0.000000e+00
  1.219372e-01    0.000000e+00
  1.222361e-01    0.000000e+00
  1.225351e-01    0.000000e+00
  1.228340e-01    0.000000e+00
  1.231329e-01    0.000000e+00
  1.234318e-01    0.000000e+00
  1.237308e-01    0.000000e+00
  1.240297e-01    0.000000e+00
  1.243286e-01    0.000000e+00
  1.246276e-01    0.000000e+00
  1.249265e-01    0.000000e+00
  1.252254e-01    0.000000e+00
  1.255244e-01    0.000000e+00
  1.258233e-01    0.000000e+00
  1.261222e-01    0.000000e+00
  1.264212e-01    0.000000e+00
  1.267201e-01    0.000000e+00
  1.270190e-01    0.000000e+00
  1.273179e-01    0.000000e+00
  1.276169e-01    0.000000e+00
  1.279158e-01    0.000000e+00
  1.282147e-01    0.000000e+00
  1.285137e-01    0.000000e+00
  1.288126e-01    0.000000e+00
  1.291115e-01    0.000000e+00
  1.294105e-01    0.000000e+00
  1.297094e-01    0.000000e+00
  1.300083e-01    0.000000e+00
  1.303072e-01    0.000000e+00
  1.306062e-01    0.000000e+00
  1.309051e-01    0.000000e+00
  1.312040e-01    0.000000e+00
  1.315030e-01    0.000000e+00
  1.318019e-01    0.000000e+00
  1.321008e-01    0.000000e+00
  1.323998e-01    0.000000e+00
  1.326987e-01    0.000000e+00
  1.329976e-01    0.000000e+00
  1.332965e-01    0.000000e+00
  1.335955e-01    0.000000e+00
  1.338944e-01    0.000000e+00
  1.341933e-01    0.000000e+00
  1.344923e-01    0.000000e+00
  1.347912e-01    0.000000e+00
  1.350901e-01    0.000000e+00
  1.353891e-01    0.000000e+00
  1.356880e-01    0.000000e+00
  1.359869e-01    0.000000e+00
  1.362859e-01    0.000000e+00
  1.365848e-01    0.000000e+00
  1.368837e-01    0.000000e+00
  1.371826e-01    0.000000e+00
  1.374816e-01    0.000000e+00
  1.377805e-01    0.000000e+00
  1.380794e-01    0.000000e+00
  1.383784e-01    0.000000e+00
  1.386773e-01    0.000000e+00
  1.389762e-01    0.000000e+00
  1.392752e-01    0.000000e+00
  1.395741e-01    0.000000e+00
  1.398730e-01    0.000000e+00
  1.401719e-01    0.000000e+00
  1.404709e-01    0.000000e+00
  1.407698e-01    0.000000e+00
  1.410687e-01    0.000000e+00
  1.413677e-01    0.000000e+00
  1.416666e-01    0.000000e+00
  1.419655e-01    0.000000e+00
  1.422645e-01    0.000000e+00
  1.425634e-01    0.000000e+00
  1.428623e-01    0.000000e+00
  1.431613e-01    0.000000e+00
  1.434602e-01    0.000000e+00
  1.437591e-01    0.000000e+00
  1.440580e-01    0.000000e+00
  1.443570e-01    0.000000e+00
  1.446559e-01    0.000000e+00
  1.449548e-01    0.000000e+00
  1.452538e-01    0.000000e+00
  1.455527e-01    0.000000e+00
  1.458516e-01    0.000000e+00
  1.461506e-01    0.000000e+00
  1.464495e-01    0.000000e+00
  1.467484e-01    0.000000e+00
  1.470473e-01    0.000000e+00
  1.473463e-01    0.000000e+00
  1.476452e-01    0.000000e+00
  1.479441e-01    0.000000e+00
  1.482431e-01    0.000000e+00
  1.485420e-01    0.000000e+00
  1.488409e-01    0.000000e+00
  1.491399e-01    0.000000e+00
  1.494388e-01    0.000000e+00
  1.497377e-01    0.000000e+00
  1.500367e-01    0.000000e+00
  1.503356e-01    0.000000e+00
  1.506345e-01    0.000000e+00
  1.509334e-01    0.000000e+00
  1.512324e-01    0.000000e+00
  1.515313e-01    0.000000e+00
  1.518302e-01    0.000000e+00
  1.521292e-01    0.000000e+00
  1.524281e-01    0.000000e+00
  1.527270e-01    0.000000e+00
  1.530260e-01    0.000000e+00
  1.533249e-01    0.000000e+00
  1.536238e-01    0.000000e+00
