# == pyFAI calibration ==
# Distance Sample to Detector: 2.266 m
# PONI: 5.659e-02, 4.293e-02 m
# Rotations: 0.000000 0.000000 0.000000 rad
# 
# == Fit2d calibration ==
# Distance Sample-beamCenter: 2266.000 mm
# Center: x=249.594, y=329.012 pix
# Tilt: 0.000 deg  TiltPlanRot: 0.000 deg
# 
# Detector Pilatus 300k	 PixelSize= 1.720e-04, 1.720e-04 m
#    Detector has a mask: True 
#    Detector has a dark current: False 
#    detector has a flat field: False 
# 
# Wavelength: 1.27818e-10 m
# Mask applied: user provided
# Dark current applied: False
# Flat field applied: False
# Polarization factor: None
# Normalization factor: 2491470.4
# --> AL_F127_220226_53cf49ff-a028-47e9-a3d5-aa78e6cc82d3_2_r1d.csv
#        q_A^-1             I 
  4.457554e-03    2.293455e-03
  4.756484e-03    1.798204e-03
  5.055415e-03    1.259089e-03
  5.354345e-03    8.693732e-04
  5.653276e-03    6.560174e-04
  5.952206e-03    1.012433e-03
  6.251136e-03    9.264569e-04
  6.550067e-03    8.094729e-04
  6.848997e-03    6.902059e-04
  7.147927e-03    5.847730e-04
  7.446858e-03    5.008129e-04
  7.745788e-03    4.296279e-04
  8.044719e-03    3.709459e-04
  8.343649e-03    3.247991e-04
  8.642579e-03    2.834201e-04
  8.941510e-03    2.496247e-04
  9.240440e-03    2.215783e-04
  9.539371e-03    1.969774e-04
  9.838301e-03    1.751186e-04
  1.013723e-02    1.574542e-04
  1.043616e-02    1.422745e-04
  1.073509e-02    1.282245e-04
  1.103402e-02    1.162058e-04
  1.133295e-02    1.052655e-04
  1.163188e-02    9.654453e-05
  1.193081e-02    8.839454e-05
  1.222974e-02    8.099412e-05
  1.252867e-02    7.425409e-05
  1.282760e-02    6.835869e-05
  1.312654e-02    6.320092e-05
  1.342547e-02    5.831513e-05
  1.372440e-02    5.448798e-05
  1.402333e-02    5.082034e-05
  1.432226e-02    4.717295e-05
  1.462119e-02    4.412660e-05
  1.492012e-02    4.130571e-05
  1.521905e-02    3.876187e-05
  1.551798e-02    3.649363e-05
  1.581691e-02    3.449786e-05
  1.611584e-02    3.292786e-05
  1.641477e-02    3.078037e-05
  1.671370e-02    2.899964e-05
  1.701263e-02    2.765731e-05
  1.731156e-02    2.632875e-05
  1.761049e-02    2.500967e-05
  1.790942e-02    2.413125e-05
  1.820835e-02    2.315432e-05
  1.850728e-02    2.203869e-05
  1.880621e-02    2.118380e-05
  1.910514e-02    2.038956e-05
  1.940407e-02    1.973091e-05
  1.970300e-02    1.901063e-05
  2.000193e-02    1.829218e-05
  2.030086e-02    1.757586e-05
  2.059979e-02    1.694122e-05
  2.089873e-02    1.640101e-05
  2.119766e-02    1.618753e-05
  2.149659e-02    1.553149e-05
  2.179552e-02    1.497238e-05
  2.209445e-02    1.462809e-05
  2.239338e-02    1.429816e-05
  2.269231e-02    1.421005e-05
  2.299124e-02    1.383374e-05
  2.329017e-02    1.348159e-05
  2.358910e-02    1.314639e-05
  2.388803e-02    1.274735e-05
  2.418696e-02    1.246681e-05
  2.448589e-02    1.227745e-05
  2.478482e-02    1.209724e-05
  2.508375e-02    1.206035e-05
  2.538268e-02    1.185236e-05
  2.568161e-02    1.149689e-05
  2.598054e-02    1.126514e-05
  2.627947e-02    1.124269e-05
  2.657840e-02    1.112219e-05
  2.687733e-02    1.092847e-05
  2.717626e-02    1.085648e-05
  2.747519e-02    1.076267e-05
  2.777412e-02    1.069615e-05
  2.807305e-02    1.047727e-05
  2.837198e-02    1.036815e-05
  2.867092e-02    1.027087e-05
  2.896985e-02    1.014115e-05
  2.926878e-02    1.008667e-05
  2.956771e-02    9.980477e-06
  2.986664e-02    9.906753e-06
  3.016557e-02    9.880967e-06
  3.046450e-02    9.765344e-06
  3.076343e-02    9.647608e-06
  3.106236e-02    9.580355e-06
  3.136129e-02    9.476767e-06
  3.166022e-02    9.394447e-06
  3.195915e-02    9.320530e-06
  3.225808e-02    9.283776e-06
  3.255701e-02    9.219073e-06
  3.285594e-02    9.058931e-06
  3.315487e-02    9.088706e-06
  3.345380e-02    9.037141e-06
  3.375273e-02    8.897639e-06
  3.405166e-02    8.812863e-06
  3.435059e-02    8.766538e-06
  3.464952e-02    8.690388e-06
  3.494845e-02    8.543593e-06
  3.524738e-02    8.545770e-06
  3.554631e-02    8.482630e-06
  3.584524e-02    8.338137e-06
  3.614417e-02    8.350892e-06
  3.644310e-02    8.390369e-06
  3.674204e-02    8.250773e-06
  3.704097e-02    8.182818e-06
  3.733990e-02    8.242009e-06
  3.763883e-02    8.094947e-06
  3.793776e-02    7.855782e-06
  3.823669e-02    7.873668e-06
  3.853562e-02    7.882340e-06
  3.883455e-02    7.834165e-06
  3.913348e-02    7.806770e-06
  3.943241e-02    7.908029e-06
  3.973134e-02    7.819712e-06
  4.003027e-02    7.676431e-06
  4.032920e-02    7.671948e-06
  4.062813e-02    7.550585e-06
  4.092706e-02    7.546299e-06
  4.122599e-02    7.560567e-06
  4.152492e-02    7.491300e-06
  4.182385e-02    7.426638e-06
  4.212278e-02    7.480825e-06
  4.242171e-02    7.488934e-06
  4.272064e-02    7.399764e-06
  4.301957e-02    7.368864e-06
  4.331850e-02    7.410575e-06
  4.361743e-02    7.418540e-06
  4.391636e-02    7.400334e-06
  4.421529e-02    7.323607e-06
  4.451423e-02    7.330741e-06
  4.481316e-02    7.299609e-06
  4.511209e-02    7.294108e-06
  4.541102e-02    7.230623e-06
  4.570995e-02    7.208352e-06
  4.600888e-02    7.242959e-06
  4.630781e-02    7.241327e-06
  4.660674e-02    7.222789e-06
  4.690567e-02    7.239841e-06
  4.720460e-02    7.193675e-06
  4.750353e-02    7.200717e-06
  4.780246e-02    7.179389e-06
  4.810139e-02    7.176907e-06
  4.840032e-02    7.205898e-06
  4.869925e-02    7.287687e-06
  4.899818e-02    7.241045e-06
  4.929711e-02    7.171797e-06
  4.959604e-02    7.279977e-06
  4.989497e-02    7.263158e-06
  5.019390e-02    7.295145e-06
  5.049283e-02    7.225822e-06
  5.079176e-02    7.233215e-06
  5.109069e-02    7.241383e-06
  5.138962e-02    7.377284e-06
  5.168855e-02    7.472891e-06
  5.198748e-02    7.522854e-06
  5.228642e-02    7.437647e-06
  5.258535e-02    7.203507e-06
  5.288428e-02    7.117028e-06
  5.318321e-02    7.120304e-06
  5.348214e-02    7.134652e-06
  5.378107e-02    7.147487e-06
  5.408000e-02    7.147964e-06
  5.437893e-02    7.182472e-06
  5.467786e-02    7.173986e-06
  5.497679e-02    7.145627e-06
  5.527572e-02    7.079201e-06
  5.557465e-02    7.144474e-06
  5.587358e-02    7.163856e-06
  5.617251e-02    7.117017e-06
  5.647144e-02    7.179108e-06
  5.677037e-02    7.168625e-06
  5.706930e-02    7.163470e-06
  5.736823e-02    7.168979e-06
  5.766716e-02    7.101945e-06
  5.796609e-02    7.161561e-06
  5.826502e-02    7.200016e-06
  5.856395e-02    7.164660e-06
  5.886288e-02    7.151309e-06
  5.916181e-02    7.103539e-06
  5.946074e-02    7.051674e-06
  5.975967e-02    7.128567e-06
  6.005861e-02    7.144463e-06
  6.035754e-02    7.219246e-06
  6.065647e-02    7.221499e-06
  6.095540e-02    7.322880e-06
  6.125433e-02    7.406456e-06
  6.155326e-02    7.458337e-06
  6.185219e-02    7.362688e-06
  6.215112e-02    7.262573e-06
  6.245005e-02    7.293140e-06
  6.274898e-02    7.287688e-06
  6.304791e-02    7.242922e-06
  6.334684e-02    7.238749e-06
  6.364577e-02    7.212318e-06
  6.394470e-02    7.276526e-06
  6.424363e-02    7.278099e-06
  6.454256e-02    7.264042e-06
  6.484149e-02    7.365132e-06
  6.514042e-02    7.263158e-06
  6.543935e-02    7.250277e-06
  6.573828e-02    7.363811e-06
  6.603721e-02    7.378630e-06
  6.633614e-02    7.372043e-06
  6.663507e-02    7.323461e-06
  6.693400e-02    7.337228e-06
  6.723293e-02    7.355949e-06
  6.753186e-02    7.364320e-06
  6.783080e-02    7.332345e-06
  6.812973e-02    7.295046e-06
  6.842866e-02    7.379894e-06
  6.872759e-02    7.365307e-06
  6.902652e-02    7.311585e-06
  6.932545e-02    7.361025e-06
  6.962438e-02    7.387085e-06
  6.992331e-02    7.368914e-06
  7.022224e-02    7.442677e-06
  7.052117e-02    7.376078e-06
  7.082010e-02    7.353611e-06
  7.111903e-02    7.388481e-06
  7.141796e-02    7.406194e-06
  7.171689e-02    7.458869e-06
  7.201582e-02    7.496551e-06
  7.231475e-02    7.539926e-06
  7.261368e-02    7.439310e-06
  7.291261e-02    7.411791e-06
  7.321154e-02    7.497533e-06
  7.351047e-02    7.535068e-06
  7.380940e-02    7.520398e-06
  7.410833e-02    7.523781e-06
  7.440726e-02    7.445056e-06
  7.470619e-02    7.477011e-06
  7.500512e-02    7.525709e-06
  7.530405e-02    7.534105e-06
  7.560299e-02    7.540188e-06
  7.590192e-02    7.549032e-06
  7.620085e-02    7.548460e-06
  7.649978e-02    7.508765e-06
  7.679871e-02    7.499846e-06
  7.709764e-02    7.419928e-06
  7.739657e-02    7.459915e-06
  7.769550e-02    7.484753e-06
  7.799443e-02    7.491649e-06
  7.829336e-02    7.588335e-06
  7.859229e-02    7.522616e-06
  7.889122e-02    7.469837e-06
  7.919015e-02    7.468496e-06
  7.948908e-02    7.451220e-06
  7.978801e-02    7.418640e-06
  8.008694e-02    7.421200e-06
  8.038587e-02    7.460269e-06
  8.068480e-02    7.463986e-06
  8.098373e-02    7.392438e-06
  8.128266e-02    7.346107e-06
  8.158159e-02    7.410522e-06
  8.188052e-02    7.406780e-06
  8.217945e-02    7.374630e-06
  8.247838e-02    7.329499e-06
  8.277731e-02    7.368040e-06
  8.307624e-02    7.433163e-06
  8.337518e-02    7.363179e-06
  8.367411e-02    7.299267e-06
  8.397304e-02    7.356105e-06
  8.427197e-02    7.345328e-06
  8.457090e-02    7.355409e-06
  8.486983e-02    7.375631e-06
  8.516876e-02    7.427996e-06
  8.546769e-02    7.395010e-06
  8.576662e-02    7.345024e-06
  8.606555e-02    7.342491e-06
  8.636448e-02    7.348820e-06
  8.666341e-02    7.345303e-06
  8.696234e-02    7.295095e-06
  8.726127e-02    7.282791e-06
  8.756020e-02    7.226999e-06
  8.785913e-02    7.213563e-06
  8.815806e-02    7.249549e-06
  8.845699e-02    7.264379e-06
  8.875592e-02    7.254610e-06
  8.905485e-02    7.276890e-06
  8.935378e-02    7.228072e-06
  8.965271e-02    7.194601e-06
  8.995164e-02    7.217018e-06
  9.025057e-02    7.156154e-06
  9.054950e-02    7.115316e-06
  9.084843e-02    7.159279e-06
  9.114737e-02    7.138211e-06
  9.144630e-02    7.107269e-06
  9.174523e-02    7.076676e-06
  9.204416e-02    7.023728e-06
  9.234309e-02    7.063195e-06
  9.264202e-02    7.111871e-06
  9.294095e-02    7.086234e-06
  9.323988e-02    7.020568e-06
  9.353881e-02    7.072442e-06
  9.383774e-02    7.072817e-06
  9.413667e-02    6.989562e-06
  9.443560e-02    7.047604e-06
  9.473453e-02    7.058180e-06
  9.503346e-02    7.079458e-06
  9.533239e-02    7.027743e-06
  9.563132e-02    6.999448e-06
  9.593025e-02    7.016574e-06
  9.622918e-02    7.039906e-06
  9.652811e-02    7.018230e-06
  9.682704e-02    7.041560e-06
  9.712597e-02    7.134508e-06
  9.742490e-02    7.091045e-06
  9.772383e-02    7.003687e-06
  9.802276e-02    7.039039e-06
  9.832169e-02    7.044735e-06
  9.862062e-02    6.925715e-06
  9.891956e-02    6.887585e-06
  9.921849e-02    6.840306e-06
  9.951742e-02    6.810209e-06
  9.981635e-02    6.818487e-06
  1.001153e-01    6.811551e-06
  1.004142e-01    6.841612e-06
  1.007131e-01    6.772980e-06
  1.010121e-01    6.749741e-06
  1.013110e-01    6.760177e-06
  1.016099e-01    6.791055e-06
  1.019089e-01    6.766786e-06
  1.022078e-01    6.729390e-06
  1.025067e-01    6.775213e-06
  1.028057e-01    6.841126e-06
  1.031046e-01    6.784909e-06
  1.034035e-01    6.746237e-06
  1.037024e-01    6.797233e-06
  1.040014e-01    6.753998e-06
  1.043003e-01    6.685296e-06
  1.045992e-01    6.687812e-06
  1.048982e-01    6.699132e-06
  1.051971e-01    6.678838e-06
  1.054960e-01    6.604967e-06
  1.057950e-01    6.680521e-06
  1.060939e-01    6.707066e-06
  1.063928e-01    6.591242e-06
  1.066917e-01    6.621848e-06
  1.069907e-01    6.674429e-06
  1.072896e-01    6.684095e-06
  1.075885e-01    6.698363e-06
  1.078875e-01    6.604075e-06
  1.081864e-01    6.558324e-06
  1.084853e-01    6.575073e-06
  1.087843e-01    6.589056e-06
  1.090832e-01    6.654118e-06
  1.093821e-01    6.669904e-06
  1.096810e-01    6.631653e-06
  1.099800e-01    6.583045e-06
  1.102789e-01    6.573374e-06
  1.105778e-01    6.600621e-06
  1.108768e-01    6.519343e-06
  1.111757e-01    6.472987e-06
  1.114746e-01    6.486111e-06
  1.117736e-01    6.484039e-06
  1.120725e-01    6.474578e-06
  1.123714e-01    6.434662e-06
  1.126704e-01    6.402187e-06
  1.129693e-01    6.340346e-06
  1.132682e-01    6.358761e-06
  1.135671e-01    6.384369e-06
  1.138661e-01    6.381902e-06
  1.141650e-01    6.373371e-06
  1.144639e-01    6.361375e-06
  1.147629e-01    6.389763e-06
  1.150618e-01    6.396178e-06
  1.153607e-01    6.167927e-06
  1.156597e-01    6.107848e-06
  1.159586e-01    6.251964e-06
  1.162575e-01    6.355940e-06
  1.165564e-01    6.374273e-06
  1.168554e-01    6.369157e-06
  1.171543e-01    6.326105e-06
  1.174532e-01    6.284906e-06
  1.177522e-01    6.194490e-06
  1.180511e-01    6.109557e-06
  1.183500e-01    6.145166e-06
  1.186490e-01    6.427434e-06
  1.189479e-01    6.350573e-06
  1.192468e-01    6.173317e-06
  1.195458e-01    6.080347e-06
  1.198447e-01    6.122609e-06
  1.201436e-01    6.128988e-06
  1.204425e-01    6.226109e-06
  1.207415e-01    6.787565e-06
  1.210404e-01    4.820795e-06
  1.213393e-01    0.000000e+00
  1.216383e-01    0.000000e+00
  1.219372e-01    0.000000e+00
  1.222361e-01    0.000000e+00
  1.225351e-01    0.000000e+00
  1.228340e-01    0.000000e+00
  1.231329e-01    0.000000e+00
  1.234318e-01    0.000000e+00
  1.237308e-01    0.000000e+00
  1.240297e-01    0.000000e+00
  1.243286e-01    0.000000e+00
  1.246276e-01    0.000000e+00
  1.249265e-01    0.000000e+00
  1.252254e-01    0.000000e+00
  1.255244e-01    0.000000e+00
  1.258233e-01    0.000000e+00
  1.261222e-01    0.000000e+00
  1.264212e-01    0.000000e+00
  1.267201e-01    0.000000e+00
  1.270190e-01    0.000000e+00
  1.273179e-01    0.000000e+00
  1.276169e-01    0.000000e+00
  1.279158e-01    0.000000e+00
  1.282147e-01    0.000000e+00
  1.285137e-01    0.000000e+00
  1.288126e-01    0.000000e+00
  1.291115e-01    0.000000e+00
  1.294105e-01    0.000000e+00
  1.297094e-01    0.000000e+00
  1.300083e-01    0.000000e+00
  1.303072e-01    0.000000e+00
  1.306062e-01    0.000000e+00
  1.309051e-01    0.000000e+00
  1.312040e-01    0.000000e+00
  1.315030e-01    0.000000e+00
  1.318019e-01    0.000000e+00
  1.321008e-01    0.000000e+00
  1.323998e-01    0.000000e+00
  1.326987e-01    0.000000e+00
  1.329976e-01    0.000000e+00
  1.332965e-01    0.000000e+00
  1.335955e-01    0.000000e+00
  1.338944e-01    0.000000e+00
  1.341933e-01    0.000000e+00
  1.344923e-01    0.000000e+00
  1.347912e-01    0.000000e+00
  1.350901e-01    0.000000e+00
  1.353891e-01    0.000000e+00
  1.356880e-01    0.000000e+00
  1.359869e-01    0.000000e+00
  1.362859e-01    0.000000e+00
  1.365848e-01    0.000000e+00
  1.368837e-01    0.000000e+00
  1.371826e-01    0.000000e+00
  1.374816e-01    0.000000e+00
  1.377805e-01    0.000000e+00
  1.380794e-01    0.000000e+00
  1.383784e-01    0.000000e+00
  1.386773e-01    0.000000e+00
  1.389762e-01    0.000000e+00
  1.392752e-01    0.000000e+00
  1.395741e-01    0.000000e+00
  1.398730e-01    0.000000e+00
  1.401719e-01    0.000000e+00
  1.404709e-01    0.000000e+00
  1.407698e-01    0.000000e+00
  1.410687e-01    0.000000e+00
  1.413677e-01    0.000000e+00
  1.416666e-01    0.000000e+00
  1.419655e-01    0.000000e+00
  1.422645e-01    0.000000e+00
  1.425634e-01    0.000000e+00
  1.428623e-01    0.000000e+00
  1.431613e-01    0.000000e+00
  1.434602e-01    0.000000e+00
  1.437591e-01    0.000000e+00
  1.440580e-01    0.000000e+00
  1.443570e-01    0.000000e+00
  1.446559e-01    0.000000e+00
  1.449548e-01    0.000000e+00
  1.452538e-01    0.000000e+00
  1.455527e-01    0.000000e+00
  1.458516e-01    0.000000e+00
  1.461506e-01    0.000000e+00
  1.464495e-01    0.000000e+00
  1.467484e-01    0.000000e+00
  1.470473e-01    0.000000e+00
  1.473463e-01    0.000000e+00
  1.476452e-01    0.000000e+00
  1.479441e-01    0.000000e+00
  1.482431e-01    0.000000e+00
  1.485420e-01    0.000000e+00
  1.488409e-01    0.000000e+00
  1.491399e-01    0.000000e+00
  1.494388e-01    0.000000e+00
  1.497377e-01    0.000000e+00
  1.500367e-01    0.000000e+00
  1.503356e-01    0.000000e+00
  1.506345e-01    0.000000e+00
  1.509334e-01    0.000000e+00
  1.512324e-01    0.000000e+00
  1.515313e-01    0.000000e+00
  1.518302e-01    0.000000e+00
  1.521292e-01    0.000000e+00
  1.524281e-01    0.000000e+00
  1.527270e-01    0.000000e+00
  1.530260e-01    0.000000e+00
  1.533249e-01    0.000000e+00
  1.536238e-01    0.000000e+00
