# == pyFAI calibration ==
# Distance Sample to Detector: 2.266 m
# PONI: 5.659e-02, 4.293e-02 m
# Rotations: 0.000000 0.000000 0.000000 rad
# 
# == Fit2d calibration ==
# Distance Sample-beamCenter: 2266.000 mm
# Center: x=249.594, y=329.012 pix
# Tilt: 0.000 deg  TiltPlanRot: 0.000 deg
# 
# Detector Pilatus 300k	 PixelSize= 1.720e-04, 1.720e-04 m
#    Detector has a mask: True 
#    Detector has a dark current: False 
#    detector has a flat field: False 
# 
# Wavelength: 1.27818e-10 m
# Mask applied: user provided
# Dark current applied: False
# Flat field applied: False
# Polarization factor: None
# Normalization factor: 4206750.000000001
# --> AL_F127_220301_1dd18f48-ed0b-4376-965e-40f8be0f1c89_1_r1d.csv
#        q_A^-1             I 
  4.457554e-03    2.215288e-03
  4.756484e-03    1.740458e-03
  5.055415e-03    1.246940e-03
  5.354345e-03    8.576980e-04
  5.653276e-03    6.492033e-04
  5.952206e-03    9.991411e-04
  6.251136e-03    9.094452e-04
  6.550067e-03    7.889803e-04
  6.848997e-03    6.755862e-04
  7.147927e-03    5.742782e-04
  7.446858e-03    4.913733e-04
  7.745788e-03    4.234887e-04
  8.044719e-03    3.666453e-04
  8.343649e-03    3.223552e-04
  8.642579e-03    2.841463e-04
  8.941510e-03    2.512224e-04
  9.240440e-03    2.240002e-04
  9.539371e-03    2.008955e-04
  9.838301e-03    1.799677e-04
  1.013723e-02    1.625221e-04
  1.043616e-02    1.473768e-04
  1.073509e-02    1.335171e-04
  1.103402e-02    1.219799e-04
  1.133295e-02    1.122988e-04
  1.163188e-02    1.039859e-04
  1.193081e-02    9.566661e-05
  1.222974e-02    8.828630e-05
  1.252867e-02    8.210896e-05
  1.282760e-02    7.678578e-05
  1.312654e-02    7.216159e-05
  1.342547e-02    6.788631e-05
  1.372440e-02    6.362310e-05
  1.402333e-02    5.956552e-05
  1.432226e-02    5.641970e-05
  1.462119e-02    5.374317e-05
  1.492012e-02    5.098799e-05
  1.521905e-02    4.825126e-05
  1.551798e-02    4.629149e-05
  1.581691e-02    4.425283e-05
  1.611584e-02    4.260156e-05
  1.641477e-02    4.087532e-05
  1.671370e-02    3.915667e-05
  1.701263e-02    3.758492e-05
  1.731156e-02    3.628740e-05
  1.761049e-02    3.510915e-05
  1.790942e-02    3.411220e-05
  1.820835e-02    3.311178e-05
  1.850728e-02    3.211372e-05
  1.880621e-02    3.130262e-05
  1.910514e-02    3.078091e-05
  1.940407e-02    2.985393e-05
  1.970300e-02    2.907612e-05
  2.000193e-02    2.814357e-05
  2.030086e-02    2.745979e-05
  2.059979e-02    2.690239e-05
  2.089873e-02    2.612241e-05
  2.119766e-02    2.550718e-05
  2.149659e-02    2.498329e-05
  2.179552e-02    2.429255e-05
  2.209445e-02    2.373310e-05
  2.239338e-02    2.297252e-05
  2.269231e-02    2.224571e-05
  2.299124e-02    2.169964e-05
  2.329017e-02    2.121598e-05
  2.358910e-02    2.061671e-05
  2.388803e-02    1.995849e-05
  2.418696e-02    1.933064e-05
  2.448589e-02    1.870856e-05
  2.478482e-02    1.808821e-05
  2.508375e-02    1.746970e-05
  2.538268e-02    1.692110e-05
  2.568161e-02    1.636417e-05
  2.598054e-02    1.597531e-05
  2.627947e-02    1.533836e-05
  2.657840e-02    1.491637e-05
  2.687733e-02    1.446212e-05
  2.717626e-02    1.397390e-05
  2.747519e-02    1.359098e-05
  2.777412e-02    1.324622e-05
  2.807305e-02    1.305083e-05
  2.837198e-02    1.262324e-05
  2.867092e-02    1.229719e-05
  2.896985e-02    1.201567e-05
  2.926878e-02    1.177225e-05
  2.956771e-02    1.165843e-05
  2.986664e-02    1.151060e-05
  3.016557e-02    1.138335e-05
  3.046450e-02    1.115312e-05
  3.076343e-02    1.107838e-05
  3.106236e-02    1.093752e-05
  3.136129e-02    1.087325e-05
  3.166022e-02    1.076583e-05
  3.195915e-02    1.060146e-05
  3.225808e-02    1.059111e-05
  3.255701e-02    1.062723e-05
  3.285594e-02    1.049033e-05
  3.315487e-02    1.045167e-05
  3.345380e-02    1.051999e-05
  3.375273e-02    1.046576e-05
  3.405166e-02    1.048803e-05
  3.435059e-02    1.051086e-05
  3.464952e-02    1.051646e-05
  3.494845e-02    1.048036e-05
  3.524738e-02    1.046382e-05
  3.554631e-02    1.044988e-05
  3.584524e-02    1.045360e-05
  3.614417e-02    1.053560e-05
  3.644310e-02    1.059372e-05
  3.674204e-02    1.059982e-05
  3.704097e-02    1.063516e-05
  3.733990e-02    1.074850e-05
  3.763883e-02    1.082525e-05
  3.793776e-02    1.083382e-05
  3.823669e-02    1.084700e-05
  3.853562e-02    1.081973e-05
  3.883455e-02    1.087534e-05
  3.913348e-02    1.097977e-05
  3.943241e-02    1.107611e-05
  3.973134e-02    1.109333e-05
  4.003027e-02    1.121854e-05
  4.032920e-02    1.128533e-05
  4.062813e-02    1.142137e-05
  4.092706e-02    1.154530e-05
  4.122599e-02    1.164185e-05
  4.152492e-02    1.168429e-05
  4.182385e-02    1.168594e-05
  4.212278e-02    1.172506e-05
  4.242171e-02    1.186705e-05
  4.272064e-02    1.202340e-05
  4.301957e-02    1.211281e-05
  4.331850e-02    1.207533e-05
  4.361743e-02    1.214025e-05
  4.391636e-02    1.224477e-05
  4.421529e-02    1.233471e-05
  4.451423e-02    1.242497e-05
  4.481316e-02    1.248800e-05
  4.511209e-02    1.250513e-05
  4.541102e-02    1.258232e-05
  4.570995e-02    1.267895e-05
  4.600888e-02    1.282372e-05
  4.630781e-02    1.283319e-05
  4.660674e-02    1.283662e-05
  4.690567e-02    1.282258e-05
  4.720460e-02    1.280957e-05
  4.750353e-02    1.291747e-05
  4.780246e-02    1.295632e-05
  4.810139e-02    1.292189e-05
  4.840032e-02    1.300487e-05
  4.869925e-02    1.299389e-05
  4.899818e-02    1.305198e-05
  4.929711e-02    1.298676e-05
  4.959604e-02    1.291294e-05
  4.989497e-02    1.295991e-05
  5.019390e-02    1.298891e-05
  5.049283e-02    1.291565e-05
  5.079176e-02    1.291103e-05
  5.109069e-02    1.299302e-05
  5.138962e-02    1.295258e-05
  5.168855e-02    1.305710e-05
  5.198748e-02    1.304281e-05
  5.228642e-02    1.300492e-05
  5.258535e-02    1.272759e-05
  5.288428e-02    1.259256e-05
  5.318321e-02    1.267003e-05
  5.348214e-02    1.261019e-05
  5.378107e-02    1.258341e-05
  5.408000e-02    1.248991e-05
  5.437893e-02    1.242969e-05
  5.467786e-02    1.239509e-05
  5.497679e-02    1.233404e-05
  5.527572e-02    1.234625e-05
  5.557465e-02    1.228774e-05
  5.587358e-02    1.215016e-05
  5.617251e-02    1.205531e-05
  5.647144e-02    1.196972e-05
  5.677037e-02    1.189653e-05
  5.706930e-02    1.191114e-05
  5.736823e-02    1.180954e-05
  5.766716e-02    1.175729e-05
  5.796609e-02    1.173524e-05
  5.826502e-02    1.161384e-05
  5.856395e-02    1.152317e-05
  5.886288e-02    1.141781e-05
  5.916181e-02    1.143467e-05
  5.946074e-02    1.130885e-05
  5.975967e-02    1.123414e-05
  6.005861e-02    1.125704e-05
  6.035754e-02    1.127803e-05
  6.065647e-02    1.113155e-05
  6.095540e-02    1.109697e-05
  6.125433e-02    1.116677e-05
  6.155326e-02    1.109306e-05
  6.185219e-02    1.099661e-05
  6.215112e-02    1.080259e-05
  6.245005e-02    1.078200e-05
  6.274898e-02    1.073691e-05
  6.304791e-02    1.067193e-05
  6.334684e-02    1.065962e-05
  6.364577e-02    1.060502e-05
  6.394470e-02    1.057693e-05
  6.424363e-02    1.056636e-05
  6.454256e-02    1.048714e-05
  6.484149e-02    1.040931e-05
  6.514042e-02    1.041731e-05
  6.543935e-02    1.036977e-05
  6.573828e-02    1.028290e-05
  6.603721e-02    1.021919e-05
  6.633614e-02    1.013369e-05
  6.663507e-02    1.018388e-05
  6.693400e-02    1.009487e-05
  6.723293e-02    1.007970e-05
  6.753186e-02    1.007625e-05
  6.783080e-02    1.006354e-05
  6.812973e-02    9.994077e-06
  6.842866e-02    9.944372e-06
  6.872759e-02    9.934171e-06
  6.902652e-02    9.888295e-06
  6.932545e-02    9.838264e-06
  6.962438e-02    9.805613e-06
  6.992331e-02    9.812455e-06
  7.022224e-02    9.770110e-06
  7.052117e-02    9.715866e-06
  7.082010e-02    9.734572e-06
  7.111903e-02    9.720325e-06
  7.141796e-02    9.654069e-06
  7.171689e-02    9.611828e-06
  7.201582e-02    9.645672e-06
  7.231475e-02    9.642987e-06
  7.261368e-02    9.544036e-06
  7.291261e-02    9.479686e-06
  7.321154e-02    9.453011e-06
  7.351047e-02    9.468396e-06
  7.380940e-02    9.576554e-06
  7.410833e-02    9.526708e-06
  7.440726e-02    9.434065e-06
  7.470619e-02    9.388295e-06
  7.500512e-02    9.359806e-06
  7.530405e-02    9.355588e-06
  7.560299e-02    9.306726e-06
  7.590192e-02    9.270899e-06
  7.620085e-02    9.300394e-06
  7.649978e-02    9.254567e-06
  7.679871e-02    9.193443e-06
  7.709764e-02    9.254869e-06
  7.739657e-02    9.204550e-06
  7.769550e-02    9.184633e-06
  7.799443e-02    9.139811e-06
  7.829336e-02    9.107119e-06
  7.859229e-02    9.072291e-06
  7.889122e-02    9.063880e-06
  7.919015e-02    9.055874e-06
  7.948908e-02    9.021332e-06
  7.978801e-02    9.023452e-06
  8.008694e-02    9.033017e-06
  8.038587e-02    9.004350e-06
  8.068480e-02    8.935960e-06
  8.098373e-02    8.917345e-06
  8.128266e-02    8.863406e-06
  8.158159e-02    8.840706e-06
  8.188052e-02    8.862229e-06
  8.217945e-02    8.912719e-06
  8.247838e-02    8.841661e-06
  8.277731e-02    8.792570e-06
  8.307624e-02    8.765217e-06
  8.337518e-02    8.728302e-06
  8.367411e-02    8.730454e-06
  8.397304e-02    8.751139e-06
  8.427197e-02    8.732543e-06
  8.457090e-02    8.717777e-06
  8.486983e-02    8.677704e-06
  8.516876e-02    8.661696e-06
  8.546769e-02    8.642936e-06
  8.576662e-02    8.635296e-06
  8.606555e-02    8.601241e-06
  8.636448e-02    8.608658e-06
  8.666341e-02    8.577834e-06
  8.696234e-02    8.511613e-06
  8.726127e-02    8.504341e-06
  8.756020e-02    8.511758e-06
  8.785913e-02    8.466148e-06
  8.815806e-02    8.406168e-06
  8.845699e-02    8.441380e-06
  8.875592e-02    8.426827e-06
  8.905485e-02    8.444522e-06
  8.935378e-02    8.451043e-06
  8.965271e-02    8.401330e-06
  8.995164e-02    8.383249e-06
  9.025057e-02    8.414318e-06
  9.054950e-02    8.403152e-06
  9.084843e-02    8.390349e-06
  9.114737e-02    8.390373e-06
  9.144630e-02    8.349611e-06
  9.174523e-02    8.323192e-06
  9.204416e-02    8.322326e-06
  9.234309e-02    8.346932e-06
  9.264202e-02    8.303212e-06
  9.294095e-02    8.317596e-06
  9.323988e-02    8.287618e-06
  9.353881e-02    8.259010e-06
  9.383774e-02    8.248415e-06
  9.413667e-02    8.243884e-06
  9.443560e-02    8.194336e-06
  9.473453e-02    8.177109e-06
  9.503346e-02    8.200650e-06
  9.533239e-02    8.202545e-06
  9.563132e-02    8.193763e-06
  9.593025e-02    8.183732e-06
  9.622918e-02    8.194585e-06
  9.652811e-02    8.213869e-06
  9.682704e-02    8.172164e-06
  9.712597e-02    8.218848e-06
  9.742490e-02    8.209363e-06
  9.772383e-02    8.172879e-06
  9.802276e-02    8.136811e-06
  9.832169e-02    8.140000e-06
  9.862062e-02    8.080206e-06
  9.891956e-02    8.020694e-06
  9.921849e-02    8.032055e-06
  9.951742e-02    8.025757e-06
  9.981635e-02    7.994153e-06
  1.001153e-01    8.041001e-06
  1.004142e-01    7.972963e-06
  1.007131e-01    7.932698e-06
  1.010121e-01    7.987128e-06
  1.013110e-01    8.000410e-06
  1.016099e-01    8.007470e-06
  1.019089e-01    8.005913e-06
  1.022078e-01    7.924533e-06
  1.025067e-01    7.953297e-06
  1.028057e-01    7.905381e-06
  1.031046e-01    7.911907e-06
  1.034035e-01    7.911339e-06
  1.037024e-01    7.881496e-06
  1.040014e-01    7.858634e-06
  1.043003e-01    7.869193e-06
  1.045992e-01    7.895754e-06
  1.048982e-01    7.886695e-06
  1.051971e-01    7.834416e-06
  1.054960e-01    7.838978e-06
  1.057950e-01    7.797282e-06
  1.060939e-01    7.754647e-06
  1.063928e-01    7.803303e-06
  1.066917e-01    7.840711e-06
  1.069907e-01    7.779654e-06
  1.072896e-01    7.809204e-06
  1.075885e-01    7.878304e-06
  1.078875e-01    7.849414e-06
  1.081864e-01    7.867618e-06
  1.084853e-01    7.817335e-06
  1.087843e-01    7.755587e-06
  1.090832e-01    7.704002e-06
  1.093821e-01    7.702160e-06
  1.096810e-01    7.699167e-06
  1.099800e-01    7.744843e-06
  1.102789e-01    7.736106e-06
  1.105778e-01    7.682684e-06
  1.108768e-01    7.712511e-06
  1.111757e-01    7.649140e-06
  1.114746e-01    7.664109e-06
  1.117736e-01    7.620531e-06
  1.120725e-01    7.531309e-06
  1.123714e-01    7.507928e-06
  1.126704e-01    7.476604e-06
  1.129693e-01    7.426614e-06
  1.132682e-01    7.335454e-06
  1.135671e-01    7.302983e-06
  1.138661e-01    7.304709e-06
  1.141650e-01    7.257909e-06
  1.144639e-01    7.302253e-06
  1.147629e-01    7.290694e-06
  1.150618e-01    7.245866e-06
  1.153607e-01    7.254706e-06
  1.156597e-01    7.197908e-06
  1.159586e-01    7.032648e-06
  1.162575e-01    7.048240e-06
  1.165564e-01    7.132223e-06
  1.168554e-01    7.169752e-06
  1.171543e-01    7.115979e-06
  1.174532e-01    7.117480e-06
  1.177522e-01    7.138792e-06
  1.180511e-01    7.096042e-06
  1.183500e-01    7.092162e-06
  1.186490e-01    7.128302e-06
  1.189479e-01    7.159196e-06
  1.192468e-01    7.203369e-06
  1.195458e-01    7.177572e-06
  1.198447e-01    7.253111e-06
  1.201436e-01    7.398512e-06
  1.204425e-01    7.203168e-06
  1.207415e-01    6.930518e-06
  1.210404e-01    6.661999e-06
  1.213393e-01    0.000000e+00
  1.216383e-01    0.000000e+00
  1.219372e-01    0.000000e+00
  1.222361e-01    0.000000e+00
  1.225351e-01    0.000000e+00
  1.228340e-01    0.000000e+00
  1.231329e-01    0.000000e+00
  1.234318e-01    0.000000e+00
  1.237308e-01    0.000000e+00
  1.240297e-01    0.000000e+00
  1.243286e-01    0.000000e+00
  1.246276e-01    0.000000e+00
  1.249265e-01    0.000000e+00
  1.252254e-01    0.000000e+00
  1.255244e-01    0.000000e+00
  1.258233e-01    0.000000e+00
  1.261222e-01    0.000000e+00
  1.264212e-01    0.000000e+00
  1.267201e-01    0.000000e+00
  1.270190e-01    0.000000e+00
  1.273179e-01    0.000000e+00
  1.276169e-01    0.000000e+00
  1.279158e-01    0.000000e+00
  1.282147e-01    0.000000e+00
  1.285137e-01    0.000000e+00
  1.288126e-01    0.000000e+00
  1.291115e-01    0.000000e+00
  1.294105e-01    0.000000e+00
  1.297094e-01    0.000000e+00
  1.300083e-01    0.000000e+00
  1.303072e-01    0.000000e+00
  1.306062e-01    0.000000e+00
  1.309051e-01    0.000000e+00
  1.312040e-01    0.000000e+00
  1.315030e-01    0.000000e+00
  1.318019e-01    0.000000e+00
  1.321008e-01    0.000000e+00
  1.323998e-01    0.000000e+00
  1.326987e-01    0.000000e+00
  1.329976e-01    0.000000e+00
  1.332965e-01    0.000000e+00
  1.335955e-01    0.000000e+00
  1.338944e-01    0.000000e+00
  1.341933e-01    0.000000e+00
  1.344923e-01    0.000000e+00
  1.347912e-01    0.000000e+00
  1.350901e-01    0.000000e+00
  1.353891e-01    0.000000e+00
  1.356880e-01    0.000000e+00
  1.359869e-01    0.000000e+00
  1.362859e-01    0.000000e+00
  1.365848e-01    0.000000e+00
  1.368837e-01    0.000000e+00
  1.371826e-01    0.000000e+00
  1.374816e-01    0.000000e+00
  1.377805e-01    0.000000e+00
  1.380794e-01    0.000000e+00
  1.383784e-01    0.000000e+00
  1.386773e-01    0.000000e+00
  1.389762e-01    0.000000e+00
  1.392752e-01    0.000000e+00
  1.395741e-01    0.000000e+00
  1.398730e-01    0.000000e+00
  1.401719e-01    0.000000e+00
  1.404709e-01    0.000000e+00
  1.407698e-01    0.000000e+00
  1.410687e-01    0.000000e+00
  1.413677e-01    0.000000e+00
  1.416666e-01    0.000000e+00
  1.419655e-01    0.000000e+00
  1.422645e-01    0.000000e+00
  1.425634e-01    0.000000e+00
  1.428623e-01    0.000000e+00
  1.431613e-01    0.000000e+00
  1.434602e-01    0.000000e+00
  1.437591e-01    0.000000e+00
  1.440580e-01    0.000000e+00
  1.443570e-01    0.000000e+00
  1.446559e-01    0.000000e+00
  1.449548e-01    0.000000e+00
  1.452538e-01    0.000000e+00
  1.455527e-01    0.000000e+00
  1.458516e-01    0.000000e+00
  1.461506e-01    0.000000e+00
  1.464495e-01    0.000000e+00
  1.467484e-01    0.000000e+00
  1.470473e-01    0.000000e+00
  1.473463e-01    0.000000e+00
  1.476452e-01    0.000000e+00
  1.479441e-01    0.000000e+00
  1.482431e-01    0.000000e+00
  1.485420e-01    0.000000e+00
  1.488409e-01    0.000000e+00
  1.491399e-01    0.000000e+00
  1.494388e-01    0.000000e+00
  1.497377e-01    0.000000e+00
  1.500367e-01    0.000000e+00
  1.503356e-01    0.000000e+00
  1.506345e-01    0.000000e+00
  1.509334e-01    0.000000e+00
  1.512324e-01    0.000000e+00
  1.515313e-01    0.000000e+00
  1.518302e-01    0.000000e+00
  1.521292e-01    0.000000e+00
  1.524281e-01    0.000000e+00
  1.527270e-01    0.000000e+00
  1.530260e-01    0.000000e+00
  1.533249e-01    0.000000e+00
  1.536238e-01    0.000000e+00
