# == pyFAI calibration ==
# Distance Sample to Detector: 2.266 m
# PONI: 5.659e-02, 4.293e-02 m
# Rotations: 0.000000 0.000000 0.000000 rad
# 
# == Fit2d calibration ==
# Distance Sample-beamCenter: 2266.000 mm
# Center: x=249.594, y=329.012 pix
# Tilt: 0.000 deg  TiltPlanRot: 0.000 deg
# 
# Detector Pilatus 300k	 PixelSize= 1.720e-04, 1.720e-04 m
#    Detector has a mask: True 
#    Detector has a dark current: False 
#    detector has a flat field: False 
# 
# Wavelength: 1.27818e-10 m
# Mask applied: user provided
# Dark current applied: False
# Flat field applied: False
# Polarization factor: None
# Normalization factor: 1805260.5999999996
# --> AL_F127_220228_88367c67-a8d4-4377-95bf-b5d6f242e6df_0_r1d.csv
#        q_A^-1             I 
  4.457554e-03    1.781861e-02
  4.756484e-03    1.394065e-02
  5.055415e-03    9.912992e-03
  5.354345e-03    6.953370e-03
  5.653276e-03    5.338903e-03
  5.952206e-03    8.634394e-03
  6.251136e-03    7.871117e-03
  6.550067e-03    6.821383e-03
  6.848997e-03    5.796472e-03
  7.147927e-03    4.899658e-03
  7.446858e-03    4.186649e-03
  7.745788e-03    3.596226e-03
  8.044719e-03    3.100159e-03
  8.343649e-03    2.705889e-03
  8.642579e-03    2.364387e-03
  8.941510e-03    2.082342e-03
  9.240440e-03    1.847129e-03
  9.539371e-03    1.640638e-03
  9.838301e-03    1.460968e-03
  1.013723e-02    1.310524e-03
  1.043616e-02    1.177883e-03
  1.073509e-02    1.057488e-03
  1.103402e-02    9.592093e-04
  1.133295e-02    8.714384e-04
  1.163188e-02    7.934806e-04
  1.193081e-02    7.259720e-04
  1.222974e-02    6.657699e-04
  1.252867e-02    6.130295e-04
  1.282760e-02    5.649263e-04
  1.312654e-02    5.214912e-04
  1.342547e-02    4.826006e-04
  1.372440e-02    4.474579e-04
  1.402333e-02    4.160334e-04
  1.432226e-02    3.861575e-04
  1.462119e-02    3.606449e-04
  1.492012e-02    3.378389e-04
  1.521905e-02    3.159908e-04
  1.551798e-02    2.964822e-04
  1.581691e-02    2.800948e-04
  1.611584e-02    2.641609e-04
  1.641477e-02    2.486821e-04
  1.671370e-02    2.349519e-04
  1.701263e-02    2.228012e-04
  1.731156e-02    2.113527e-04
  1.761049e-02    2.008813e-04
  1.790942e-02    1.916458e-04
  1.820835e-02    1.831072e-04
  1.850728e-02    1.758130e-04
  1.880621e-02    1.673001e-04
  1.910514e-02    1.598860e-04
  1.940407e-02    1.540533e-04
  1.970300e-02    1.475667e-04
  2.000193e-02    1.418448e-04
  2.030086e-02    1.372157e-04
  2.059979e-02    1.323139e-04
  2.089873e-02    1.274309e-04
  2.119766e-02    1.229799e-04
  2.149659e-02    1.194822e-04
  2.179552e-02    1.168561e-04
  2.209445e-02    1.128191e-04
  2.239338e-02    1.092107e-04
  2.269231e-02    1.066700e-04
  2.299124e-02    1.038352e-04
  2.329017e-02    1.008298e-04
  2.358910e-02    9.805287e-05
  2.388803e-02    9.592510e-05
  2.418696e-02    9.373126e-05
  2.448589e-02    9.162386e-05
  2.478482e-02    8.985710e-05
  2.508375e-02    8.816080e-05
  2.538268e-02    8.661515e-05
  2.568161e-02    8.495872e-05
  2.598054e-02    8.333533e-05
  2.627947e-02    8.184012e-05
  2.657840e-02    8.092074e-05
  2.687733e-02    7.977628e-05
  2.717626e-02    7.845733e-05
  2.747519e-02    7.707073e-05
  2.777412e-02    7.566948e-05
  2.807305e-02    7.453266e-05
  2.837198e-02    7.354929e-05
  2.867092e-02    7.245342e-05
  2.896985e-02    7.162878e-05
  2.926878e-02    7.106320e-05
  2.956771e-02    7.015187e-05
  2.986664e-02    6.942620e-05
  3.016557e-02    6.867664e-05
  3.046450e-02    6.815576e-05
  3.076343e-02    6.766248e-05
  3.106236e-02    6.663157e-05
  3.136129e-02    6.616877e-05
  3.166022e-02    6.572954e-05
  3.195915e-02    6.490610e-05
  3.225808e-02    6.411070e-05
  3.255701e-02    6.319976e-05
  3.285594e-02    6.274421e-05
  3.315487e-02    6.214362e-05
  3.345380e-02    6.181851e-05
  3.375273e-02    6.141489e-05
  3.405166e-02    6.065549e-05
  3.435059e-02    6.001571e-05
  3.464952e-02    5.956347e-05
  3.494845e-02    5.897704e-05
  3.524738e-02    5.839028e-05
  3.554631e-02    5.792427e-05
  3.584524e-02    5.772286e-05
  3.614417e-02    5.742522e-05
  3.644310e-02    5.688401e-05
  3.674204e-02    5.635111e-05
  3.704097e-02    5.592137e-05
  3.733990e-02    5.544579e-05
  3.763883e-02    5.502269e-05
  3.793776e-02    5.444808e-05
  3.823669e-02    5.425837e-05
  3.853562e-02    5.430659e-05
  3.883455e-02    5.384929e-05
  3.913348e-02    5.336130e-05
  3.943241e-02    5.297231e-05
  3.973134e-02    5.238141e-05
  4.003027e-02    5.236025e-05
  4.032920e-02    5.230355e-05
  4.062813e-02    5.179306e-05
  4.092706e-02    5.134030e-05
  4.122599e-02    5.124271e-05
  4.152492e-02    5.139828e-05
  4.182385e-02    5.119064e-05
  4.212278e-02    5.100508e-05
  4.242171e-02    5.093569e-05
  4.272064e-02    5.065428e-05
  4.301957e-02    5.041940e-05
  4.331850e-02    5.042122e-05
  4.361743e-02    5.009354e-05
  4.391636e-02    4.998776e-05
  4.421529e-02    4.984625e-05
  4.451423e-02    4.974415e-05
  4.481316e-02    4.962226e-05
  4.511209e-02    4.957892e-05
  4.541102e-02    4.945046e-05
  4.570995e-02    4.940007e-05
  4.600888e-02    4.934578e-05
  4.630781e-02    4.923780e-05
  4.660674e-02    4.919330e-05
  4.690567e-02    4.917879e-05
  4.720460e-02    4.922877e-05
  4.750353e-02    4.938204e-05
  4.780246e-02    4.934326e-05
  4.810139e-02    4.893506e-05
  4.840032e-02    4.905828e-05
  4.869925e-02    4.921687e-05
  4.899818e-02    4.916371e-05
  4.929711e-02    4.931832e-05
  4.959604e-02    4.926469e-05
  4.989497e-02    4.898581e-05
  5.019390e-02    4.887321e-05
  5.049283e-02    4.891221e-05
  5.079176e-02    4.902622e-05
  5.109069e-02    4.909971e-05
  5.138962e-02    4.934955e-05
  5.168855e-02    5.025312e-05
  5.198748e-02    5.097553e-05
  5.228642e-02    5.061665e-05
  5.258535e-02    4.927065e-05
  5.288428e-02    4.869889e-05
  5.318321e-02    4.878122e-05
  5.348214e-02    4.844638e-05
  5.378107e-02    4.855960e-05
  5.408000e-02    4.870579e-05
  5.437893e-02    4.875491e-05
  5.467786e-02    4.883980e-05
  5.497679e-02    4.871505e-05
  5.527572e-02    4.863417e-05
  5.557465e-02    4.850711e-05
  5.587358e-02    4.858406e-05
  5.617251e-02    4.853695e-05
  5.647144e-02    4.876052e-05
  5.677037e-02    4.893546e-05
  5.706930e-02    4.879451e-05
  5.736823e-02    4.876825e-05
  5.766716e-02    4.877332e-05
  5.796609e-02    4.882143e-05
  5.826502e-02    4.900802e-05
  5.856395e-02    4.902049e-05
  5.886288e-02    4.905146e-05
  5.916181e-02    4.907202e-05
  5.946074e-02    4.916494e-05
  5.975967e-02    4.942260e-05
  6.005861e-02    4.958511e-05
  6.035754e-02    4.966849e-05
  6.065647e-02    4.995523e-05
  6.095540e-02    5.019576e-05
  6.125433e-02    5.066631e-05
  6.155326e-02    5.085946e-05
  6.185219e-02    5.009911e-05
  6.215112e-02    4.982811e-05
  6.245005e-02    4.996348e-05
  6.274898e-02    5.013255e-05
  6.304791e-02    5.000241e-05
  6.334684e-02    5.016822e-05
  6.364577e-02    5.029028e-05
  6.394470e-02    5.007633e-05
  6.424363e-02    5.007105e-05
  6.454256e-02    5.020354e-05
  6.484149e-02    5.022397e-05
  6.514042e-02    5.014439e-05
  6.543935e-02    5.044420e-05
  6.573828e-02    5.065266e-05
  6.603721e-02    5.047206e-05
  6.633614e-02    5.063645e-05
  6.663507e-02    5.092634e-05
  6.693400e-02    5.085795e-05
  6.723293e-02    5.085038e-05
  6.753186e-02    5.106827e-05
  6.783080e-02    5.097030e-05
  6.812973e-02    5.098342e-05
  6.842866e-02    5.101881e-05
  6.872759e-02    5.118384e-05
  6.902652e-02    5.144101e-05
  6.932545e-02    5.118738e-05
  6.962438e-02    5.137902e-05
  6.992331e-02    5.153002e-05
  7.022224e-02    5.167539e-05
  7.052117e-02    5.167913e-05
  7.082010e-02    5.171203e-05
  7.111903e-02    5.179069e-05
  7.141796e-02    5.181195e-05
  7.171689e-02    5.191792e-05
  7.201582e-02    5.171676e-05
  7.231475e-02    5.188553e-05
  7.261368e-02    5.201602e-05
  7.291261e-02    5.203168e-05
  7.321154e-02    5.209298e-05
  7.351047e-02    5.208414e-05
  7.380940e-02    5.198345e-05
  7.410833e-02    5.178851e-05
  7.440726e-02    5.182440e-05
  7.470619e-02    5.186877e-05
  7.500512e-02    5.212306e-05
  7.530405e-02    5.218612e-05
  7.560299e-02    5.213388e-05
  7.590192e-02    5.206277e-05
  7.620085e-02    5.206138e-05
  7.649978e-02    5.218288e-05
  7.679871e-02    5.226258e-05
  7.709764e-02    5.217625e-05
  7.739657e-02    5.210111e-05
  7.769550e-02    5.196984e-05
  7.799443e-02    5.204574e-05
  7.829336e-02    5.214589e-05
  7.859229e-02    5.201997e-05
  7.889122e-02    5.206876e-05
  7.919015e-02    5.199106e-05
  7.948908e-02    5.172488e-05
  7.978801e-02    5.168923e-05
  8.008694e-02    5.164424e-05
  8.038587e-02    5.156941e-05
  8.068480e-02    5.170768e-05
  8.098373e-02    5.174878e-05
  8.128266e-02    5.155983e-05
  8.158159e-02    5.139251e-05
  8.188052e-02    5.132577e-05
  8.217945e-02    5.135646e-05
  8.247838e-02    5.120840e-05
  8.277731e-02    5.118910e-05
  8.307624e-02    5.124782e-05
  8.337518e-02    5.141271e-05
  8.367411e-02    5.125907e-05
  8.397304e-02    5.109834e-05
  8.427197e-02    5.112804e-05
  8.457090e-02    5.089022e-05
  8.486983e-02    5.068618e-05
  8.516876e-02    5.059281e-05
  8.546769e-02    5.050029e-05
  8.576662e-02    5.048603e-05
  8.606555e-02    5.056523e-05
  8.636448e-02    5.042662e-05
  8.666341e-02    5.038107e-05
  8.696234e-02    5.049463e-05
  8.726127e-02    5.035349e-05
  8.756020e-02    5.025430e-05
  8.785913e-02    5.010788e-05
  8.815806e-02    4.995329e-05
  8.845699e-02    4.993719e-05
  8.875592e-02    4.979268e-05
  8.905485e-02    4.950667e-05
  8.935378e-02    4.956266e-05
  8.965271e-02    4.940382e-05
  8.995164e-02    4.945517e-05
  9.025057e-02    4.939153e-05
  9.054950e-02    4.932303e-05
  9.084843e-02    4.912527e-05
  9.114737e-02    4.892051e-05
  9.144630e-02    4.877972e-05
  9.174523e-02    4.891753e-05
  9.204416e-02    4.881486e-05
  9.234309e-02    4.872815e-05
  9.264202e-02    4.875933e-05
  9.294095e-02    4.859465e-05
  9.323988e-02    4.835401e-05
  9.353881e-02    4.827854e-05
  9.383774e-02    4.828602e-05
  9.413667e-02    4.817294e-05
  9.443560e-02    4.809754e-05
  9.473453e-02    4.815558e-05
  9.503346e-02    4.808092e-05
  9.533239e-02    4.789229e-05
  9.563132e-02    4.805529e-05
  9.593025e-02    4.791772e-05
  9.622918e-02    4.794852e-05
  9.652811e-02    4.798959e-05
  9.682704e-02    4.815883e-05
  9.712597e-02    4.816051e-05
  9.742490e-02    4.794884e-05
  9.772383e-02    4.762399e-05
  9.802276e-02    4.733978e-05
  9.832169e-02    4.728273e-05
  9.862062e-02    4.702694e-05
  9.891956e-02    4.683353e-05
  9.921849e-02    4.657723e-05
  9.951742e-02    4.659895e-05
  9.981635e-02    4.672705e-05
  1.001153e-01    4.658537e-05
  1.004142e-01    4.647788e-05
  1.007131e-01    4.634861e-05
  1.010121e-01    4.643785e-05
  1.013110e-01    4.641623e-05
  1.016099e-01    4.627491e-05
  1.019089e-01    4.620151e-05
  1.022078e-01    4.582908e-05
  1.025067e-01    4.584790e-05
  1.028057e-01    4.581775e-05
  1.031046e-01    4.573627e-05
  1.034035e-01    4.569822e-05
  1.037024e-01    4.552165e-05
  1.040014e-01    4.529665e-05
  1.043003e-01    4.538829e-05
  1.045992e-01    4.550738e-05
  1.048982e-01    4.545025e-05
  1.051971e-01    4.500755e-05
  1.054960e-01    4.488161e-05
  1.057950e-01    4.493060e-05
  1.060939e-01    4.481911e-05
  1.063928e-01    4.458106e-05
  1.066917e-01    4.449292e-05
  1.069907e-01    4.428469e-05
  1.072896e-01    4.432286e-05
  1.075885e-01    4.458239e-05
  1.078875e-01    4.441957e-05
  1.081864e-01    4.429597e-05
  1.084853e-01    4.436196e-05
  1.087843e-01    4.430156e-05
  1.090832e-01    4.418704e-05
  1.093821e-01    4.417813e-05
  1.096810e-01    4.389059e-05
  1.099800e-01    4.369111e-05
  1.102789e-01    4.361467e-05
  1.105778e-01    4.345752e-05
  1.108768e-01    4.328512e-05
  1.111757e-01    4.310559e-05
  1.114746e-01    4.319899e-05
  1.117736e-01    4.331990e-05
  1.120725e-01    4.317417e-05
  1.123714e-01    4.288571e-05
  1.126704e-01    4.286219e-05
  1.129693e-01    4.277100e-05
  1.132682e-01    4.260977e-05
  1.135671e-01    4.244790e-05
  1.138661e-01    4.224347e-05
  1.141650e-01    4.208992e-05
  1.144639e-01    4.249266e-05
  1.147629e-01    4.234477e-05
  1.150618e-01    4.231871e-05
  1.153607e-01    4.226702e-05
  1.156597e-01    4.178701e-05
  1.159586e-01    4.158888e-05
  1.162575e-01    4.172655e-05
  1.165564e-01    4.177440e-05
  1.168554e-01    4.174262e-05
  1.171543e-01    4.181095e-05
  1.174532e-01    4.183277e-05
  1.177522e-01    4.180162e-05
  1.180511e-01    4.174832e-05
  1.183500e-01    4.116965e-05
  1.186490e-01    4.147843e-05
  1.189479e-01    4.206502e-05
  1.192468e-01    4.230848e-05
  1.195458e-01    4.156609e-05
  1.198447e-01    4.061521e-05
  1.201436e-01    4.056743e-05
  1.204425e-01    4.065040e-05
  1.207415e-01    4.046522e-05
  1.210404e-01    4.047401e-05
  1.213393e-01    0.000000e+00
  1.216383e-01    0.000000e+00
  1.219372e-01    0.000000e+00
  1.222361e-01    0.000000e+00
  1.225351e-01    0.000000e+00
  1.228340e-01    0.000000e+00
  1.231329e-01    0.000000e+00
  1.234318e-01    0.000000e+00
  1.237308e-01    0.000000e+00
  1.240297e-01    0.000000e+00
  1.243286e-01    0.000000e+00
  1.246276e-01    0.000000e+00
  1.249265e-01    0.000000e+00
  1.252254e-01    0.000000e+00
  1.255244e-01    0.000000e+00
  1.258233e-01    0.000000e+00
  1.261222e-01    0.000000e+00
  1.264212e-01    0.000000e+00
  1.267201e-01    0.000000e+00
  1.270190e-01    0.000000e+00
  1.273179e-01    0.000000e+00
  1.276169e-01    0.000000e+00
  1.279158e-01    0.000000e+00
  1.282147e-01    0.000000e+00
  1.285137e-01    0.000000e+00
  1.288126e-01    0.000000e+00
  1.291115e-01    0.000000e+00
  1.294105e-01    0.000000e+00
  1.297094e-01    0.000000e+00
  1.300083e-01    0.000000e+00
  1.303072e-01    0.000000e+00
  1.306062e-01    0.000000e+00
  1.309051e-01    0.000000e+00
  1.312040e-01    0.000000e+00
  1.315030e-01    0.000000e+00
  1.318019e-01    0.000000e+00
  1.321008e-01    0.000000e+00
  1.323998e-01    0.000000e+00
  1.326987e-01    0.000000e+00
  1.329976e-01    0.000000e+00
  1.332965e-01    0.000000e+00
  1.335955e-01    0.000000e+00
  1.338944e-01    0.000000e+00
  1.341933e-01    0.000000e+00
  1.344923e-01    0.000000e+00
  1.347912e-01    0.000000e+00
  1.350901e-01    0.000000e+00
  1.353891e-01    0.000000e+00
  1.356880e-01    0.000000e+00
  1.359869e-01    0.000000e+00
  1.362859e-01    0.000000e+00
  1.365848e-01    0.000000e+00
  1.368837e-01    0.000000e+00
  1.371826e-01    0.000000e+00
  1.374816e-01    0.000000e+00
  1.377805e-01    0.000000e+00
  1.380794e-01    0.000000e+00
  1.383784e-01    0.000000e+00
  1.386773e-01    0.000000e+00
  1.389762e-01    0.000000e+00
  1.392752e-01    0.000000e+00
  1.395741e-01    0.000000e+00
  1.398730e-01    0.000000e+00
  1.401719e-01    0.000000e+00
  1.404709e-01    0.000000e+00
  1.407698e-01    0.000000e+00
  1.410687e-01    0.000000e+00
  1.413677e-01    0.000000e+00
  1.416666e-01    0.000000e+00
  1.419655e-01    0.000000e+00
  1.422645e-01    0.000000e+00
  1.425634e-01    0.000000e+00
  1.428623e-01    0.000000e+00
  1.431613e-01    0.000000e+00
  1.434602e-01    0.000000e+00
  1.437591e-01    0.000000e+00
  1.440580e-01    0.000000e+00
  1.443570e-01    0.000000e+00
  1.446559e-01    0.000000e+00
  1.449548e-01    0.000000e+00
  1.452538e-01    0.000000e+00
  1.455527e-01    0.000000e+00
  1.458516e-01    0.000000e+00
  1.461506e-01    0.000000e+00
  1.464495e-01    0.000000e+00
  1.467484e-01    0.000000e+00
  1.470473e-01    0.000000e+00
  1.473463e-01    0.000000e+00
  1.476452e-01    0.000000e+00
  1.479441e-01    0.000000e+00
  1.482431e-01    0.000000e+00
  1.485420e-01    0.000000e+00
  1.488409e-01    0.000000e+00
  1.491399e-01    0.000000e+00
  1.494388e-01    0.000000e+00
  1.497377e-01    0.000000e+00
  1.500367e-01    0.000000e+00
  1.503356e-01    0.000000e+00
  1.506345e-01    0.000000e+00
  1.509334e-01    0.000000e+00
  1.512324e-01    0.000000e+00
  1.515313e-01    0.000000e+00
  1.518302e-01    0.000000e+00
  1.521292e-01    0.000000e+00
  1.524281e-01    0.000000e+00
  1.527270e-01    0.000000e+00
  1.530260e-01    0.000000e+00
  1.533249e-01    0.000000e+00
  1.536238e-01    0.000000e+00
