# == pyFAI calibration ==
# Distance Sample to Detector: 2.266 m
# PONI: 5.659e-02, 4.293e-02 m
# Rotations: 0.000000 0.000000 0.000000 rad
# 
# == Fit2d calibration ==
# Distance Sample-beamCenter: 2266.000 mm
# Center: x=249.594, y=329.012 pix
# Tilt: 0.000 deg  TiltPlanRot: 0.000 deg
# 
# Detector Pilatus 300k	 PixelSize= 1.720e-04, 1.720e-04 m
#    Detector has a mask: True 
#    Detector has a dark current: False 
#    detector has a flat field: False 
# 
# Wavelength: 1.27818e-10 m
# Mask applied: user provided
# Dark current applied: False
# Flat field applied: False
# Polarization factor: None
# Normalization factor: 456351.4
# --> AL_F127_220226_ff419ac9-bbd1-4166-b825-fd33381f81b7_2_r1d.csv
#        q_A^-1             I 
  4.457554e-03    7.495329e-03
  4.756484e-03    5.886822e-03
  5.055415e-03    4.102423e-03
  5.354345e-03    2.632355e-03
  5.653276e-03    1.810609e-03
  5.952206e-03    2.316649e-03
  6.251136e-03    2.067856e-03
  6.550067e-03    1.827061e-03
  6.848997e-03    1.591035e-03
  7.147927e-03    1.375457e-03
  7.446858e-03    1.202658e-03
  7.745788e-03    1.061606e-03
  8.044719e-03    9.464118e-04
  8.343649e-03    8.499708e-04
  8.642579e-03    7.659858e-04
  8.941510e-03    7.044876e-04
  9.240440e-03    6.479030e-04
  9.539371e-03    5.982774e-04
  9.838301e-03    5.593880e-04
  1.013723e-02    5.245992e-04
  1.043616e-02    4.952197e-04
  1.073509e-02    4.686585e-04
  1.103402e-02    4.435002e-04
  1.133295e-02    4.257776e-04
  1.163188e-02    4.128069e-04
  1.193081e-02    4.002131e-04
  1.222974e-02    3.912615e-04
  1.252867e-02    3.789294e-04
  1.282760e-02    3.707779e-04
  1.312654e-02    3.650804e-04
  1.342547e-02    3.599009e-04
  1.372440e-02    3.541354e-04
  1.402333e-02    3.504124e-04
  1.432226e-02    3.479267e-04
  1.462119e-02    3.464643e-04
  1.492012e-02    3.468825e-04
  1.521905e-02    3.466611e-04
  1.551798e-02    3.479520e-04
  1.581691e-02    3.492406e-04
  1.611584e-02    3.506028e-04
  1.641477e-02    3.535218e-04
  1.671370e-02    3.557292e-04
  1.701263e-02    3.617210e-04
  1.731156e-02    3.699278e-04
  1.761049e-02    3.744792e-04
  1.790942e-02    3.796385e-04
  1.820835e-02    3.875970e-04
  1.850728e-02    3.951142e-04
  1.880621e-02    4.022122e-04
  1.910514e-02    4.123370e-04
  1.940407e-02    4.224857e-04
  1.970300e-02    4.334827e-04
  2.000193e-02    4.450712e-04
  2.030086e-02    4.597081e-04
  2.059979e-02    4.748778e-04
  2.089873e-02    4.893669e-04
  2.119766e-02    5.028693e-04
  2.149659e-02    5.176718e-04
  2.179552e-02    5.351730e-04
  2.209445e-02    5.549018e-04
  2.239338e-02    5.734367e-04
  2.269231e-02    5.938925e-04
  2.299124e-02    6.121138e-04
  2.329017e-02    6.309212e-04
  2.358910e-02    6.533750e-04
  2.388803e-02    6.730005e-04
  2.418696e-02    6.917765e-04
  2.448589e-02    7.110896e-04
  2.478482e-02    7.307361e-04
  2.508375e-02    7.485629e-04
  2.538268e-02    7.665048e-04
  2.568161e-02    7.812334e-04
  2.598054e-02    7.941623e-04
  2.627947e-02    8.042711e-04
  2.657840e-02    8.121352e-04
  2.687733e-02    8.186699e-04
  2.717626e-02    8.217636e-04
  2.747519e-02    8.218059e-04
  2.777412e-02    8.196306e-04
  2.807305e-02    8.163703e-04
  2.837198e-02    8.026846e-04
  2.867092e-02    7.906932e-04
  2.896985e-02    7.795335e-04
  2.926878e-02    7.621967e-04
  2.956771e-02    7.427899e-04
  2.986664e-02    7.226527e-04
  3.016557e-02    6.989433e-04
  3.046450e-02    6.760423e-04
  3.076343e-02    6.549173e-04
  3.106236e-02    6.282835e-04
  3.136129e-02    6.024091e-04
  3.166022e-02    5.750979e-04
  3.195915e-02    5.501807e-04
  3.225808e-02    5.255740e-04
  3.255701e-02    5.016123e-04
  3.285594e-02    4.790037e-04
  3.315487e-02    4.583374e-04
  3.345380e-02    4.350166e-04
  3.375273e-02    4.139606e-04
  3.405166e-02    3.946712e-04
  3.435059e-02    3.763523e-04
  3.464952e-02    3.586019e-04
  3.494845e-02    3.413686e-04
  3.524738e-02    3.274343e-04
  3.554631e-02    3.131376e-04
  3.584524e-02    2.992430e-04
  3.614417e-02    2.855169e-04
  3.644310e-02    2.719557e-04
  3.674204e-02    2.604974e-04
  3.704097e-02    2.510654e-04
  3.733990e-02    2.409618e-04
  3.763883e-02    2.317993e-04
  3.793776e-02    2.236307e-04
  3.823669e-02    2.141639e-04
  3.853562e-02    2.070079e-04
  3.883455e-02    1.997942e-04
  3.913348e-02    1.912958e-04
  3.943241e-02    1.842497e-04
  3.973134e-02    1.798848e-04
  4.003027e-02    1.744426e-04
  4.032920e-02    1.685727e-04
  4.062813e-02    1.632578e-04
  4.092706e-02    1.588801e-04
  4.122599e-02    1.535013e-04
  4.152492e-02    1.494441e-04
  4.182385e-02    1.456377e-04
  4.212278e-02    1.418343e-04
  4.242171e-02    1.388731e-04
  4.272064e-02    1.357474e-04
  4.301957e-02    1.325082e-04
  4.331850e-02    1.289767e-04
  4.361743e-02    1.260942e-04
  4.391636e-02    1.233618e-04
  4.421529e-02    1.206658e-04
  4.451423e-02    1.179914e-04
  4.481316e-02    1.158295e-04
  4.511209e-02    1.130920e-04
  4.541102e-02    1.111897e-04
  4.570995e-02    1.095725e-04
  4.600888e-02    1.070395e-04
  4.630781e-02    1.054586e-04
  4.660674e-02    1.038177e-04
  4.690567e-02    1.017622e-04
  4.720460e-02    9.984069e-05
  4.750353e-02    9.827025e-05
  4.780246e-02    9.711228e-05
  4.810139e-02    9.517925e-05
  4.840032e-02    9.367926e-05
  4.869925e-02    9.183418e-05
  4.899818e-02    8.954840e-05
  4.929711e-02    8.827846e-05
  4.959604e-02    8.728466e-05
  4.989497e-02    8.460525e-05
  5.019390e-02    8.388899e-05
  5.049283e-02    8.368101e-05
  5.079176e-02    8.207256e-05
  5.109069e-02    8.031318e-05
  5.138962e-02    7.896055e-05
  5.168855e-02    7.766177e-05
  5.198748e-02    7.708657e-05
  5.228642e-02    7.501448e-05
  5.258535e-02    7.296467e-05
  5.288428e-02    7.196960e-05
  5.318321e-02    7.065097e-05
  5.348214e-02    6.903839e-05
  5.378107e-02    6.737806e-05
  5.408000e-02    6.593775e-05
  5.437893e-02    6.460622e-05
  5.467786e-02    6.331571e-05
  5.497679e-02    6.188502e-05
  5.527572e-02    6.058325e-05
  5.557465e-02    5.877182e-05
  5.587358e-02    5.796429e-05
  5.617251e-02    5.639174e-05
  5.647144e-02    5.492086e-05
  5.677037e-02    5.356348e-05
  5.706930e-02    5.290817e-05
  5.736823e-02    5.145658e-05
  5.766716e-02    4.961550e-05
  5.796609e-02    4.813766e-05
  5.826502e-02    4.674543e-05
  5.856395e-02    4.584590e-05
  5.886288e-02    4.452678e-05
  5.916181e-02    4.348599e-05
  5.946074e-02    4.231101e-05
  5.975967e-02    4.155297e-05
  6.005861e-02    4.045440e-05
  6.035754e-02    3.937392e-05
  6.065647e-02    3.831258e-05
  6.095540e-02    3.748060e-05
  6.125433e-02    3.674364e-05
  6.155326e-02    3.552113e-05
  6.185219e-02    3.432034e-05
  6.215112e-02    3.372371e-05
  6.245005e-02    3.285275e-05
  6.274898e-02    3.162526e-05
  6.304791e-02    3.092261e-05
  6.334684e-02    3.042759e-05
  6.364577e-02    3.004509e-05
  6.394470e-02    2.958269e-05
  6.424363e-02    2.892080e-05
  6.454256e-02    2.804179e-05
  6.484149e-02    2.707275e-05
  6.514042e-02    2.665344e-05
  6.543935e-02    2.619287e-05
  6.573828e-02    2.557877e-05
  6.603721e-02    2.485568e-05
  6.633614e-02    2.426767e-05
  6.663507e-02    2.403897e-05
  6.693400e-02    2.380673e-05
  6.723293e-02    2.345361e-05
  6.753186e-02    2.287851e-05
  6.783080e-02    2.274092e-05
  6.812973e-02    2.213924e-05
  6.842866e-02    2.156670e-05
  6.872759e-02    2.169807e-05
  6.902652e-02    2.185925e-05
  6.932545e-02    2.133468e-05
  6.962438e-02    2.096160e-05
  6.992331e-02    2.067029e-05
  7.022224e-02    2.022320e-05
  7.052117e-02    2.023852e-05
  7.082010e-02    1.989915e-05
  7.111903e-02    1.960032e-05
  7.141796e-02    1.956329e-05
  7.171689e-02    1.938973e-05
  7.201582e-02    1.914343e-05
  7.231475e-02    1.918681e-05
  7.261368e-02    1.901731e-05
  7.291261e-02    1.881773e-05
  7.321154e-02    1.872734e-05
  7.351047e-02    1.849916e-05
  7.380940e-02    1.833627e-05
  7.410833e-02    1.835975e-05
  7.440726e-02    1.809193e-05
  7.470619e-02    1.788882e-05
  7.500512e-02    1.791667e-05
  7.530405e-02    1.778931e-05
  7.560299e-02    1.778393e-05
  7.590192e-02    1.782839e-05
  7.620085e-02    1.764992e-05
  7.649978e-02    1.748436e-05
  7.679871e-02    1.758574e-05
  7.709764e-02    1.753328e-05
  7.739657e-02    1.747571e-05
  7.769550e-02    1.725844e-05
  7.799443e-02    1.725347e-05
  7.829336e-02    1.722298e-05
  7.859229e-02    1.726648e-05
  7.889122e-02    1.718378e-05
  7.919015e-02    1.740190e-05
  7.948908e-02    1.741499e-05
  7.978801e-02    1.727115e-05
  8.008694e-02    1.742445e-05
  8.038587e-02    1.737202e-05
  8.068480e-02    1.737300e-05
  8.098373e-02    1.713820e-05
  8.128266e-02    1.706203e-05
  8.158159e-02    1.712432e-05
  8.188052e-02    1.723156e-05
  8.217945e-02    1.716924e-05
  8.247838e-02    1.738090e-05
  8.277731e-02    1.736820e-05
  8.307624e-02    1.716224e-05
  8.337518e-02    1.713882e-05
  8.367411e-02    1.741027e-05
  8.397304e-02    1.749506e-05
  8.427197e-02    1.731287e-05
  8.457090e-02    1.725634e-05
  8.486983e-02    1.733817e-05
  8.516876e-02    1.741439e-05
  8.546769e-02    1.742180e-05
  8.576662e-02    1.731068e-05
  8.606555e-02    1.733993e-05
  8.636448e-02    1.763801e-05
  8.666341e-02    1.770479e-05
  8.696234e-02    1.772673e-05
  8.726127e-02    1.765390e-05
  8.756020e-02    1.749250e-05
  8.785913e-02    1.748436e-05
  8.815806e-02    1.715886e-05
  8.845699e-02    1.747317e-05
  8.875592e-02    1.778525e-05
  8.905485e-02    1.784576e-05
  8.935378e-02    1.800710e-05
  8.965271e-02    1.791791e-05
  8.995164e-02    1.781958e-05
  9.025057e-02    1.772225e-05
  9.054950e-02    1.787597e-05
  9.084843e-02    1.806909e-05
  9.114737e-02    1.792957e-05
  9.144630e-02    1.807525e-05
  9.174523e-02    1.809962e-05
  9.204416e-02    1.792505e-05
  9.234309e-02    1.766038e-05
  9.264202e-02    1.786419e-05
  9.294095e-02    1.825222e-05
  9.323988e-02    1.793304e-05
  9.353881e-02    1.789011e-05
  9.383774e-02    1.786898e-05
  9.413667e-02    1.776908e-05
  9.443560e-02    1.791501e-05
  9.473453e-02    1.816395e-05
  9.503346e-02    1.803670e-05
  9.533239e-02    1.791520e-05
  9.563132e-02    1.791474e-05
  9.593025e-02    1.784160e-05
  9.622918e-02    1.785295e-05
  9.652811e-02    1.799817e-05
  9.682704e-02    1.804054e-05
  9.712597e-02    1.823162e-05
  9.742490e-02    1.812126e-05
  9.772383e-02    1.798198e-05
  9.802276e-02    1.815340e-05
  9.832169e-02    1.801794e-05
  9.862062e-02    1.802503e-05
  9.891956e-02    1.811992e-05
  9.921849e-02    1.810022e-05
  9.951742e-02    1.804315e-05
  9.981635e-02    1.793206e-05
  1.001153e-01    1.785015e-05
  1.004142e-01    1.790763e-05
  1.007131e-01    1.776107e-05
  1.010121e-01    1.798934e-05
  1.013110e-01    1.814397e-05
  1.016099e-01    1.798764e-05
  1.019089e-01    1.778155e-05
  1.022078e-01    1.767403e-05
  1.025067e-01    1.795920e-05
  1.028057e-01    1.788787e-05
  1.031046e-01    1.760196e-05
  1.034035e-01    1.760013e-05
  1.037024e-01    1.763497e-05
  1.040014e-01    1.764219e-05
  1.043003e-01    1.775291e-05
  1.045992e-01    1.777270e-05
  1.048982e-01    1.775727e-05
  1.051971e-01    1.767699e-05
  1.054960e-01    1.761373e-05
  1.057950e-01    1.743762e-05
  1.060939e-01    1.737236e-05
  1.063928e-01    1.738064e-05
  1.066917e-01    1.729023e-05
  1.069907e-01    1.728791e-05
  1.072896e-01    1.756394e-05
  1.075885e-01    1.737147e-05
  1.078875e-01    1.741298e-05
  1.081864e-01    1.760628e-05
  1.084853e-01    1.747527e-05
  1.087843e-01    1.734325e-05
  1.090832e-01    1.756861e-05
  1.093821e-01    1.738932e-05
  1.096810e-01    1.724172e-05
  1.099800e-01    1.739492e-05
  1.102789e-01    1.721111e-05
  1.105778e-01    1.679509e-05
  1.108768e-01    1.675996e-05
  1.111757e-01    1.668668e-05
  1.114746e-01    1.675872e-05
  1.117736e-01    1.662577e-05
  1.120725e-01    1.635038e-05
  1.123714e-01    1.616382e-05
  1.126704e-01    1.587282e-05
  1.129693e-01    1.555902e-05
  1.132682e-01    1.492314e-05
  1.135671e-01    1.424332e-05
  1.138661e-01    1.392550e-05
  1.141650e-01    1.378157e-05
  1.144639e-01    1.390110e-05
  1.147629e-01    1.354291e-05
  1.150618e-01    1.312965e-05
  1.153607e-01    1.322556e-05
  1.156597e-01    1.306269e-05
  1.159586e-01    1.305934e-05
  1.162575e-01    1.341852e-05
  1.165564e-01    1.273381e-05
  1.168554e-01    1.231800e-05
  1.171543e-01    1.284238e-05
  1.174532e-01    1.305776e-05
  1.177522e-01    1.274624e-05
  1.180511e-01    1.280679e-05
  1.183500e-01    1.291641e-05
  1.186490e-01    1.237564e-05
  1.189479e-01    1.225937e-05
  1.192468e-01    1.273193e-05
  1.195458e-01    1.329624e-05
  1.198447e-01    1.281670e-05
  1.201436e-01    1.174092e-05
  1.204425e-01    1.324068e-05
  1.207415e-01    1.459737e-05
  1.210404e-01    1.315967e-05
  1.213393e-01    0.000000e+00
  1.216383e-01    0.000000e+00
  1.219372e-01    0.000000e+00
  1.222361e-01    0.000000e+00
  1.225351e-01    0.000000e+00
  1.228340e-01    0.000000e+00
  1.231329e-01    0.000000e+00
  1.234318e-01    0.000000e+00
  1.237308e-01    0.000000e+00
  1.240297e-01    0.000000e+00
  1.243286e-01    0.000000e+00
  1.246276e-01    0.000000e+00
  1.249265e-01    0.000000e+00
  1.252254e-01    0.000000e+00
  1.255244e-01    0.000000e+00
  1.258233e-01    0.000000e+00
  1.261222e-01    0.000000e+00
  1.264212e-01    0.000000e+00
  1.267201e-01    0.000000e+00
  1.270190e-01    0.000000e+00
  1.273179e-01    0.000000e+00
  1.276169e-01    0.000000e+00
  1.279158e-01    0.000000e+00
  1.282147e-01    0.000000e+00
  1.285137e-01    0.000000e+00
  1.288126e-01    0.000000e+00
  1.291115e-01    0.000000e+00
  1.294105e-01    0.000000e+00
  1.297094e-01    0.000000e+00
  1.300083e-01    0.000000e+00
  1.303072e-01    0.000000e+00
  1.306062e-01    0.000000e+00
  1.309051e-01    0.000000e+00
  1.312040e-01    0.000000e+00
  1.315030e-01    0.000000e+00
  1.318019e-01    0.000000e+00
  1.321008e-01    0.000000e+00
  1.323998e-01    0.000000e+00
  1.326987e-01    0.000000e+00
  1.329976e-01    0.000000e+00
  1.332965e-01    0.000000e+00
  1.335955e-01    0.000000e+00
  1.338944e-01    0.000000e+00
  1.341933e-01    0.000000e+00
  1.344923e-01    0.000000e+00
  1.347912e-01    0.000000e+00
  1.350901e-01    0.000000e+00
  1.353891e-01    0.000000e+00
  1.356880e-01    0.000000e+00
  1.359869e-01    0.000000e+00
  1.362859e-01    0.000000e+00
  1.365848e-01    0.000000e+00
  1.368837e-01    0.000000e+00
  1.371826e-01    0.000000e+00
  1.374816e-01    0.000000e+00
  1.377805e-01    0.000000e+00
  1.380794e-01    0.000000e+00
  1.383784e-01    0.000000e+00
  1.386773e-01    0.000000e+00
  1.389762e-01    0.000000e+00
  1.392752e-01    0.000000e+00
  1.395741e-01    0.000000e+00
  1.398730e-01    0.000000e+00
  1.401719e-01    0.000000e+00
  1.404709e-01    0.000000e+00
  1.407698e-01    0.000000e+00
  1.410687e-01    0.000000e+00
  1.413677e-01    0.000000e+00
  1.416666e-01    0.000000e+00
  1.419655e-01    0.000000e+00
  1.422645e-01    0.000000e+00
  1.425634e-01    0.000000e+00
  1.428623e-01    0.000000e+00
  1.431613e-01    0.000000e+00
  1.434602e-01    0.000000e+00
  1.437591e-01    0.000000e+00
  1.440580e-01    0.000000e+00
  1.443570e-01    0.000000e+00
  1.446559e-01    0.000000e+00
  1.449548e-01    0.000000e+00
  1.452538e-01    0.000000e+00
  1.455527e-01    0.000000e+00
  1.458516e-01    0.000000e+00
  1.461506e-01    0.000000e+00
  1.464495e-01    0.000000e+00
  1.467484e-01    0.000000e+00
  1.470473e-01    0.000000e+00
  1.473463e-01    0.000000e+00
  1.476452e-01    0.000000e+00
  1.479441e-01    0.000000e+00
  1.482431e-01    0.000000e+00
  1.485420e-01    0.000000e+00
  1.488409e-01    0.000000e+00
  1.491399e-01    0.000000e+00
  1.494388e-01    0.000000e+00
  1.497377e-01    0.000000e+00
  1.500367e-01    0.000000e+00
  1.503356e-01    0.000000e+00
  1.506345e-01    0.000000e+00
  1.509334e-01    0.000000e+00
  1.512324e-01    0.000000e+00
  1.515313e-01    0.000000e+00
  1.518302e-01    0.000000e+00
  1.521292e-01    0.000000e+00
  1.524281e-01    0.000000e+00
  1.527270e-01    0.000000e+00
  1.530260e-01    0.000000e+00
  1.533249e-01    0.000000e+00
  1.536238e-01    0.000000e+00
