# == pyFAI calibration ==
# Distance Sample to Detector: 2.266 m
# PONI: 5.659e-02, 4.293e-02 m
# Rotations: 0.000000 0.000000 0.000000 rad
# 
# == Fit2d calibration ==
# Distance Sample-beamCenter: 2266.000 mm
# Center: x=249.594, y=329.012 pix
# Tilt: 0.000 deg  TiltPlanRot: 0.000 deg
# 
# Detector Pilatus 300k	 PixelSize= 1.720e-04, 1.720e-04 m
#    Detector has a mask: True 
#    Detector has a dark current: False 
#    detector has a flat field: False 
# 
# Wavelength: 1.27818e-10 m
# Mask applied: user provided
# Dark current applied: False
# Flat field applied: False
# Polarization factor: None
# Normalization factor: 13934983.8
# --> AL_F127_220226_57a0e622-db48-403b-bd18-d49240885484_0_r1d.csv
#        q_A^-1             I 
  4.457554e-03    1.641093e-04
  4.756484e-03    1.297500e-04
  5.055415e-03    8.994181e-05
  5.354345e-03    6.445013e-05
  5.653276e-03    4.839271e-05
  5.952206e-03    1.231548e-03
  6.251136e-03    6.947687e-04
  6.550067e-03    4.080340e-04
  6.848997e-03    2.810396e-04
  7.147927e-03    1.931387e-04
  7.446858e-03    1.487652e-04
  7.745788e-03    1.174628e-04
  8.044719e-03    9.552243e-05
  8.343649e-03    7.796029e-05
  8.642579e-03    6.260355e-05
  8.941510e-03    5.397041e-05
  9.240440e-03    4.640092e-05
  9.539371e-03    4.000765e-05
  9.838301e-03    3.421685e-05
  1.013723e-02    2.903287e-05
  1.043616e-02    2.621281e-05
  1.073509e-02    2.297376e-05
  1.103402e-02    2.018225e-05
  1.133295e-02    1.779873e-05
  1.163188e-02    1.590931e-05
  1.193081e-02    1.469296e-05
  1.222974e-02    1.338204e-05
  1.252867e-02    1.221187e-05
  1.282760e-02    1.116037e-05
  1.312654e-02    1.022817e-05
  1.342547e-02    9.651223e-06
  1.372440e-02    8.972702e-06
  1.402333e-02    8.363681e-06
  1.432226e-02    7.860531e-06
  1.462119e-02    7.318002e-06
  1.492012e-02    6.993656e-06
  1.521905e-02    6.655673e-06
  1.551798e-02    6.369659e-06
  1.581691e-02    6.046147e-06
  1.611584e-02    5.759300e-06
  1.641477e-02    5.623948e-06
  1.671370e-02    5.533734e-06
  1.701263e-02    5.407693e-06
  1.731156e-02    5.299583e-06
  1.761049e-02    5.241536e-06
  1.790942e-02    5.176458e-06
  1.820835e-02    5.146436e-06
  1.850728e-02    5.186355e-06
  1.880621e-02    5.247834e-06
  1.910514e-02    5.277219e-06
  1.940407e-02    5.394139e-06
  1.970300e-02    5.512724e-06
  2.000193e-02    5.612219e-06
  2.030086e-02    5.743222e-06
  2.059979e-02    5.907786e-06
  2.089873e-02    6.166192e-06
  2.119766e-02    6.351675e-06
  2.149659e-02    6.575083e-06
  2.179552e-02    6.836100e-06
  2.209445e-02    7.099512e-06
  2.239338e-02    7.388234e-06
  2.269231e-02    7.669622e-06
  2.299124e-02    7.981913e-06
  2.329017e-02    8.237992e-06
  2.358910e-02    8.449563e-06
  2.388803e-02    8.654367e-06
  2.418696e-02    8.903588e-06
  2.448589e-02    9.083281e-06
  2.478482e-02    9.149443e-06
  2.508375e-02    9.228578e-06
  2.538268e-02    9.253473e-06
  2.568161e-02    9.275162e-06
  2.598054e-02    9.254944e-06
  2.627947e-02    9.120953e-06
  2.657840e-02    8.903345e-06
  2.687733e-02    8.656297e-06
  2.717626e-02    8.465026e-06
  2.747519e-02    8.223512e-06
  2.777412e-02    7.916956e-06
  2.807305e-02    7.684335e-06
  2.837198e-02    7.364720e-06
  2.867092e-02    7.084002e-06
  2.896985e-02    6.820489e-06
  2.926878e-02    6.505391e-06
  2.956771e-02    6.193625e-06
  2.986664e-02    5.955931e-06
  3.016557e-02    5.740505e-06
  3.046450e-02    5.525423e-06
  3.076343e-02    5.295421e-06
  3.106236e-02    5.052863e-06
  3.136129e-02    4.902091e-06
  3.166022e-02    4.755409e-06
  3.195915e-02    4.604958e-06
  3.225808e-02    4.453508e-06
  3.255701e-02    4.316337e-06
  3.285594e-02    4.174689e-06
  3.315487e-02    4.058340e-06
  3.345380e-02    3.979218e-06
  3.375273e-02    3.914603e-06
  3.405166e-02    3.834444e-06
  3.435059e-02    3.755722e-06
  3.464952e-02    3.665288e-06
  3.494845e-02    3.602480e-06
  3.524738e-02    3.549465e-06
  3.554631e-02    3.512953e-06
  3.584524e-02    3.457518e-06
  3.614417e-02    3.377197e-06
  3.644310e-02    3.324489e-06
  3.674204e-02    3.306748e-06
  3.704097e-02    3.278035e-06
  3.733990e-02    3.240823e-06
  3.763883e-02    3.220674e-06
  3.793776e-02    3.193225e-06
  3.823669e-02    3.175003e-06
  3.853562e-02    3.139068e-06
  3.883455e-02    3.095498e-06
  3.913348e-02    3.081548e-06
  3.943241e-02    3.075477e-06
  3.973134e-02    3.063099e-06
  4.003027e-02    3.061158e-06
  4.032920e-02    3.088765e-06
  4.062813e-02    3.052878e-06
  4.092706e-02    3.038296e-06
  4.122599e-02    3.029571e-06
  4.152492e-02    3.022711e-06
  4.182385e-02    3.001975e-06
  4.212278e-02    3.010952e-06
  4.242171e-02    2.990332e-06
  4.272064e-02    2.970300e-06
  4.301957e-02    2.977964e-06
  4.331850e-02    2.960876e-06
  4.361743e-02    2.934473e-06
  4.391636e-02    2.923272e-06
  4.421529e-02    2.928113e-06
  4.451423e-02    2.909580e-06
  4.481316e-02    2.899138e-06
  4.511209e-02    2.874348e-06
  4.541102e-02    2.842634e-06
  4.570995e-02    2.827526e-06
  4.600888e-02    2.806907e-06
  4.630781e-02    2.791286e-06
  4.660674e-02    2.737461e-06
  4.690567e-02    2.702314e-06
  4.720460e-02    2.713867e-06
  4.750353e-02    2.679412e-06
  4.780246e-02    2.606058e-06
  4.810139e-02    2.559440e-06
  4.840032e-02    2.539316e-06
  4.869925e-02    2.516864e-06
  4.899818e-02    2.477411e-06
  4.929711e-02    2.408474e-06
  4.959604e-02    2.363569e-06
  4.989497e-02    2.342330e-06
  5.019390e-02    2.284925e-06
  5.049283e-02    2.231246e-06
  5.079176e-02    2.198910e-06
  5.109069e-02    2.157062e-06
  5.138962e-02    2.119841e-06
  5.168855e-02    2.064401e-06
  5.198748e-02    2.017998e-06
  5.228642e-02    1.955071e-06
  5.258535e-02    1.922840e-06
  5.288428e-02    1.887919e-06
  5.318321e-02    1.841118e-06
  5.348214e-02    1.786529e-06
  5.378107e-02    1.746837e-06
  5.408000e-02    1.691408e-06
  5.437893e-02    1.640550e-06
  5.467786e-02    1.601668e-06
  5.497679e-02    1.570310e-06
  5.527572e-02    1.537434e-06
  5.557465e-02    1.500380e-06
  5.587358e-02    1.451152e-06
  5.617251e-02    1.402308e-06
  5.647144e-02    1.390658e-06
  5.677037e-02    1.370583e-06
  5.706930e-02    1.342214e-06
  5.736823e-02    1.297908e-06
  5.766716e-02    1.275547e-06
  5.796609e-02    1.254764e-06
  5.826502e-02    1.223221e-06
  5.856395e-02    1.193509e-06
  5.886288e-02    1.157956e-06
  5.916181e-02    1.144385e-06
  5.946074e-02    1.111852e-06
  5.975967e-02    1.084519e-06
  6.005861e-02    1.073392e-06
  6.035754e-02    1.055774e-06
  6.065647e-02    1.037935e-06
  6.095540e-02    1.030151e-06
  6.125433e-02    1.023752e-06
  6.155326e-02    9.995834e-07
  6.185219e-02    9.727653e-07
  6.215112e-02    9.505007e-07
  6.245005e-02    9.381230e-07
  6.274898e-02    9.271106e-07
  6.304791e-02    9.046746e-07
  6.334684e-02    8.886313e-07
  6.364577e-02    8.772464e-07
  6.394470e-02    8.600855e-07
  6.424363e-02    8.479697e-07
  6.454256e-02    8.395002e-07
  6.484149e-02    8.344825e-07
  6.514042e-02    8.224722e-07
  6.543935e-02    8.122910e-07
  6.573828e-02    7.968624e-07
  6.603721e-02    7.734790e-07
  6.633614e-02    7.635647e-07
  6.663507e-02    7.687101e-07
  6.693400e-02    7.629708e-07
  6.723293e-02    7.395382e-07
  6.753186e-02    7.337907e-07
  6.783080e-02    7.298508e-07
  6.812973e-02    7.206445e-07
  6.842866e-02    7.160568e-07
  6.872759e-02    7.073787e-07
  6.902652e-02    6.860263e-07
  6.932545e-02    6.825940e-07
  6.962438e-02    6.711792e-07
  6.992331e-02    6.593864e-07
  7.022224e-02    6.506877e-07
  7.052117e-02    6.341451e-07
  7.082010e-02    6.270209e-07
  7.111903e-02    6.287647e-07
  7.141796e-02    6.242683e-07
  7.171689e-02    6.176718e-07
  7.201582e-02    6.081456e-07
  7.231475e-02    6.050153e-07
  7.261368e-02    6.000469e-07
  7.291261e-02    5.908169e-07
  7.321154e-02    5.832209e-07
  7.351047e-02    5.818360e-07
  7.380940e-02    5.826847e-07
  7.410833e-02    5.752223e-07
  7.440726e-02    5.742905e-07
  7.470619e-02    5.656416e-07
  7.500512e-02    5.584372e-07
  7.530405e-02    5.651232e-07
  7.560299e-02    5.589863e-07
  7.590192e-02    5.544492e-07
  7.620085e-02    5.556687e-07
  7.649978e-02    5.488282e-07
  7.679871e-02    5.418943e-07
  7.709764e-02    5.461751e-07
  7.739657e-02    5.533924e-07
  7.769550e-02    5.471760e-07
  7.799443e-02    5.432304e-07
  7.829336e-02    5.434980e-07
  7.859229e-02    5.375552e-07
  7.889122e-02    5.309393e-07
  7.919015e-02    5.275734e-07
  7.948908e-02    5.248676e-07
  7.978801e-02    5.268436e-07
  8.008694e-02    5.296952e-07
  8.038587e-02    5.280752e-07
  8.068480e-02    5.297547e-07
  8.098373e-02    5.310552e-07
  8.128266e-02    5.377694e-07
  8.158159e-02    5.216830e-07
  8.188052e-02    5.181758e-07
  8.217945e-02    5.226499e-07
  8.247838e-02    5.240681e-07
  8.277731e-02    5.204533e-07
  8.307624e-02    5.242459e-07
  8.337518e-02    5.218481e-07
  8.367411e-02    5.212977e-07
  8.397304e-02    5.225730e-07
  8.427197e-02    5.155754e-07
  8.457090e-02    5.199647e-07
  8.486983e-02    5.172455e-07
  8.516876e-02    5.151593e-07
  8.546769e-02    5.130221e-07
  8.576662e-02    5.143494e-07
  8.606555e-02    5.137928e-07
  8.636448e-02    5.097643e-07
  8.666341e-02    5.108299e-07
  8.696234e-02    5.192646e-07
  8.726127e-02    5.211825e-07
  8.756020e-02    5.161657e-07
  8.785913e-02    5.129967e-07
  8.815806e-02    5.160475e-07
  8.845699e-02    5.234530e-07
  8.875592e-02    5.172746e-07
  8.905485e-02    5.229520e-07
  8.935378e-02    5.189942e-07
  8.965271e-02    5.198031e-07
  8.995164e-02    5.200293e-07
  9.025057e-02    5.175226e-07
  9.054950e-02    5.186306e-07
  9.084843e-02    5.247048e-07
  9.114737e-02    5.208034e-07
  9.144630e-02    5.118745e-07
  9.174523e-02    5.174886e-07
  9.204416e-02    5.166185e-07
  9.234309e-02    5.227125e-07
  9.264202e-02    5.258315e-07
  9.294095e-02    5.177098e-07
  9.323988e-02    5.177753e-07
  9.353881e-02    5.284539e-07
  9.383774e-02    5.293676e-07
  9.413667e-02    5.250020e-07
  9.443560e-02    5.217681e-07
  9.473453e-02    5.207750e-07
  9.503346e-02    5.148275e-07
  9.533239e-02    5.193273e-07
  9.563132e-02    5.213496e-07
  9.593025e-02    5.243424e-07
  9.622918e-02    5.321451e-07
  9.652811e-02    5.379027e-07
  9.682704e-02    5.331385e-07
  9.712597e-02    5.314812e-07
  9.742490e-02    5.264185e-07
  9.772383e-02    5.284476e-07
  9.802276e-02    5.292641e-07
  9.832169e-02    5.320868e-07
  9.862062e-02    5.318810e-07
  9.891956e-02    5.313577e-07
  9.921849e-02    5.287657e-07
  9.951742e-02    5.289778e-07
  9.981635e-02    5.284128e-07
  1.001153e-01    5.279829e-07
  1.004142e-01    5.276918e-07
  1.007131e-01    5.311655e-07
  1.010121e-01    5.362567e-07
  1.013110e-01    5.231719e-07
  1.016099e-01    5.256837e-07
  1.019089e-01    5.294059e-07
  1.022078e-01    5.254802e-07
  1.025067e-01    5.217811e-07
  1.028057e-01    5.215302e-07
  1.031046e-01    5.199281e-07
  1.034035e-01    5.193080e-07
  1.037024e-01    5.167669e-07
  1.040014e-01    5.114301e-07
  1.043003e-01    5.235827e-07
  1.045992e-01    5.194144e-07
  1.048982e-01    5.067798e-07
  1.051971e-01    5.147043e-07
  1.054960e-01    5.151637e-07
  1.057950e-01    5.157939e-07
  1.060939e-01    5.192223e-07
  1.063928e-01    5.148376e-07
  1.066917e-01    5.065716e-07
  1.069907e-01    5.095088e-07
  1.072896e-01    5.052996e-07
  1.075885e-01    5.115229e-07
  1.078875e-01    5.177681e-07
  1.081864e-01    5.222706e-07
  1.084853e-01    5.206686e-07
  1.087843e-01    5.115216e-07
  1.090832e-01    5.162703e-07
  1.093821e-01    5.139449e-07
  1.096810e-01    5.048759e-07
  1.099800e-01    5.090037e-07
  1.102789e-01    5.039644e-07
  1.105778e-01    5.015772e-07
  1.108768e-01    5.098413e-07
  1.111757e-01    5.043301e-07
  1.114746e-01    5.005739e-07
  1.117736e-01    4.953613e-07
  1.120725e-01    4.787324e-07
  1.123714e-01    4.763681e-07
  1.126704e-01    4.756758e-07
  1.129693e-01    4.664251e-07
  1.132682e-01    4.582663e-07
  1.135671e-01    4.576868e-07
  1.138661e-01    4.637867e-07
  1.141650e-01    4.636439e-07
  1.144639e-01    4.544186e-07
  1.147629e-01    4.519682e-07
  1.150618e-01    4.627886e-07
  1.153607e-01    4.591670e-07
  1.156597e-01    4.463696e-07
  1.159586e-01    4.441474e-07
  1.162575e-01    4.486601e-07
  1.165564e-01    4.455884e-07
  1.168554e-01    4.388241e-07
  1.171543e-01    4.431689e-07
  1.174532e-01    4.341090e-07
  1.177522e-01    4.240413e-07
  1.180511e-01    4.226453e-07
  1.183500e-01    4.350086e-07
  1.186490e-01    4.226268e-07
  1.189479e-01    4.179731e-07
  1.192468e-01    4.321821e-07
  1.195458e-01    4.374302e-07
  1.198447e-01    4.291533e-07
  1.201436e-01    4.204201e-07
  1.204425e-01    3.833189e-07
  1.207415e-01    4.546241e-07
  1.210404e-01    5.027879e-07
  1.213393e-01    0.000000e+00
  1.216383e-01    0.000000e+00
  1.219372e-01    0.000000e+00
  1.222361e-01    0.000000e+00
  1.225351e-01    0.000000e+00
  1.228340e-01    0.000000e+00
  1.231329e-01    0.000000e+00
  1.234318e-01    0.000000e+00
  1.237308e-01    0.000000e+00
  1.240297e-01    0.000000e+00
  1.243286e-01    0.000000e+00
  1.246276e-01    0.000000e+00
  1.249265e-01    0.000000e+00
  1.252254e-01    0.000000e+00
  1.255244e-01    0.000000e+00
  1.258233e-01    0.000000e+00
  1.261222e-01    0.000000e+00
  1.264212e-01    0.000000e+00
  1.267201e-01    0.000000e+00
  1.270190e-01    0.000000e+00
  1.273179e-01    0.000000e+00
  1.276169e-01    0.000000e+00
  1.279158e-01    0.000000e+00
  1.282147e-01    0.000000e+00
  1.285137e-01    0.000000e+00
  1.288126e-01    0.000000e+00
  1.291115e-01    0.000000e+00
  1.294105e-01    0.000000e+00
  1.297094e-01    0.000000e+00
  1.300083e-01    0.000000e+00
  1.303072e-01    0.000000e+00
  1.306062e-01    0.000000e+00
  1.309051e-01    0.000000e+00
  1.312040e-01    0.000000e+00
  1.315030e-01    0.000000e+00
  1.318019e-01    0.000000e+00
  1.321008e-01    0.000000e+00
  1.323998e-01    0.000000e+00
  1.326987e-01    0.000000e+00
  1.329976e-01    0.000000e+00
  1.332965e-01    0.000000e+00
  1.335955e-01    0.000000e+00
  1.338944e-01    0.000000e+00
  1.341933e-01    0.000000e+00
  1.344923e-01    0.000000e+00
  1.347912e-01    0.000000e+00
  1.350901e-01    0.000000e+00
  1.353891e-01    0.000000e+00
  1.356880e-01    0.000000e+00
  1.359869e-01    0.000000e+00
  1.362859e-01    0.000000e+00
  1.365848e-01    0.000000e+00
  1.368837e-01    0.000000e+00
  1.371826e-01    0.000000e+00
  1.374816e-01    0.000000e+00
  1.377805e-01    0.000000e+00
  1.380794e-01    0.000000e+00
  1.383784e-01    0.000000e+00
  1.386773e-01    0.000000e+00
  1.389762e-01    0.000000e+00
  1.392752e-01    0.000000e+00
  1.395741e-01    0.000000e+00
  1.398730e-01    0.000000e+00
  1.401719e-01    0.000000e+00
  1.404709e-01    0.000000e+00
  1.407698e-01    0.000000e+00
  1.410687e-01    0.000000e+00
  1.413677e-01    0.000000e+00
  1.416666e-01    0.000000e+00
  1.419655e-01    0.000000e+00
  1.422645e-01    0.000000e+00
  1.425634e-01    0.000000e+00
  1.428623e-01    0.000000e+00
  1.431613e-01    0.000000e+00
  1.434602e-01    0.000000e+00
  1.437591e-01    0.000000e+00
  1.440580e-01    0.000000e+00
  1.443570e-01    0.000000e+00
  1.446559e-01    0.000000e+00
  1.449548e-01    0.000000e+00
  1.452538e-01    0.000000e+00
  1.455527e-01    0.000000e+00
  1.458516e-01    0.000000e+00
  1.461506e-01    0.000000e+00
  1.464495e-01    0.000000e+00
  1.467484e-01    0.000000e+00
  1.470473e-01    0.000000e+00
  1.473463e-01    0.000000e+00
  1.476452e-01    0.000000e+00
  1.479441e-01    0.000000e+00
  1.482431e-01    0.000000e+00
  1.485420e-01    0.000000e+00
  1.488409e-01    0.000000e+00
  1.491399e-01    0.000000e+00
  1.494388e-01    0.000000e+00
  1.497377e-01    0.000000e+00
  1.500367e-01    0.000000e+00
  1.503356e-01    0.000000e+00
  1.506345e-01    0.000000e+00
  1.509334e-01    0.000000e+00
  1.512324e-01    0.000000e+00
  1.515313e-01    0.000000e+00
  1.518302e-01    0.000000e+00
  1.521292e-01    0.000000e+00
  1.524281e-01    0.000000e+00
  1.527270e-01    0.000000e+00
  1.530260e-01    0.000000e+00
  1.533249e-01    0.000000e+00
  1.536238e-01    0.000000e+00
