# == pyFAI calibration ==
# Distance Sample to Detector: 2.266 m
# PONI: 5.659e-02, 4.293e-02 m
# Rotations: 0.000000 0.000000 0.000000 rad
# 
# == Fit2d calibration ==
# Distance Sample-beamCenter: 2266.000 mm
# Center: x=249.594, y=329.012 pix
# Tilt: 0.000 deg  TiltPlanRot: 0.000 deg
# 
# Detector Pilatus 300k	 PixelSize= 1.720e-04, 1.720e-04 m
#    Detector has a mask: True 
#    Detector has a dark current: False 
#    detector has a flat field: False 
# 
# Wavelength: 1.27818e-10 m
# Mask applied: user provided
# Dark current applied: False
# Flat field applied: False
# Polarization factor: None
# Normalization factor: 16838628.8
# --> AL_F127_220301_b425f2ad-de44-4ff9-850b-951a81a4e330_1_r1d.csv
#        q_A^-1             I 
  4.457554e-03    5.475549e-04
  4.756484e-03    4.297751e-04
  5.055415e-03    3.118288e-04
  5.354345e-03    2.240005e-04
  5.653276e-03    1.748552e-04
  5.952206e-03    2.730372e-04
  6.251136e-03    2.458254e-04
  6.550067e-03    2.101561e-04
  6.848997e-03    1.769388e-04
  7.147927e-03    1.498364e-04
  7.446858e-03    1.283467e-04
  7.745788e-03    1.108314e-04
  8.044719e-03    9.625438e-05
  8.343649e-03    8.451844e-05
  8.642579e-03    7.438964e-05
  8.941510e-03    6.585515e-05
  9.240440e-03    5.885675e-05
  9.539371e-03    5.269880e-05
  9.838301e-03    4.734163e-05
  1.013723e-02    4.290382e-05
  1.043616e-02    3.883537e-05
  1.073509e-02    3.525438e-05
  1.103402e-02    3.257129e-05
  1.133295e-02    2.986960e-05
  1.163188e-02    2.742890e-05
  1.193081e-02    2.539755e-05
  1.222974e-02    2.353869e-05
  1.252867e-02    2.190207e-05
  1.282760e-02    2.054014e-05
  1.312654e-02    1.935860e-05
  1.342547e-02    1.820663e-05
  1.372440e-02    1.716277e-05
  1.402333e-02    1.630127e-05
  1.432226e-02    1.562417e-05
  1.462119e-02    1.482937e-05
  1.492012e-02    1.415351e-05
  1.521905e-02    1.360750e-05
  1.551798e-02    1.312930e-05
  1.581691e-02    1.272573e-05
  1.611584e-02    1.233588e-05
  1.641477e-02    1.204824e-05
  1.671370e-02    1.176188e-05
  1.701263e-02    1.162085e-05
  1.731156e-02    1.148685e-05
  1.761049e-02    1.133746e-05
  1.790942e-02    1.116957e-05
  1.820835e-02    1.112171e-05
  1.850728e-02    1.111290e-05
  1.880621e-02    1.116883e-05
  1.910514e-02    1.129880e-05
  1.940407e-02    1.135794e-05
  1.970300e-02    1.142606e-05
  2.000193e-02    1.155854e-05
  2.030086e-02    1.176758e-05
  2.059979e-02    1.202903e-05
  2.089873e-02    1.225759e-05
  2.119766e-02    1.255414e-05
  2.149659e-02    1.278187e-05
  2.179552e-02    1.304102e-05
  2.209445e-02    1.330377e-05
  2.239338e-02    1.362086e-05
  2.269231e-02    1.393066e-05
  2.299124e-02    1.422441e-05
  2.329017e-02    1.450307e-05
  2.358910e-02    1.475027e-05
  2.388803e-02    1.498760e-05
  2.418696e-02    1.518276e-05
  2.448589e-02    1.533249e-05
  2.478482e-02    1.550155e-05
  2.508375e-02    1.564826e-05
  2.538268e-02    1.576605e-05
  2.568161e-02    1.573996e-05
  2.598054e-02    1.573141e-05
  2.627947e-02    1.568138e-05
  2.657840e-02    1.557784e-05
  2.687733e-02    1.547256e-05
  2.717626e-02    1.527667e-05
  2.747519e-02    1.496118e-05
  2.777412e-02    1.476137e-05
  2.807305e-02    1.459464e-05
  2.837198e-02    1.426683e-05
  2.867092e-02    1.396234e-05
  2.896985e-02    1.365552e-05
  2.926878e-02    1.334582e-05
  2.956771e-02    1.310929e-05
  2.986664e-02    1.284386e-05
  3.016557e-02    1.259518e-05
  3.046450e-02    1.239835e-05
  3.076343e-02    1.211514e-05
  3.106236e-02    1.183276e-05
  3.136129e-02    1.162718e-05
  3.166022e-02    1.139408e-05
  3.195915e-02    1.123417e-05
  3.225808e-02    1.102249e-05
  3.255701e-02    1.080898e-05
  3.285594e-02    1.067746e-05
  3.315487e-02    1.053570e-05
  3.345380e-02    1.041729e-05
  3.375273e-02    1.024307e-05
  3.405166e-02    1.012419e-05
  3.435059e-02    9.974970e-06
  3.464952e-02    9.843531e-06
  3.494845e-02    9.748638e-06
  3.524738e-02    9.672657e-06
  3.554631e-02    9.591750e-06
  3.584524e-02    9.523887e-06
  3.614417e-02    9.405406e-06
  3.644310e-02    9.325589e-06
  3.674204e-02    9.240683e-06
  3.704097e-02    9.225233e-06
  3.733990e-02    9.219669e-06
  3.763883e-02    9.137747e-06
  3.793776e-02    9.003295e-06
  3.823669e-02    8.988861e-06
  3.853562e-02    8.967387e-06
  3.883455e-02    8.928891e-06
  3.913348e-02    8.910767e-06
  3.943241e-02    8.879258e-06
  3.973134e-02    8.899989e-06
  4.003027e-02    8.860721e-06
  4.032920e-02    8.836720e-06
  4.062813e-02    8.795376e-06
  4.092706e-02    8.773740e-06
  4.122599e-02    8.784945e-06
  4.152492e-02    8.771267e-06
  4.182385e-02    8.677992e-06
  4.212278e-02    8.618673e-06
  4.242171e-02    8.622451e-06
  4.272064e-02    8.641696e-06
  4.301957e-02    8.603945e-06
  4.331850e-02    8.526201e-06
  4.361743e-02    8.490059e-06
  4.391636e-02    8.420016e-06
  4.421529e-02    8.428359e-06
  4.451423e-02    8.429000e-06
  4.481316e-02    8.393679e-06
  4.511209e-02    8.294524e-06
  4.541102e-02    8.250149e-06
  4.570995e-02    8.215892e-06
  4.600888e-02    8.155581e-06
  4.630781e-02    8.145588e-06
  4.660674e-02    8.068312e-06
  4.690567e-02    7.974980e-06
  4.720460e-02    7.911449e-06
  4.750353e-02    7.841313e-06
  4.780246e-02    7.753189e-06
  4.810139e-02    7.685038e-06
  4.840032e-02    7.622871e-06
  4.869925e-02    7.562550e-06
  4.899818e-02    7.482224e-06
  4.929711e-02    7.411098e-06
  4.959604e-02    7.329209e-06
  4.989497e-02    7.217965e-06
  5.019390e-02    7.094477e-06
  5.049283e-02    7.034830e-06
  5.079176e-02    6.950949e-06
  5.109069e-02    6.865422e-06
  5.138962e-02    6.768886e-06
  5.168855e-02    6.694478e-06
  5.198748e-02    6.608815e-06
  5.228642e-02    6.500615e-06
  5.258535e-02    6.365372e-06
  5.288428e-02    6.218194e-06
  5.318321e-02    6.151015e-06
  5.348214e-02    6.079784e-06
  5.378107e-02    5.995428e-06
  5.408000e-02    5.919816e-06
  5.437893e-02    5.844893e-06
  5.467786e-02    5.694263e-06
  5.497679e-02    5.590672e-06
  5.527572e-02    5.533733e-06
  5.557465e-02    5.461765e-06
  5.587358e-02    5.380813e-06
  5.617251e-02    5.274481e-06
  5.647144e-02    5.197330e-06
  5.677037e-02    5.130645e-06
  5.706930e-02    5.048500e-06
  5.736823e-02    4.956511e-06
  5.766716e-02    4.872320e-06
  5.796609e-02    4.801363e-06
  5.826502e-02    4.725580e-06
  5.856395e-02    4.664124e-06
  5.886288e-02    4.632812e-06
  5.916181e-02    4.556544e-06
  5.946074e-02    4.479432e-06
  5.975967e-02    4.429768e-06
  6.005861e-02    4.380921e-06
  6.035754e-02    4.330866e-06
  6.065647e-02    4.262356e-06
  6.095540e-02    4.217186e-06
  6.125433e-02    4.180333e-06
  6.155326e-02    4.126710e-06
  6.185219e-02    4.055183e-06
  6.215112e-02    3.989682e-06
  6.245005e-02    3.940656e-06
  6.274898e-02    3.913275e-06
  6.304791e-02    3.865468e-06
  6.334684e-02    3.809008e-06
  6.364577e-02    3.760518e-06
  6.394470e-02    3.719693e-06
  6.424363e-02    3.680512e-06
  6.454256e-02    3.665793e-06
  6.484149e-02    3.640854e-06
  6.514042e-02    3.587671e-06
  6.543935e-02    3.544838e-06
  6.573828e-02    3.503241e-06
  6.603721e-02    3.470209e-06
  6.633614e-02    3.442844e-06
  6.663507e-02    3.427998e-06
  6.693400e-02    3.396197e-06
  6.723293e-02    3.355459e-06
  6.753186e-02    3.339694e-06
  6.783080e-02    3.286301e-06
  6.812973e-02    3.267256e-06
  6.842866e-02    3.244885e-06
  6.872759e-02    3.219350e-06
  6.902652e-02    3.200799e-06
  6.932545e-02    3.183789e-06
  6.962438e-02    3.154950e-06
  6.992331e-02    3.129544e-06
  7.022224e-02    3.108758e-06
  7.052117e-02    3.090908e-06
  7.082010e-02    3.054570e-06
  7.111903e-02    3.028936e-06
  7.141796e-02    3.013059e-06
  7.171689e-02    2.991277e-06
  7.201582e-02    2.977658e-06
  7.231475e-02    2.959330e-06
  7.261368e-02    2.955995e-06
  7.291261e-02    2.943428e-06
  7.321154e-02    2.915109e-06
  7.351047e-02    2.893973e-06
  7.380940e-02    2.880192e-06
  7.410833e-02    2.863349e-06
  7.440726e-02    2.857762e-06
  7.470619e-02    2.833622e-06
  7.500512e-02    2.818513e-06
  7.530405e-02    2.807729e-06
  7.560299e-02    2.799431e-06
  7.590192e-02    2.791285e-06
  7.620085e-02    2.767483e-06
  7.649978e-02    2.746316e-06
  7.679871e-02    2.747408e-06
  7.709764e-02    2.752542e-06
  7.739657e-02    2.736002e-06
  7.769550e-02    2.706743e-06
  7.799443e-02    2.700534e-06
  7.829336e-02    2.706687e-06
  7.859229e-02    2.698805e-06
  7.889122e-02    2.680460e-06
  7.919015e-02    2.668785e-06
  7.948908e-02    2.668925e-06
  7.978801e-02    2.665971e-06
  8.008694e-02    2.654767e-06
  8.038587e-02    2.635798e-06
  8.068480e-02    2.631396e-06
  8.098373e-02    2.622592e-06
  8.128266e-02    2.621216e-06
  8.158159e-02    2.609227e-06
  8.188052e-02    2.620898e-06
  8.217945e-02    2.619215e-06
  8.247838e-02    2.594556e-06
  8.277731e-02    2.586382e-06
  8.307624e-02    2.584391e-06
  8.337518e-02    2.582572e-06
  8.367411e-02    2.582250e-06
  8.397304e-02    2.584730e-06
  8.427197e-02    2.570040e-06
  8.457090e-02    2.570769e-06
  8.486983e-02    2.570307e-06
  8.516876e-02    2.561010e-06
  8.546769e-02    2.559944e-06
  8.576662e-02    2.560746e-06
  8.606555e-02    2.563780e-06
  8.636448e-02    2.551952e-06
  8.666341e-02    2.547537e-06
  8.696234e-02    2.532578e-06
  8.726127e-02    2.541588e-06
  8.756020e-02    2.544870e-06
  8.785913e-02    2.519623e-06
  8.815806e-02    2.518409e-06
  8.845699e-02    2.520259e-06
  8.875592e-02    2.524758e-06
  8.905485e-02    2.521364e-06
  8.935378e-02    2.533593e-06
  8.965271e-02    2.540539e-06
  8.995164e-02    2.536353e-06
  9.025057e-02    2.535176e-06
  9.054950e-02    2.513525e-06
  9.084843e-02    2.503207e-06
  9.114737e-02    2.523850e-06
  9.144630e-02    2.526386e-06
  9.174523e-02    2.518218e-06
  9.204416e-02    2.518313e-06
  9.234309e-02    2.504947e-06
  9.264202e-02    2.504394e-06
  9.294095e-02    2.497553e-06
  9.323988e-02    2.503680e-06
  9.353881e-02    2.498363e-06
  9.383774e-02    2.488626e-06
  9.413667e-02    2.488162e-06
  9.443560e-02    2.492228e-06
  9.473453e-02    2.492186e-06
  9.503346e-02    2.495121e-06
  9.533239e-02    2.496912e-06
  9.563132e-02    2.500997e-06
  9.593025e-02    2.492586e-06
  9.622918e-02    2.491012e-06
  9.652811e-02    2.500130e-06
  9.682704e-02    2.510870e-06
  9.712597e-02    2.502990e-06
  9.742490e-02    2.494255e-06
  9.772383e-02    2.491917e-06
  9.802276e-02    2.477343e-06
  9.832169e-02    2.468912e-06
  9.862062e-02    2.483041e-06
  9.891956e-02    2.490946e-06
  9.921849e-02    2.476035e-06
  9.951742e-02    2.471886e-06
  9.981635e-02    2.471066e-06
  1.001153e-01    2.473369e-06
  1.004142e-01    2.471098e-06
  1.007131e-01    2.456718e-06
  1.010121e-01    2.456249e-06
  1.013110e-01    2.479350e-06
  1.016099e-01    2.485755e-06
  1.019089e-01    2.459224e-06
  1.022078e-01    2.449141e-06
  1.025067e-01    2.457997e-06
  1.028057e-01    2.455533e-06
  1.031046e-01    2.455010e-06
  1.034035e-01    2.445268e-06
  1.037024e-01    2.455387e-06
  1.040014e-01    2.461687e-06
  1.043003e-01    2.461502e-06
  1.045992e-01    2.458532e-06
  1.048982e-01    2.456336e-06
  1.051971e-01    2.446275e-06
  1.054960e-01    2.436851e-06
  1.057950e-01    2.435391e-06
  1.060939e-01    2.429647e-06
  1.063928e-01    2.425496e-06
  1.066917e-01    2.432772e-06
  1.069907e-01    2.432685e-06
  1.072896e-01    2.438794e-06
  1.075885e-01    2.433622e-06
  1.078875e-01    2.427647e-06
  1.081864e-01    2.443672e-06
  1.084853e-01    2.450610e-06
  1.087843e-01    2.442491e-06
  1.090832e-01    2.449809e-06
  1.093821e-01    2.442549e-06
  1.096810e-01    2.426640e-06
  1.099800e-01    2.425397e-06
  1.102789e-01    2.423983e-06
  1.105778e-01    2.418131e-06
  1.108768e-01    2.414247e-06
  1.111757e-01    2.406464e-06
  1.114746e-01    2.398010e-06
  1.117736e-01    2.397677e-06
  1.120725e-01    2.379593e-06
  1.123714e-01    2.373615e-06
  1.126704e-01    2.324697e-06
  1.129693e-01    2.293100e-06
  1.132682e-01    2.279693e-06
  1.135671e-01    2.248090e-06
  1.138661e-01    2.231292e-06
  1.141650e-01    2.196445e-06
  1.144639e-01    2.198733e-06
  1.147629e-01    2.216884e-06
  1.150618e-01    2.208956e-06
  1.153607e-01    2.196703e-06
  1.156597e-01    2.170463e-06
  1.159586e-01    2.188419e-06
  1.162575e-01    2.213488e-06
  1.165564e-01    2.201670e-06
  1.168554e-01    2.164264e-06
  1.171543e-01    2.180099e-06
  1.174532e-01    2.179896e-06
  1.177522e-01    2.189118e-06
  1.180511e-01    2.182451e-06
  1.183500e-01    2.164106e-06
  1.186490e-01    2.167177e-06
  1.189479e-01    2.154346e-06
  1.192468e-01    2.132598e-06
  1.195458e-01    2.114186e-06
  1.198447e-01    2.100286e-06
  1.201436e-01    2.114032e-06
  1.204425e-01    2.095947e-06
  1.207415e-01    1.955614e-06
  1.210404e-01    1.842673e-06
  1.213393e-01    0.000000e+00
  1.216383e-01    0.000000e+00
  1.219372e-01    0.000000e+00
  1.222361e-01    0.000000e+00
  1.225351e-01    0.000000e+00
  1.228340e-01    0.000000e+00
  1.231329e-01    0.000000e+00
  1.234318e-01    0.000000e+00
  1.237308e-01    0.000000e+00
  1.240297e-01    0.000000e+00
  1.243286e-01    0.000000e+00
  1.246276e-01    0.000000e+00
  1.249265e-01    0.000000e+00
  1.252254e-01    0.000000e+00
  1.255244e-01    0.000000e+00
  1.258233e-01    0.000000e+00
  1.261222e-01    0.000000e+00
  1.264212e-01    0.000000e+00
  1.267201e-01    0.000000e+00
  1.270190e-01    0.000000e+00
  1.273179e-01    0.000000e+00
  1.276169e-01    0.000000e+00
  1.279158e-01    0.000000e+00
  1.282147e-01    0.000000e+00
  1.285137e-01    0.000000e+00
  1.288126e-01    0.000000e+00
  1.291115e-01    0.000000e+00
  1.294105e-01    0.000000e+00
  1.297094e-01    0.000000e+00
  1.300083e-01    0.000000e+00
  1.303072e-01    0.000000e+00
  1.306062e-01    0.000000e+00
  1.309051e-01    0.000000e+00
  1.312040e-01    0.000000e+00
  1.315030e-01    0.000000e+00
  1.318019e-01    0.000000e+00
  1.321008e-01    0.000000e+00
  1.323998e-01    0.000000e+00
  1.326987e-01    0.000000e+00
  1.329976e-01    0.000000e+00
  1.332965e-01    0.000000e+00
  1.335955e-01    0.000000e+00
  1.338944e-01    0.000000e+00
  1.341933e-01    0.000000e+00
  1.344923e-01    0.000000e+00
  1.347912e-01    0.000000e+00
  1.350901e-01    0.000000e+00
  1.353891e-01    0.000000e+00
  1.356880e-01    0.000000e+00
  1.359869e-01    0.000000e+00
  1.362859e-01    0.000000e+00
  1.365848e-01    0.000000e+00
  1.368837e-01    0.000000e+00
  1.371826e-01    0.000000e+00
  1.374816e-01    0.000000e+00
  1.377805e-01    0.000000e+00
  1.380794e-01    0.000000e+00
  1.383784e-01    0.000000e+00
  1.386773e-01    0.000000e+00
  1.389762e-01    0.000000e+00
  1.392752e-01    0.000000e+00
  1.395741e-01    0.000000e+00
  1.398730e-01    0.000000e+00
  1.401719e-01    0.000000e+00
  1.404709e-01    0.000000e+00
  1.407698e-01    0.000000e+00
  1.410687e-01    0.000000e+00
  1.413677e-01    0.000000e+00
  1.416666e-01    0.000000e+00
  1.419655e-01    0.000000e+00
  1.422645e-01    0.000000e+00
  1.425634e-01    0.000000e+00
  1.428623e-01    0.000000e+00
  1.431613e-01    0.000000e+00
  1.434602e-01    0.000000e+00
  1.437591e-01    0.000000e+00
  1.440580e-01    0.000000e+00
  1.443570e-01    0.000000e+00
  1.446559e-01    0.000000e+00
  1.449548e-01    0.000000e+00
  1.452538e-01    0.000000e+00
  1.455527e-01    0.000000e+00
  1.458516e-01    0.000000e+00
  1.461506e-01    0.000000e+00
  1.464495e-01    0.000000e+00
  1.467484e-01    0.000000e+00
  1.470473e-01    0.000000e+00
  1.473463e-01    0.000000e+00
  1.476452e-01    0.000000e+00
  1.479441e-01    0.000000e+00
  1.482431e-01    0.000000e+00
  1.485420e-01    0.000000e+00
  1.488409e-01    0.000000e+00
  1.491399e-01    0.000000e+00
  1.494388e-01    0.000000e+00
  1.497377e-01    0.000000e+00
  1.500367e-01    0.000000e+00
  1.503356e-01    0.000000e+00
  1.506345e-01    0.000000e+00
  1.509334e-01    0.000000e+00
  1.512324e-01    0.000000e+00
  1.515313e-01    0.000000e+00
  1.518302e-01    0.000000e+00
  1.521292e-01    0.000000e+00
  1.524281e-01    0.000000e+00
  1.527270e-01    0.000000e+00
  1.530260e-01    0.000000e+00
  1.533249e-01    0.000000e+00
  1.536238e-01    0.000000e+00
