# == pyFAI calibration ==
# Distance Sample to Detector: 2.266 m
# PONI: 5.659e-02, 4.293e-02 m
# Rotations: 0.000000 0.000000 0.000000 rad
# 
# == Fit2d calibration ==
# Distance Sample-beamCenter: 2266.000 mm
# Center: x=249.594, y=329.012 pix
# Tilt: 0.000 deg  TiltPlanRot: 0.000 deg
# 
# Detector Pilatus 300k	 PixelSize= 1.720e-04, 1.720e-04 m
#    Detector has a mask: True 
#    Detector has a dark current: False 
#    detector has a flat field: False 
# 
# Wavelength: 1.27818e-10 m
# Mask applied: user provided
# Dark current applied: False
# Flat field applied: False
# Polarization factor: None
# Normalization factor: 10479381.6
# --> AL_F127_220226_e1be8a91-e358-4f05-b3be-0048a1cc9f1f_0_r1d.csv
#        q_A^-1             I 
  4.457554e-03    1.327779e-04
  4.756484e-03    1.053930e-04
  5.055415e-03    7.471239e-05
  5.354345e-03    5.146863e-05
  5.653276e-03    3.960078e-05
  5.952206e-03    5.798539e-05
  6.251136e-03    5.304226e-05
  6.550067e-03    4.687492e-05
  6.848997e-03    4.062809e-05
  7.147927e-03    3.525985e-05
  7.446858e-03    3.082795e-05
  7.745788e-03    2.723345e-05
  8.044719e-03    2.420800e-05
  8.343649e-03    2.204069e-05
  8.642579e-03    2.002550e-05
  8.941510e-03    1.835324e-05
  9.240440e-03    1.693479e-05
  9.539371e-03    1.568618e-05
  9.838301e-03    1.473202e-05
  1.013723e-02    1.386641e-05
  1.043616e-02    1.328785e-05
  1.073509e-02    1.271618e-05
  1.103402e-02    1.213823e-05
  1.133295e-02    1.176235e-05
  1.163188e-02    1.150362e-05
  1.193081e-02    1.123063e-05
  1.222974e-02    1.098315e-05
  1.252867e-02    1.078744e-05
  1.282760e-02    1.064213e-05
  1.312654e-02    1.046473e-05
  1.342547e-02    1.045162e-05
  1.372440e-02    1.037507e-05
  1.402333e-02    1.035033e-05
  1.432226e-02    1.031258e-05
  1.462119e-02    1.042389e-05
  1.492012e-02    1.046113e-05
  1.521905e-02    1.040228e-05
  1.551798e-02    1.042316e-05
  1.581691e-02    1.051006e-05
  1.611584e-02    1.065474e-05
  1.641477e-02    1.085799e-05
  1.671370e-02    1.107992e-05
  1.701263e-02    1.130350e-05
  1.731156e-02    1.147923e-05
  1.761049e-02    1.178977e-05
  1.790942e-02    1.203805e-05
  1.820835e-02    1.239199e-05
  1.850728e-02    1.279493e-05
  1.880621e-02    1.316717e-05
  1.910514e-02    1.355557e-05
  1.940407e-02    1.408515e-05
  1.970300e-02    1.469610e-05
  2.000193e-02    1.530515e-05
  2.030086e-02    1.596543e-05
  2.059979e-02    1.668036e-05
  2.089873e-02    1.731850e-05
  2.119766e-02    1.814167e-05
  2.149659e-02    1.903090e-05
  2.179552e-02    1.987293e-05
  2.209445e-02    2.081445e-05
  2.239338e-02    2.188870e-05
  2.269231e-02    2.300946e-05
  2.299124e-02    2.417612e-05
  2.329017e-02    2.534642e-05
  2.358910e-02    2.656859e-05
  2.388803e-02    2.791675e-05
  2.418696e-02    2.920656e-05
  2.448589e-02    3.033958e-05
  2.478482e-02    3.151921e-05
  2.508375e-02    3.269451e-05
  2.538268e-02    3.383413e-05
  2.568161e-02    3.487652e-05
  2.598054e-02    3.577203e-05
  2.627947e-02    3.657218e-05
  2.657840e-02    3.722015e-05
  2.687733e-02    3.774339e-05
  2.717626e-02    3.800994e-05
  2.747519e-02    3.798282e-05
  2.777412e-02    3.788234e-05
  2.807305e-02    3.756355e-05
  2.837198e-02    3.698630e-05
  2.867092e-02    3.625563e-05
  2.896985e-02    3.545168e-05
  2.926878e-02    3.436231e-05
  2.956771e-02    3.327237e-05
  2.986664e-02    3.196238e-05
  3.016557e-02    3.067189e-05
  3.046450e-02    2.940177e-05
  3.076343e-02    2.810017e-05
  3.106236e-02    2.679273e-05
  3.136129e-02    2.543335e-05
  3.166022e-02    2.415605e-05
  3.195915e-02    2.291232e-05
  3.225808e-02    2.156519e-05
  3.255701e-02    2.042832e-05
  3.285594e-02    1.938125e-05
  3.315487e-02    1.835842e-05
  3.345380e-02    1.740761e-05
  3.375273e-02    1.644033e-05
  3.405166e-02    1.560935e-05
  3.435059e-02    1.482801e-05
  3.464952e-02    1.400911e-05
  3.494845e-02    1.335980e-05
  3.524738e-02    1.274415e-05
  3.554631e-02    1.214781e-05
  3.584524e-02    1.160401e-05
  3.614417e-02    1.106915e-05
  3.644310e-02    1.057930e-05
  3.674204e-02    1.013092e-05
  3.704097e-02    9.703812e-06
  3.733990e-02    9.334545e-06
  3.763883e-02    8.956209e-06
  3.793776e-02    8.657012e-06
  3.823669e-02    8.315890e-06
  3.853562e-02    8.050912e-06
  3.883455e-02    7.815823e-06
  3.913348e-02    7.586516e-06
  3.943241e-02    7.345504e-06
  3.973134e-02    7.085468e-06
  4.003027e-02    6.861690e-06
  4.032920e-02    6.673044e-06
  4.062813e-02    6.537061e-06
  4.092706e-02    6.391465e-06
  4.122599e-02    6.215802e-06
  4.152492e-02    6.053852e-06
  4.182385e-02    5.935608e-06
  4.212278e-02    5.804611e-06
  4.242171e-02    5.698439e-06
  4.272064e-02    5.618670e-06
  4.301957e-02    5.474746e-06
  4.331850e-02    5.358389e-06
  4.361743e-02    5.246377e-06
  4.391636e-02    5.148469e-06
  4.421529e-02    5.065652e-06
  4.451423e-02    4.993108e-06
  4.481316e-02    4.900525e-06
  4.511209e-02    4.845780e-06
  4.541102e-02    4.755999e-06
  4.570995e-02    4.665233e-06
  4.600888e-02    4.618869e-06
  4.630781e-02    4.523420e-06
  4.660674e-02    4.464131e-06
  4.690567e-02    4.403093e-06
  4.720460e-02    4.340051e-06
  4.750353e-02    4.239089e-06
  4.780246e-02    4.163220e-06
  4.810139e-02    4.119521e-06
  4.840032e-02    4.043655e-06
  4.869925e-02    3.994458e-06
  4.899818e-02    3.938040e-06
  4.929711e-02    3.867684e-06
  4.959604e-02    3.807249e-06
  4.989497e-02    3.712548e-06
  5.019390e-02    3.677822e-06
  5.049283e-02    3.634358e-06
  5.079176e-02    3.553158e-06
  5.109069e-02    3.474227e-06
  5.138962e-02    3.418946e-06
  5.168855e-02    3.336189e-06
  5.198748e-02    3.277758e-06
  5.228642e-02    3.188936e-06
  5.258535e-02    3.134801e-06
  5.288428e-02    3.065922e-06
  5.318321e-02    3.005089e-06
  5.348214e-02    2.949868e-06
  5.378107e-02    2.859166e-06
  5.408000e-02    2.772717e-06
  5.437893e-02    2.718628e-06
  5.467786e-02    2.648658e-06
  5.497679e-02    2.558052e-06
  5.527572e-02    2.509554e-06
  5.557465e-02    2.452063e-06
  5.587358e-02    2.390265e-06
  5.617251e-02    2.326872e-06
  5.647144e-02    2.242911e-06
  5.677037e-02    2.184229e-06
  5.706930e-02    2.125573e-06
  5.736823e-02    2.068349e-06
  5.766716e-02    2.022540e-06
  5.796609e-02    1.960891e-06
  5.826502e-02    1.917804e-06
  5.856395e-02    1.857686e-06
  5.886288e-02    1.802442e-06
  5.916181e-02    1.739624e-06
  5.946074e-02    1.684071e-06
  5.975967e-02    1.654963e-06
  6.005861e-02    1.612300e-06
  6.035754e-02    1.573395e-06
  6.065647e-02    1.509832e-06
  6.095540e-02    1.461254e-06
  6.125433e-02    1.439180e-06
  6.155326e-02    1.398208e-06
  6.185219e-02    1.367500e-06
  6.215112e-02    1.338885e-06
  6.245005e-02    1.292637e-06
  6.274898e-02    1.254961e-06
  6.304791e-02    1.237555e-06
  6.334684e-02    1.199449e-06
  6.364577e-02    1.163509e-06
  6.394470e-02    1.142241e-06
  6.424363e-02    1.110373e-06
  6.454256e-02    1.069079e-06
  6.484149e-02    1.045862e-06
  6.514042e-02    1.030371e-06
  6.543935e-02    1.008801e-06
  6.573828e-02    9.870115e-07
  6.603721e-02    9.703019e-07
  6.633614e-02    9.535685e-07
  6.663507e-02    9.377019e-07
  6.693400e-02    9.083826e-07
  6.723293e-02    8.919648e-07
  6.753186e-02    8.869690e-07
  6.783080e-02    8.671402e-07
  6.812973e-02    8.503171e-07
  6.842866e-02    8.363242e-07
  6.872759e-02    8.247612e-07
  6.902652e-02    8.166493e-07
  6.932545e-02    8.080525e-07
  6.962438e-02    7.930914e-07
  6.992331e-02    7.716798e-07
  7.022224e-02    7.547934e-07
  7.052117e-02    7.407029e-07
  7.082010e-02    7.326470e-07
  7.111903e-02    7.280523e-07
  7.141796e-02    7.160831e-07
  7.171689e-02    7.077522e-07
  7.201582e-02    6.988615e-07
  7.231475e-02    6.912009e-07
  7.261368e-02    6.736983e-07
  7.291261e-02    6.655652e-07
  7.321154e-02    6.686905e-07
  7.351047e-02    6.572066e-07
  7.380940e-02    6.490894e-07
  7.410833e-02    6.466931e-07
  7.440726e-02    6.456356e-07
  7.470619e-02    6.417555e-07
  7.500512e-02    6.257442e-07
  7.530405e-02    6.238431e-07
  7.560299e-02    6.263601e-07
  7.590192e-02    6.236955e-07
  7.620085e-02    6.169283e-07
  7.649978e-02    6.128597e-07
  7.679871e-02    6.100620e-07
  7.709764e-02    6.168069e-07
  7.739657e-02    6.160611e-07
  7.769550e-02    6.053278e-07
  7.799443e-02    6.019589e-07
  7.829336e-02    6.055251e-07
  7.859229e-02    5.998543e-07
  7.889122e-02    6.006683e-07
  7.919015e-02    5.969616e-07
  7.948908e-02    5.846669e-07
  7.978801e-02    5.746517e-07
  8.008694e-02    5.821200e-07
  8.038587e-02    5.899121e-07
  8.068480e-02    5.920743e-07
  8.098373e-02    5.912050e-07
  8.128266e-02    5.850942e-07
  8.158159e-02    5.863891e-07
  8.188052e-02    5.868164e-07
  8.217945e-02    5.865717e-07
  8.247838e-02    5.855537e-07
  8.277731e-02    5.888750e-07
  8.307624e-02    5.888842e-07
  8.337518e-02    5.962175e-07
  8.367411e-02    5.951638e-07
  8.397304e-02    5.835337e-07
  8.427197e-02    5.771685e-07
  8.457090e-02    5.835193e-07
  8.486983e-02    5.842123e-07
  8.516876e-02    5.833710e-07
  8.546769e-02    5.837385e-07
  8.576662e-02    5.849222e-07
  8.606555e-02    5.830365e-07
  8.636448e-02    5.902945e-07
  8.666341e-02    5.934974e-07
  8.696234e-02    5.906840e-07
  8.726127e-02    5.893082e-07
  8.756020e-02    5.950743e-07
  8.785913e-02    5.962231e-07
  8.815806e-02    5.909095e-07
  8.845699e-02    5.818296e-07
  8.875592e-02    5.800782e-07
  8.905485e-02    5.906315e-07
  8.935378e-02    5.914252e-07
  8.965271e-02    5.858395e-07
  8.995164e-02    5.938649e-07
  9.025057e-02    6.098213e-07
  9.054950e-02    6.072991e-07
  9.084843e-02    6.060525e-07
  9.114737e-02    6.069828e-07
  9.144630e-02    5.992967e-07
  9.174523e-02    5.973641e-07
  9.204416e-02    6.005285e-07
  9.234309e-02    6.067757e-07
  9.264202e-02    6.005443e-07
  9.294095e-02    6.013241e-07
  9.323988e-02    6.055251e-07
  9.353881e-02    6.001784e-07
  9.383774e-02    6.026877e-07
  9.413667e-02    6.120445e-07
  9.443560e-02    6.157822e-07
  9.473453e-02    6.138020e-07
  9.503346e-02    6.044872e-07
  9.533239e-02    6.064867e-07
  9.563132e-02    6.163643e-07
  9.593025e-02    6.109746e-07
  9.622918e-02    6.023234e-07
  9.652811e-02    6.057665e-07
  9.682704e-02    6.141499e-07
  9.712597e-02    6.179757e-07
  9.742490e-02    6.157117e-07
  9.772383e-02    6.134118e-07
  9.802276e-02    6.112774e-07
  9.832169e-02    6.059348e-07
  9.862062e-02    6.112797e-07
  9.891956e-02    6.112653e-07
  9.921849e-02    6.131986e-07
  9.951742e-02    6.130340e-07
  9.981635e-02    6.002548e-07
  1.001153e-01    6.033356e-07
  1.004142e-01    6.063831e-07
  1.007131e-01    6.119034e-07
  1.010121e-01    6.054090e-07
  1.013110e-01    5.991124e-07
  1.016099e-01    6.004699e-07
  1.019089e-01    5.965167e-07
  1.022078e-01    5.923178e-07
  1.025067e-01    5.970338e-07
  1.028057e-01    5.991013e-07
  1.031046e-01    5.996078e-07
  1.034035e-01    5.916359e-07
  1.037024e-01    5.923578e-07
  1.040014e-01    5.972183e-07
  1.043003e-01    5.897255e-07
  1.045992e-01    5.844918e-07
  1.048982e-01    5.879027e-07
  1.051971e-01    5.824581e-07
  1.054960e-01    5.790720e-07
  1.057950e-01    5.810205e-07
  1.060939e-01    5.871219e-07
  1.063928e-01    5.876751e-07
  1.066917e-01    5.827887e-07
  1.069907e-01    5.859700e-07
  1.072896e-01    5.876944e-07
  1.075885e-01    5.819169e-07
  1.078875e-01    5.821669e-07
  1.081864e-01    5.878621e-07
  1.084853e-01    5.871480e-07
  1.087843e-01    5.831210e-07
  1.090832e-01    5.753749e-07
  1.093821e-01    5.806946e-07
  1.096810e-01    5.766399e-07
  1.099800e-01    5.742672e-07
  1.102789e-01    5.694395e-07
  1.105778e-01    5.694936e-07
  1.108768e-01    5.746900e-07
  1.111757e-01    5.634431e-07
  1.114746e-01    5.429276e-07
  1.117736e-01    5.395430e-07
  1.120725e-01    5.421299e-07
  1.123714e-01    5.436578e-07
  1.126704e-01    5.340814e-07
  1.129693e-01    5.177751e-07
  1.132682e-01    5.148970e-07
  1.135671e-01    5.047563e-07
  1.138661e-01    4.952040e-07
  1.141650e-01    4.922993e-07
  1.144639e-01    4.802834e-07
  1.147629e-01    4.710500e-07
  1.150618e-01    4.745451e-07
  1.153607e-01    4.722987e-07
  1.156597e-01    4.903973e-07
  1.159586e-01    4.867534e-07
  1.162575e-01    4.674733e-07
  1.165564e-01    4.650035e-07
  1.168554e-01    4.646153e-07
  1.171543e-01    4.707777e-07
  1.174532e-01    4.732932e-07
  1.177522e-01    4.575621e-07
  1.180511e-01    4.482473e-07
  1.183500e-01    4.599547e-07
  1.186490e-01    4.468406e-07
  1.189479e-01    4.540559e-07
  1.192468e-01    4.465909e-07
  1.195458e-01    4.241262e-07
  1.198447e-01    4.270852e-07
  1.201436e-01    4.798126e-07
  1.204425e-01    5.028278e-07
  1.207415e-01    4.661737e-07
  1.210404e-01    3.820477e-07
  1.213393e-01    0.000000e+00
  1.216383e-01    0.000000e+00
  1.219372e-01    0.000000e+00
  1.222361e-01    0.000000e+00
  1.225351e-01    0.000000e+00
  1.228340e-01    0.000000e+00
  1.231329e-01    0.000000e+00
  1.234318e-01    0.000000e+00
  1.237308e-01    0.000000e+00
  1.240297e-01    0.000000e+00
  1.243286e-01    0.000000e+00
  1.246276e-01    0.000000e+00
  1.249265e-01    0.000000e+00
  1.252254e-01    0.000000e+00
  1.255244e-01    0.000000e+00
  1.258233e-01    0.000000e+00
  1.261222e-01    0.000000e+00
  1.264212e-01    0.000000e+00
  1.267201e-01    0.000000e+00
  1.270190e-01    0.000000e+00
  1.273179e-01    0.000000e+00
  1.276169e-01    0.000000e+00
  1.279158e-01    0.000000e+00
  1.282147e-01    0.000000e+00
  1.285137e-01    0.000000e+00
  1.288126e-01    0.000000e+00
  1.291115e-01    0.000000e+00
  1.294105e-01    0.000000e+00
  1.297094e-01    0.000000e+00
  1.300083e-01    0.000000e+00
  1.303072e-01    0.000000e+00
  1.306062e-01    0.000000e+00
  1.309051e-01    0.000000e+00
  1.312040e-01    0.000000e+00
  1.315030e-01    0.000000e+00
  1.318019e-01    0.000000e+00
  1.321008e-01    0.000000e+00
  1.323998e-01    0.000000e+00
  1.326987e-01    0.000000e+00
  1.329976e-01    0.000000e+00
  1.332965e-01    0.000000e+00
  1.335955e-01    0.000000e+00
  1.338944e-01    0.000000e+00
  1.341933e-01    0.000000e+00
  1.344923e-01    0.000000e+00
  1.347912e-01    0.000000e+00
  1.350901e-01    0.000000e+00
  1.353891e-01    0.000000e+00
  1.356880e-01    0.000000e+00
  1.359869e-01    0.000000e+00
  1.362859e-01    0.000000e+00
  1.365848e-01    0.000000e+00
  1.368837e-01    0.000000e+00
  1.371826e-01    0.000000e+00
  1.374816e-01    0.000000e+00
  1.377805e-01    0.000000e+00
  1.380794e-01    0.000000e+00
  1.383784e-01    0.000000e+00
  1.386773e-01    0.000000e+00
  1.389762e-01    0.000000e+00
  1.392752e-01    0.000000e+00
  1.395741e-01    0.000000e+00
  1.398730e-01    0.000000e+00
  1.401719e-01    0.000000e+00
  1.404709e-01    0.000000e+00
  1.407698e-01    0.000000e+00
  1.410687e-01    0.000000e+00
  1.413677e-01    0.000000e+00
  1.416666e-01    0.000000e+00
  1.419655e-01    0.000000e+00
  1.422645e-01    0.000000e+00
  1.425634e-01    0.000000e+00
  1.428623e-01    0.000000e+00
  1.431613e-01    0.000000e+00
  1.434602e-01    0.000000e+00
  1.437591e-01    0.000000e+00
  1.440580e-01    0.000000e+00
  1.443570e-01    0.000000e+00
  1.446559e-01    0.000000e+00
  1.449548e-01    0.000000e+00
  1.452538e-01    0.000000e+00
  1.455527e-01    0.000000e+00
  1.458516e-01    0.000000e+00
  1.461506e-01    0.000000e+00
  1.464495e-01    0.000000e+00
  1.467484e-01    0.000000e+00
  1.470473e-01    0.000000e+00
  1.473463e-01    0.000000e+00
  1.476452e-01    0.000000e+00
  1.479441e-01    0.000000e+00
  1.482431e-01    0.000000e+00
  1.485420e-01    0.000000e+00
  1.488409e-01    0.000000e+00
  1.491399e-01    0.000000e+00
  1.494388e-01    0.000000e+00
  1.497377e-01    0.000000e+00
  1.500367e-01    0.000000e+00
  1.503356e-01    0.000000e+00
  1.506345e-01    0.000000e+00
  1.509334e-01    0.000000e+00
  1.512324e-01    0.000000e+00
  1.515313e-01    0.000000e+00
  1.518302e-01    0.000000e+00
  1.521292e-01    0.000000e+00
  1.524281e-01    0.000000e+00
  1.527270e-01    0.000000e+00
  1.530260e-01    0.000000e+00
  1.533249e-01    0.000000e+00
  1.536238e-01    0.000000e+00
