# == pyFAI calibration ==
# Distance Sample to Detector: 2.266 m
# PONI: 5.659e-02, 4.293e-02 m
# Rotations: 0.000000 0.000000 0.000000 rad
# 
# == Fit2d calibration ==
# Distance Sample-beamCenter: 2266.000 mm
# Center: x=249.594, y=329.012 pix
# Tilt: 0.000 deg  TiltPlanRot: 0.000 deg
# 
# Detector Pilatus 300k	 PixelSize= 1.720e-04, 1.720e-04 m
#    Detector has a mask: True 
#    Detector has a dark current: False 
#    detector has a flat field: False 
# 
# Wavelength: 1.27818e-10 m
# Mask applied: user provided
# Dark current applied: False
# Flat field applied: False
# Polarization factor: None
# Normalization factor: 4934656.0
# --> AL_F127_220225_cb07f505-3092-4e8c-9263-ca59ce410498_0_r1d.csv
#        q_A^-1             I 
  4.457554e-03    1.022837e-04
  4.756484e-03    8.495902e-05
  5.055415e-03    6.163611e-05
  5.354345e-03    4.251413e-05
  5.653276e-03    3.364146e-05
  5.952206e-03    4.561527e-05
  6.251136e-03    4.280717e-05
  6.550067e-03    3.813722e-05
  6.848997e-03    3.356445e-05
  7.147927e-03    3.006080e-05
  7.446858e-03    2.729302e-05
  7.745788e-03    2.451841e-05
  8.044719e-03    2.194501e-05
  8.343649e-03    2.039872e-05
  8.642579e-03    1.915304e-05
  8.941510e-03    1.793186e-05
  9.240440e-03    1.689631e-05
  9.539371e-03    1.596278e-05
  9.838301e-03    1.494006e-05
  1.013723e-02    1.445805e-05
  1.043616e-02    1.409369e-05
  1.073509e-02    1.335496e-05
  1.103402e-02    1.299638e-05
  1.133295e-02    1.294025e-05
  1.163188e-02    1.256768e-05
  1.193081e-02    1.199728e-05
  1.222974e-02    1.174362e-05
  1.252867e-02    1.154536e-05
  1.282760e-02    1.140507e-05
  1.312654e-02    1.121134e-05
  1.342547e-02    1.103370e-05
  1.372440e-02    1.083366e-05
  1.402333e-02    1.074813e-05
  1.432226e-02    1.062526e-05
  1.462119e-02    1.048117e-05
  1.492012e-02    1.050950e-05
  1.521905e-02    1.045715e-05
  1.551798e-02    1.041209e-05
  1.581691e-02    1.030890e-05
  1.611584e-02    1.020100e-05
  1.641477e-02    1.009327e-05
  1.671370e-02    1.015058e-05
  1.701263e-02    1.009213e-05
  1.731156e-02    1.005685e-05
  1.761049e-02    1.006592e-05
  1.790942e-02    1.005849e-05
  1.820835e-02    9.957875e-06
  1.850728e-02    9.834027e-06
  1.880621e-02    9.910852e-06
  1.910514e-02    9.919618e-06
  1.940407e-02    9.885295e-06
  1.970300e-02    9.732228e-06
  2.000193e-02    9.617188e-06
  2.030086e-02    9.632627e-06
  2.059979e-02    9.552250e-06
  2.089873e-02    9.411076e-06
  2.119766e-02    9.337441e-06
  2.149659e-02    9.356365e-06
  2.179552e-02    9.280291e-06
  2.209445e-02    9.225543e-06
  2.239338e-02    9.224113e-06
  2.269231e-02    9.084632e-06
  2.299124e-02    8.935219e-06
  2.329017e-02    8.829997e-06
  2.358910e-02    8.689546e-06
  2.388803e-02    8.576631e-06
  2.418696e-02    8.454599e-06
  2.448589e-02    8.384068e-06
  2.478482e-02    8.265424e-06
  2.508375e-02    8.064663e-06
  2.538268e-02    7.956176e-06
  2.568161e-02    7.829859e-06
  2.598054e-02    7.696623e-06
  2.627947e-02    7.526761e-06
  2.657840e-02    7.385808e-06
  2.687733e-02    7.206014e-06
  2.717626e-02    7.110194e-06
  2.747519e-02    6.946164e-06
  2.777412e-02    6.784062e-06
  2.807305e-02    6.664261e-06
  2.837198e-02    6.494261e-06
  2.867092e-02    6.288643e-06
  2.896985e-02    6.127392e-06
  2.926878e-02    6.044348e-06
  2.956771e-02    5.902926e-06
  2.986664e-02    5.740780e-06
  3.016557e-02    5.570915e-06
  3.046450e-02    5.408141e-06
  3.076343e-02    5.278979e-06
  3.106236e-02    5.168908e-06
  3.136129e-02    5.012545e-06
  3.166022e-02    4.889742e-06
  3.195915e-02    4.794746e-06
  3.225808e-02    4.692069e-06
  3.255701e-02    4.529374e-06
  3.285594e-02    4.361284e-06
  3.315487e-02    4.248162e-06
  3.345380e-02    4.145423e-06
  3.375273e-02    4.028901e-06
  3.405166e-02    3.882119e-06
  3.435059e-02    3.777284e-06
  3.464952e-02    3.650051e-06
  3.494845e-02    3.585276e-06
  3.524738e-02    3.490109e-06
  3.554631e-02    3.366597e-06
  3.584524e-02    3.299935e-06
  3.614417e-02    3.246404e-06
  3.644310e-02    3.129877e-06
  3.674204e-02    3.024764e-06
  3.704097e-02    2.953876e-06
  3.733990e-02    2.896481e-06
  3.763883e-02    2.813582e-06
  3.793776e-02    2.737381e-06
  3.823669e-02    2.681110e-06
  3.853562e-02    2.620090e-06
  3.883455e-02    2.534829e-06
  3.913348e-02    2.439489e-06
  3.943241e-02    2.381640e-06
  3.973134e-02    2.303341e-06
  4.003027e-02    2.270698e-06
  4.032920e-02    2.216962e-06
  4.062813e-02    2.167962e-06
  4.092706e-02    2.109299e-06
  4.122599e-02    2.076320e-06
  4.152492e-02    2.045817e-06
  4.182385e-02    1.961663e-06
  4.212278e-02    1.930605e-06
  4.242171e-02    1.886938e-06
  4.272064e-02    1.852889e-06
  4.301957e-02    1.847179e-06
  4.331850e-02    1.803049e-06
  4.361743e-02    1.764236e-06
  4.391636e-02    1.705101e-06
  4.421529e-02    1.632981e-06
  4.451423e-02    1.601035e-06
  4.481316e-02    1.606803e-06
  4.511209e-02    1.602894e-06
  4.541102e-02    1.564864e-06
  4.570995e-02    1.500829e-06
  4.600888e-02    1.456380e-06
  4.630781e-02    1.426577e-06
  4.660674e-02    1.380001e-06
  4.690567e-02    1.351728e-06
  4.720460e-02    1.340929e-06
  4.750353e-02    1.327107e-06
  4.780246e-02    1.293647e-06
  4.810139e-02    1.282930e-06
  4.840032e-02    1.261737e-06
  4.869925e-02    1.220943e-06
  4.899818e-02    1.200180e-06
  4.929711e-02    1.168713e-06
  4.959604e-02    1.133449e-06
  4.989497e-02    1.114238e-06
  5.019390e-02    1.112690e-06
  5.049283e-02    1.077900e-06
  5.079176e-02    1.047022e-06
  5.109069e-02    1.046419e-06
  5.138962e-02    1.026951e-06
  5.168855e-02    1.035064e-06
  5.198748e-02    1.009350e-06
  5.228642e-02    9.711948e-07
  5.258535e-02    9.536734e-07
  5.288428e-02    9.265939e-07
  5.318321e-02    9.020669e-07
  5.348214e-02    8.872494e-07
  5.378107e-02    8.698091e-07
  5.408000e-02    8.627139e-07
  5.437893e-02    8.600122e-07
  5.467786e-02    8.262808e-07
  5.497679e-02    7.986375e-07
  5.527572e-02    7.938842e-07
  5.557465e-02    7.834452e-07
  5.587358e-02    7.709801e-07
  5.617251e-02    7.479877e-07
  5.647144e-02    7.204130e-07
  5.677037e-02    6.998372e-07
  5.706930e-02    6.968243e-07
  5.736823e-02    7.134063e-07
  5.766716e-02    6.944219e-07
  5.796609e-02    6.648332e-07
  5.826502e-02    6.621751e-07
  5.856395e-02    6.516862e-07
  5.886288e-02    6.391680e-07
  5.916181e-02    6.316583e-07
  5.946074e-02    6.206067e-07
  5.975967e-02    6.101329e-07
  6.005861e-02    6.015723e-07
  6.035754e-02    5.855290e-07
  6.065647e-02    5.875732e-07
  6.095540e-02    5.729646e-07
  6.125433e-02    5.663550e-07
  6.155326e-02    5.477643e-07
  6.185219e-02    5.502679e-07
  6.215112e-02    5.488164e-07
  6.245005e-02    5.266864e-07
  6.274898e-02    5.260749e-07
  6.304791e-02    5.119953e-07
  6.334684e-02    4.983017e-07
  6.364577e-02    5.003602e-07
  6.394470e-02    4.923727e-07
  6.424363e-02    4.814262e-07
  6.454256e-02    4.679180e-07
  6.484149e-02    4.649568e-07
  6.514042e-02    4.739491e-07
  6.543935e-02    4.676471e-07
  6.573828e-02    4.634522e-07
  6.603721e-02    4.553281e-07
  6.633614e-02    4.364007e-07
  6.663507e-02    4.369424e-07
  6.693400e-02    4.441254e-07
  6.723293e-02    4.417455e-07
  6.753186e-02    4.387498e-07
  6.783080e-02    4.379729e-07
  6.812973e-02    4.276166e-07
  6.842866e-02    4.154928e-07
  6.872759e-02    4.228891e-07
  6.902652e-02    4.112810e-07
  6.932545e-02    3.995711e-07
  6.962438e-02    4.039520e-07
  6.992331e-02    3.930614e-07
  7.022224e-02    3.984135e-07
  7.052117e-02    3.895172e-07
  7.082010e-02    3.834871e-07
  7.111903e-02    3.802691e-07
  7.141796e-02    3.825274e-07
  7.171689e-02    3.856477e-07
  7.201582e-02    3.932649e-07
  7.231475e-02    3.875624e-07
  7.261368e-02    3.890694e-07
  7.291261e-02    3.836585e-07
  7.321154e-02    3.813505e-07
  7.351047e-02    3.881572e-07
  7.380940e-02    3.718153e-07
  7.410833e-02    3.615920e-07
  7.440726e-02    3.603270e-07
  7.470619e-02    3.623535e-07
  7.500512e-02    3.771087e-07
  7.530405e-02    3.735599e-07
  7.560299e-02    3.654477e-07
  7.590192e-02    3.716131e-07
  7.620085e-02    3.764509e-07
  7.649978e-02    3.622556e-07
  7.679871e-02    3.541982e-07
  7.709764e-02    3.524951e-07
  7.739657e-02    3.639666e-07
  7.769550e-02    3.693868e-07
  7.799443e-02    3.698069e-07
  7.829336e-02    3.622479e-07
  7.859229e-02    3.622838e-07
  7.889122e-02    3.608378e-07
  7.919015e-02    3.613662e-07
  7.948908e-02    3.648136e-07
  7.978801e-02    3.597540e-07
  8.008694e-02    3.657673e-07
  8.038587e-02    3.683395e-07
  8.068480e-02    3.611997e-07
  8.098373e-02    3.583449e-07
  8.128266e-02    3.563757e-07
  8.158159e-02    3.617988e-07
  8.188052e-02    3.616318e-07
  8.217945e-02    3.592677e-07
  8.247838e-02    3.448420e-07
  8.277731e-02    3.558307e-07
  8.307624e-02    3.589869e-07
  8.337518e-02    3.591051e-07
  8.367411e-02    3.589670e-07
  8.397304e-02    3.533641e-07
  8.427197e-02    3.588145e-07
  8.457090e-02    3.607772e-07
  8.486983e-02    3.620209e-07
  8.516876e-02    3.554420e-07
  8.546769e-02    3.557905e-07
  8.576662e-02    3.585915e-07
  8.606555e-02    3.607595e-07
  8.636448e-02    3.656095e-07
  8.666341e-02    3.635762e-07
  8.696234e-02    3.612788e-07
  8.726127e-02    3.579644e-07
  8.756020e-02    3.707152e-07
  8.785913e-02    3.622499e-07
  8.815806e-02    3.511235e-07
  8.845699e-02    3.564651e-07
  8.875592e-02    3.592285e-07
  8.905485e-02    3.629488e-07
  8.935378e-02    3.632557e-07
  8.965271e-02    3.593803e-07
  8.995164e-02    3.719595e-07
  9.025057e-02    3.692683e-07
  9.054950e-02    3.601172e-07
  9.084843e-02    3.610971e-07
  9.114737e-02    3.585911e-07
  9.144630e-02    3.651869e-07
  9.174523e-02    3.726326e-07
  9.204416e-02    3.611347e-07
  9.234309e-02    3.546055e-07
  9.264202e-02    3.583609e-07
  9.294095e-02    3.671694e-07
  9.323988e-02    3.681444e-07
  9.353881e-02    3.676203e-07
  9.383774e-02    3.722583e-07
  9.413667e-02    3.629110e-07
  9.443560e-02    3.563596e-07
  9.473453e-02    3.598098e-07
  9.503346e-02    3.655762e-07
  9.533239e-02    3.681916e-07
  9.563132e-02    3.636176e-07
  9.593025e-02    3.702359e-07
  9.622918e-02    3.648025e-07
  9.652811e-02    3.693870e-07
  9.682704e-02    3.700642e-07
  9.712597e-02    3.776582e-07
  9.742490e-02    3.883170e-07
  9.772383e-02    3.879682e-07
  9.802276e-02    3.832790e-07
  9.832169e-02    3.814064e-07
  9.862062e-02    3.789715e-07
  9.891956e-02    3.707096e-07
  9.921849e-02    3.649913e-07
  9.951742e-02    3.746171e-07
  9.981635e-02    3.758253e-07
  1.001153e-01    3.754197e-07
  1.004142e-01    3.692577e-07
  1.007131e-01    3.731320e-07
  1.010121e-01    3.674308e-07
  1.013110e-01    3.677662e-07
  1.016099e-01    3.722665e-07
  1.019089e-01    3.749877e-07
  1.022078e-01    3.649235e-07
  1.025067e-01    3.597212e-07
  1.028057e-01    3.723645e-07
  1.031046e-01    3.776420e-07
  1.034035e-01    3.801566e-07
  1.037024e-01    3.814659e-07
  1.040014e-01    3.792964e-07
  1.043003e-01    3.719142e-07
  1.045992e-01    3.728343e-07
  1.048982e-01    3.714080e-07
  1.051971e-01    3.651891e-07
  1.054960e-01    3.746947e-07
  1.057950e-01    3.803775e-07
  1.060939e-01    3.767001e-07
  1.063928e-01    3.739807e-07
  1.066917e-01    3.861134e-07
  1.069907e-01    3.957218e-07
  1.072896e-01    3.699134e-07
  1.075885e-01    3.574056e-07
  1.078875e-01    3.660238e-07
  1.081864e-01    3.804889e-07
  1.084853e-01    4.025150e-07
  1.087843e-01    3.781606e-07
  1.090832e-01    3.684540e-07
  1.093821e-01    3.777148e-07
  1.096810e-01    3.754419e-07
  1.099800e-01    3.719488e-07
  1.102789e-01    3.865531e-07
  1.105778e-01    3.920617e-07
  1.108768e-01    3.793771e-07
  1.111757e-01    3.753606e-07
  1.114746e-01    3.650437e-07
  1.117736e-01    3.653812e-07
  1.120725e-01    3.618872e-07
  1.123714e-01    3.600949e-07
  1.126704e-01    3.511863e-07
  1.129693e-01    3.421863e-07
  1.132682e-01    3.419884e-07
  1.135671e-01    3.291992e-07
  1.138661e-01    3.281382e-07
  1.141650e-01    3.325063e-07
  1.144639e-01    3.117962e-07
  1.147629e-01    2.960035e-07
  1.150618e-01    2.955780e-07
  1.153607e-01    3.011198e-07
  1.156597e-01    2.922814e-07
  1.159586e-01    2.947203e-07
  1.162575e-01    2.892996e-07
  1.165564e-01    2.961833e-07
  1.168554e-01    3.058963e-07
  1.171543e-01    2.901646e-07
  1.174532e-01    3.146906e-07
  1.177522e-01    3.153281e-07
  1.180511e-01    3.072813e-07
  1.183500e-01    3.155281e-07
  1.186490e-01    3.060467e-07
  1.189479e-01    3.090000e-07
  1.192468e-01    2.976852e-07
  1.195458e-01    3.086381e-07
  1.198447e-01    3.064435e-07
  1.201436e-01    3.283141e-07
  1.204425e-01    4.055404e-07
  1.207415e-01    3.058339e-07
  1.210404e-01    0.000000e+00
  1.213393e-01    0.000000e+00
  1.216383e-01    0.000000e+00
  1.219372e-01    0.000000e+00
  1.222361e-01    0.000000e+00
  1.225351e-01    0.000000e+00
  1.228340e-01    0.000000e+00
  1.231329e-01    0.000000e+00
  1.234318e-01    0.000000e+00
  1.237308e-01    0.000000e+00
  1.240297e-01    0.000000e+00
  1.243286e-01    0.000000e+00
  1.246276e-01    0.000000e+00
  1.249265e-01    0.000000e+00
  1.252254e-01    0.000000e+00
  1.255244e-01    0.000000e+00
  1.258233e-01    0.000000e+00
  1.261222e-01    0.000000e+00
  1.264212e-01    0.000000e+00
  1.267201e-01    0.000000e+00
  1.270190e-01    0.000000e+00
  1.273179e-01    0.000000e+00
  1.276169e-01    0.000000e+00
  1.279158e-01    0.000000e+00
  1.282147e-01    0.000000e+00
  1.285137e-01    0.000000e+00
  1.288126e-01    0.000000e+00
  1.291115e-01    0.000000e+00
  1.294105e-01    0.000000e+00
  1.297094e-01    0.000000e+00
  1.300083e-01    0.000000e+00
  1.303072e-01    0.000000e+00
  1.306062e-01    0.000000e+00
  1.309051e-01    0.000000e+00
  1.312040e-01    0.000000e+00
  1.315030e-01    0.000000e+00
  1.318019e-01    0.000000e+00
  1.321008e-01    0.000000e+00
  1.323998e-01    0.000000e+00
  1.326987e-01    0.000000e+00
  1.329976e-01    0.000000e+00
  1.332965e-01    0.000000e+00
  1.335955e-01    0.000000e+00
  1.338944e-01    0.000000e+00
  1.341933e-01    0.000000e+00
  1.344923e-01    0.000000e+00
  1.347912e-01    0.000000e+00
  1.350901e-01    0.000000e+00
  1.353891e-01    0.000000e+00
  1.356880e-01    0.000000e+00
  1.359869e-01    0.000000e+00
  1.362859e-01    0.000000e+00
  1.365848e-01    0.000000e+00
  1.368837e-01    0.000000e+00
  1.371826e-01    0.000000e+00
  1.374816e-01    0.000000e+00
  1.377805e-01    0.000000e+00
  1.380794e-01    0.000000e+00
  1.383784e-01    0.000000e+00
  1.386773e-01    0.000000e+00
  1.389762e-01    0.000000e+00
  1.392752e-01    0.000000e+00
  1.395741e-01    0.000000e+00
  1.398730e-01    0.000000e+00
  1.401719e-01    0.000000e+00
  1.404709e-01    0.000000e+00
  1.407698e-01    0.000000e+00
  1.410687e-01    0.000000e+00
  1.413677e-01    0.000000e+00
  1.416666e-01    0.000000e+00
  1.419655e-01    0.000000e+00
  1.422645e-01    0.000000e+00
  1.425634e-01    0.000000e+00
  1.428623e-01    0.000000e+00
  1.431613e-01    0.000000e+00
  1.434602e-01    0.000000e+00
  1.437591e-01    0.000000e+00
  1.440580e-01    0.000000e+00
  1.443570e-01    0.000000e+00
  1.446559e-01    0.000000e+00
  1.449548e-01    0.000000e+00
  1.452538e-01    0.000000e+00
  1.455527e-01    0.000000e+00
  1.458516e-01    0.000000e+00
  1.461506e-01    0.000000e+00
  1.464495e-01    0.000000e+00
  1.467484e-01    0.000000e+00
  1.470473e-01    0.000000e+00
  1.473463e-01    0.000000e+00
  1.476452e-01    0.000000e+00
  1.479441e-01    0.000000e+00
  1.482431e-01    0.000000e+00
  1.485420e-01    0.000000e+00
  1.488409e-01    0.000000e+00
  1.491399e-01    0.000000e+00
  1.494388e-01    0.000000e+00
  1.497377e-01    0.000000e+00
  1.500367e-01    0.000000e+00
  1.503356e-01    0.000000e+00
  1.506345e-01    0.000000e+00
  1.509334e-01    0.000000e+00
  1.512324e-01    0.000000e+00
  1.515313e-01    0.000000e+00
  1.518302e-01    0.000000e+00
  1.521292e-01    0.000000e+00
  1.524281e-01    0.000000e+00
  1.527270e-01    0.000000e+00
  1.530260e-01    0.000000e+00
  1.533249e-01    0.000000e+00
  1.536238e-01    0.000000e+00
