# == pyFAI calibration ==
# Distance Sample to Detector: 2.266 m
# PONI: 5.659e-02, 4.293e-02 m
# Rotations: 0.000000 0.000000 0.000000 rad
# 
# == Fit2d calibration ==
# Distance Sample-beamCenter: 2266.000 mm
# Center: x=249.594, y=329.012 pix
# Tilt: 0.000 deg  TiltPlanRot: 0.000 deg
# 
# Detector Pilatus 300k	 PixelSize= 1.720e-04, 1.720e-04 m
#    Detector has a mask: True 
#    Detector has a dark current: False 
#    detector has a flat field: False 
# 
# Wavelength: 1.27818e-10 m
# Mask applied: user provided
# Dark current applied: False
# Flat field applied: False
# Polarization factor: None
# Normalization factor: 1631713.4000000001
# --> AL_F127_220225_8918b8e9-e007-4729-a9d8-a2a8675309c0_0_r1d.csv
#        q_A^-1             I 
  4.457554e-03    5.691515e-03
  4.756484e-03    4.495558e-03
  5.055415e-03    3.207847e-03
  5.354345e-03    2.240252e-03
  5.653276e-03    1.708195e-03
  5.952206e-03    2.703737e-03
  6.251136e-03    2.475010e-03
  6.550067e-03    2.161870e-03
  6.848997e-03    1.846544e-03
  7.147927e-03    1.560047e-03
  7.446858e-03    1.329704e-03
  7.745788e-03    1.141782e-03
  8.044719e-03    9.860750e-04
  8.343649e-03    8.604155e-04
  8.642579e-03    7.512834e-04
  8.941510e-03    6.634677e-04
  9.240440e-03    5.868166e-04
  9.539371e-03    5.231072e-04
  9.838301e-03    4.659434e-04
  1.013723e-02    4.157665e-04
  1.043616e-02    3.756185e-04
  1.073509e-02    3.373498e-04
  1.103402e-02    3.040545e-04
  1.133295e-02    2.752268e-04
  1.163188e-02    2.521046e-04
  1.193081e-02    2.301754e-04
  1.222974e-02    2.095616e-04
  1.252867e-02    1.933135e-04
  1.282760e-02    1.783036e-04
  1.312654e-02    1.643222e-04
  1.342547e-02    1.520812e-04
  1.372440e-02    1.408782e-04
  1.402333e-02    1.304490e-04
  1.432226e-02    1.208943e-04
  1.462119e-02    1.130241e-04
  1.492012e-02    1.053058e-04
  1.521905e-02    9.779540e-05
  1.551798e-02    9.235572e-05
  1.581691e-02    8.666043e-05
  1.611584e-02    8.129745e-05
  1.641477e-02    7.699452e-05
  1.671370e-02    7.243251e-05
  1.701263e-02    6.822312e-05
  1.731156e-02    6.529286e-05
  1.761049e-02    6.214518e-05
  1.790942e-02    5.884933e-05
  1.820835e-02    5.598963e-05
  1.850728e-02    5.319568e-05
  1.880621e-02    5.090423e-05
  1.910514e-02    4.884361e-05
  1.940407e-02    4.655569e-05
  1.970300e-02    4.459253e-05
  2.000193e-02    4.308173e-05
  2.030086e-02    4.163903e-05
  2.059979e-02    4.027168e-05
  2.089873e-02    3.901987e-05
  2.119766e-02    3.756644e-05
  2.149659e-02    3.626212e-05
  2.179552e-02    3.516666e-05
  2.209445e-02    3.408858e-05
  2.239338e-02    3.299268e-05
  2.269231e-02    3.219717e-05
  2.299124e-02    3.130205e-05
  2.329017e-02    3.047286e-05
  2.358910e-02    2.970251e-05
  2.388803e-02    2.905914e-05
  2.418696e-02    2.828782e-05
  2.448589e-02    2.763774e-05
  2.478482e-02    2.732368e-05
  2.508375e-02    2.670150e-05
  2.538268e-02    2.601458e-05
  2.568161e-02    2.577910e-05
  2.598054e-02    2.527734e-05
  2.627947e-02    2.473098e-05
  2.657840e-02    2.446621e-05
  2.687733e-02    2.407772e-05
  2.717626e-02    2.340056e-05
  2.747519e-02    2.308543e-05
  2.777412e-02    2.300704e-05
  2.807305e-02    2.281174e-05
  2.837198e-02    2.247475e-05
  2.867092e-02    2.217178e-05
  2.896985e-02    2.162457e-05
  2.926878e-02    2.121852e-05
  2.956771e-02    2.101393e-05
  2.986664e-02    2.080182e-05
  3.016557e-02    2.070403e-05
  3.046450e-02    2.063895e-05
  3.076343e-02    2.031063e-05
  3.106236e-02    1.996196e-05
  3.136129e-02    1.964878e-05
  3.166022e-02    1.962242e-05
  3.195915e-02    1.950052e-05
  3.225808e-02    1.905318e-05
  3.255701e-02    1.900203e-05
  3.285594e-02    1.908771e-05
  3.315487e-02    1.882546e-05
  3.345380e-02    1.871927e-05
  3.375273e-02    1.844710e-05
  3.405166e-02    1.805281e-05
  3.435059e-02    1.796336e-05
  3.464952e-02    1.782824e-05
  3.494845e-02    1.750669e-05
  3.524738e-02    1.727960e-05
  3.554631e-02    1.720149e-05
  3.584524e-02    1.702885e-05
  3.614417e-02    1.692351e-05
  3.644310e-02    1.683026e-05
  3.674204e-02    1.648906e-05
  3.704097e-02    1.642316e-05
  3.733990e-02    1.651005e-05
  3.763883e-02    1.623597e-05
  3.793776e-02    1.605410e-05
  3.823669e-02    1.581452e-05
  3.853562e-02    1.567330e-05
  3.883455e-02    1.549686e-05
  3.913348e-02    1.554100e-05
  3.943241e-02    1.542429e-05
  3.973134e-02    1.509697e-05
  4.003027e-02    1.504463e-05
  4.032920e-02    1.522347e-05
  4.062813e-02    1.511523e-05
  4.092706e-02    1.496973e-05
  4.122599e-02    1.489667e-05
  4.152492e-02    1.491853e-05
  4.182385e-02    1.486122e-05
  4.212278e-02    1.461580e-05
  4.242171e-02    1.458772e-05
  4.272064e-02    1.451895e-05
  4.301957e-02    1.458736e-05
  4.331850e-02    1.439384e-05
  4.361743e-02    1.434700e-05
  4.391636e-02    1.436936e-05
  4.421529e-02    1.417145e-05
  4.451423e-02    1.422411e-05
  4.481316e-02    1.430632e-05
  4.511209e-02    1.428628e-05
  4.541102e-02    1.416975e-05
  4.570995e-02    1.403187e-05
  4.600888e-02    1.399761e-05
  4.630781e-02    1.404278e-05
  4.660674e-02    1.422456e-05
  4.690567e-02    1.411412e-05
  4.720460e-02    1.391188e-05
  4.750353e-02    1.393951e-05
  4.780246e-02    1.404209e-05
  4.810139e-02    1.398343e-05
  4.840032e-02    1.395862e-05
  4.869925e-02    1.397481e-05
  4.899818e-02    1.382220e-05
  4.929711e-02    1.396581e-05
  4.959604e-02    1.393287e-05
  4.989497e-02    1.370288e-05
  5.019390e-02    1.375091e-05
  5.049283e-02    1.380188e-05
  5.079176e-02    1.368597e-05
  5.109069e-02    1.381273e-05
  5.138962e-02    1.406913e-05
  5.168855e-02    1.445938e-05
  5.198748e-02    1.490665e-05
  5.228642e-02    1.455988e-05
  5.258535e-02    1.397797e-05
  5.288428e-02    1.374403e-05
  5.318321e-02    1.383245e-05
  5.348214e-02    1.386876e-05
  5.378107e-02    1.363623e-05
  5.408000e-02    1.358374e-05
  5.437893e-02    1.356593e-05
  5.467786e-02    1.349746e-05
  5.497679e-02    1.355946e-05
  5.527572e-02    1.371597e-05
  5.557465e-02    1.361118e-05
  5.587358e-02    1.375008e-05
  5.617251e-02    1.379012e-05
  5.647144e-02    1.363920e-05
  5.677037e-02    1.363417e-05
  5.706930e-02    1.359479e-05
  5.736823e-02    1.355033e-05
  5.766716e-02    1.347549e-05
  5.796609e-02    1.355536e-05
  5.826502e-02    1.365050e-05
  5.856395e-02    1.372214e-05
  5.886288e-02    1.378891e-05
  5.916181e-02    1.368766e-05
  5.946074e-02    1.365823e-05
  5.975967e-02    1.367007e-05
  6.005861e-02    1.383733e-05
  6.035754e-02    1.388006e-05
  6.065647e-02    1.390957e-05
  6.095540e-02    1.407311e-05
  6.125433e-02    1.428527e-05
  6.155326e-02    1.433321e-05
  6.185219e-02    1.408533e-05
  6.215112e-02    1.397834e-05
  6.245005e-02    1.384600e-05
  6.274898e-02    1.393590e-05
  6.304791e-02    1.401672e-05
  6.334684e-02    1.393006e-05
  6.364577e-02    1.391580e-05
  6.394470e-02    1.390206e-05
  6.424363e-02    1.390527e-05
  6.454256e-02    1.381917e-05
  6.484149e-02    1.393885e-05
  6.514042e-02    1.391796e-05
  6.543935e-02    1.387139e-05
  6.573828e-02    1.394681e-05
  6.603721e-02    1.395629e-05
  6.633614e-02    1.391953e-05
  6.663507e-02    1.394533e-05
  6.693400e-02    1.397527e-05
  6.723293e-02    1.405403e-05
  6.753186e-02    1.398542e-05
  6.783080e-02    1.402447e-05
  6.812973e-02    1.420080e-05
  6.842866e-02    1.426287e-05
  6.872759e-02    1.418088e-05
  6.902652e-02    1.422750e-05
  6.932545e-02    1.431091e-05
  6.962438e-02    1.423907e-05
  6.992331e-02    1.421618e-05
  7.022224e-02    1.423046e-05
  7.052117e-02    1.440359e-05
  7.082010e-02    1.438437e-05
  7.111903e-02    1.422160e-05
  7.141796e-02    1.415661e-05
  7.171689e-02    1.425162e-05
  7.201582e-02    1.432029e-05
  7.231475e-02    1.437584e-05
  7.261368e-02    1.444213e-05
  7.291261e-02    1.432545e-05
  7.321154e-02    1.418758e-05
  7.351047e-02    1.428318e-05
  7.380940e-02    1.441715e-05
  7.410833e-02    1.435153e-05
  7.440726e-02    1.424435e-05
  7.470619e-02    1.435138e-05
  7.500512e-02    1.441077e-05
  7.530405e-02    1.424171e-05
  7.560299e-02    1.429053e-05
  7.590192e-02    1.423456e-05
  7.620085e-02    1.425661e-05
  7.649978e-02    1.416638e-05
  7.679871e-02    1.434863e-05
  7.709764e-02    1.439990e-05
  7.739657e-02    1.423089e-05
  7.769550e-02    1.424909e-05
  7.799443e-02    1.440108e-05
  7.829336e-02    1.427037e-05
  7.859229e-02    1.408605e-05
  7.889122e-02    1.411033e-05
  7.919015e-02    1.431144e-05
  7.948908e-02    1.432750e-05
  7.978801e-02    1.425511e-05
  8.008694e-02    1.426444e-05
  8.038587e-02    1.420513e-05
  8.068480e-02    1.421095e-05
  8.098373e-02    1.416100e-05
  8.128266e-02    1.417259e-05
  8.158159e-02    1.421476e-05
  8.188052e-02    1.409534e-05
  8.217945e-02    1.407344e-05
  8.247838e-02    1.408909e-05
  8.277731e-02    1.405512e-05
  8.307624e-02    1.400997e-05
  8.337518e-02    1.401134e-05
  8.367411e-02    1.403468e-05
  8.397304e-02    1.395828e-05
  8.427197e-02    1.388087e-05
  8.457090e-02    1.387700e-05
  8.486983e-02    1.389556e-05
  8.516876e-02    1.387801e-05
  8.546769e-02    1.387017e-05
  8.576662e-02    1.378156e-05
  8.606555e-02    1.375484e-05
  8.636448e-02    1.373556e-05
  8.666341e-02    1.373874e-05
  8.696234e-02    1.357238e-05
  8.726127e-02    1.357991e-05
  8.756020e-02    1.367281e-05
  8.785913e-02    1.367157e-05
  8.815806e-02    1.365522e-05
  8.845699e-02    1.365818e-05
  8.875592e-02    1.361004e-05
  8.905485e-02    1.354570e-05
  8.935378e-02    1.343242e-05
  8.965271e-02    1.342108e-05
  8.995164e-02    1.338003e-05
  9.025057e-02    1.336626e-05
  9.054950e-02    1.339847e-05
  9.084843e-02    1.336965e-05
  9.114737e-02    1.334138e-05
  9.144630e-02    1.332086e-05
  9.174523e-02    1.328269e-05
  9.204416e-02    1.335877e-05
  9.234309e-02    1.327796e-05
  9.264202e-02    1.315512e-05
  9.294095e-02    1.319347e-05
  9.323988e-02    1.315525e-05
  9.353881e-02    1.307207e-05
  9.383774e-02    1.302623e-05
  9.413667e-02    1.304824e-05
  9.443560e-02    1.309554e-05
  9.473453e-02    1.304925e-05
  9.503346e-02    1.294287e-05
  9.533239e-02    1.301728e-05
  9.563132e-02    1.304207e-05
  9.593025e-02    1.305383e-05
  9.622918e-02    1.316394e-05
  9.652811e-02    1.305719e-05
  9.682704e-02    1.314791e-05
  9.712597e-02    1.319540e-05
  9.742490e-02    1.309016e-05
  9.772383e-02    1.305533e-05
  9.802276e-02    1.294515e-05
  9.832169e-02    1.283297e-05
  9.862062e-02    1.281917e-05
  9.891956e-02    1.278110e-05
  9.921849e-02    1.271383e-05
  9.951742e-02    1.263527e-05
  9.981635e-02    1.262450e-05
  1.001153e-01    1.271070e-05
  1.004142e-01    1.265700e-05
  1.007131e-01    1.258193e-05
  1.010121e-01    1.263939e-05
  1.013110e-01    1.253301e-05
  1.016099e-01    1.246876e-05
  1.019089e-01    1.255611e-05
  1.022078e-01    1.252033e-05
  1.025067e-01    1.241660e-05
  1.028057e-01    1.229022e-05
  1.031046e-01    1.235092e-05
  1.034035e-01    1.239446e-05
  1.037024e-01    1.226150e-05
  1.040014e-01    1.231721e-05
  1.043003e-01    1.239272e-05
  1.045992e-01    1.228660e-05
  1.048982e-01    1.233149e-05
  1.051971e-01    1.226042e-05
  1.054960e-01    1.213777e-05
  1.057950e-01    1.214435e-05
  1.060939e-01    1.215040e-05
  1.063928e-01    1.216948e-05
  1.066917e-01    1.219344e-05
  1.069907e-01    1.216059e-05
  1.072896e-01    1.213070e-05
  1.075885e-01    1.214485e-05
  1.078875e-01    1.212873e-05
  1.081864e-01    1.210848e-05
  1.084853e-01    1.212725e-05
  1.087843e-01    1.213608e-05
  1.090832e-01    1.212932e-05
  1.093821e-01    1.206769e-05
  1.096810e-01    1.206308e-05
  1.099800e-01    1.192899e-05
  1.102789e-01    1.186218e-05
  1.105778e-01    1.189589e-05
  1.108768e-01    1.194921e-05
  1.111757e-01    1.181062e-05
  1.114746e-01    1.164693e-05
  1.117736e-01    1.165705e-05
  1.120725e-01    1.162280e-05
  1.123714e-01    1.164468e-05
  1.126704e-01    1.177538e-05
  1.129693e-01    1.164838e-05
  1.132682e-01    1.130217e-05
  1.135671e-01    1.138271e-05
  1.138661e-01    1.145768e-05
  1.141650e-01    1.135327e-05
  1.144639e-01    1.139270e-05
  1.147629e-01    1.155189e-05
  1.150618e-01    1.148697e-05
  1.153607e-01    1.158163e-05
  1.156597e-01    1.144360e-05
  1.159586e-01    1.138035e-05
  1.162575e-01    1.132880e-05
  1.165564e-01    1.132591e-05
  1.168554e-01    1.123016e-05
  1.171543e-01    1.129295e-05
  1.174532e-01    1.138530e-05
  1.177522e-01    1.126355e-05
  1.180511e-01    1.135127e-05
  1.183500e-01    1.138573e-05
  1.186490e-01    1.153562e-05
  1.189479e-01    1.145137e-05
  1.192468e-01    1.122805e-05
  1.195458e-01    1.124121e-05
  1.198447e-01    1.114918e-05
  1.201436e-01    1.131784e-05
  1.204425e-01    1.121208e-05
  1.207415e-01    1.105528e-05
  1.210404e-01    1.042793e-05
  1.213393e-01    0.000000e+00
  1.216383e-01    0.000000e+00
  1.219372e-01    0.000000e+00
  1.222361e-01    0.000000e+00
  1.225351e-01    0.000000e+00
  1.228340e-01    0.000000e+00
  1.231329e-01    0.000000e+00
  1.234318e-01    0.000000e+00
  1.237308e-01    0.000000e+00
  1.240297e-01    0.000000e+00
  1.243286e-01    0.000000e+00
  1.246276e-01    0.000000e+00
  1.249265e-01    0.000000e+00
  1.252254e-01    0.000000e+00
  1.255244e-01    0.000000e+00
  1.258233e-01    0.000000e+00
  1.261222e-01    0.000000e+00
  1.264212e-01    0.000000e+00
  1.267201e-01    0.000000e+00
  1.270190e-01    0.000000e+00
  1.273179e-01    0.000000e+00
  1.276169e-01    0.000000e+00
  1.279158e-01    0.000000e+00
  1.282147e-01    0.000000e+00
  1.285137e-01    0.000000e+00
  1.288126e-01    0.000000e+00
  1.291115e-01    0.000000e+00
  1.294105e-01    0.000000e+00
  1.297094e-01    0.000000e+00
  1.300083e-01    0.000000e+00
  1.303072e-01    0.000000e+00
  1.306062e-01    0.000000e+00
  1.309051e-01    0.000000e+00
  1.312040e-01    0.000000e+00
  1.315030e-01    0.000000e+00
  1.318019e-01    0.000000e+00
  1.321008e-01    0.000000e+00
  1.323998e-01    0.000000e+00
  1.326987e-01    0.000000e+00
  1.329976e-01    0.000000e+00
  1.332965e-01    0.000000e+00
  1.335955e-01    0.000000e+00
  1.338944e-01    0.000000e+00
  1.341933e-01    0.000000e+00
  1.344923e-01    0.000000e+00
  1.347912e-01    0.000000e+00
  1.350901e-01    0.000000e+00
  1.353891e-01    0.000000e+00
  1.356880e-01    0.000000e+00
  1.359869e-01    0.000000e+00
  1.362859e-01    0.000000e+00
  1.365848e-01    0.000000e+00
  1.368837e-01    0.000000e+00
  1.371826e-01    0.000000e+00
  1.374816e-01    0.000000e+00
  1.377805e-01    0.000000e+00
  1.380794e-01    0.000000e+00
  1.383784e-01    0.000000e+00
  1.386773e-01    0.000000e+00
  1.389762e-01    0.000000e+00
  1.392752e-01    0.000000e+00
  1.395741e-01    0.000000e+00
  1.398730e-01    0.000000e+00
  1.401719e-01    0.000000e+00
  1.404709e-01    0.000000e+00
  1.407698e-01    0.000000e+00
  1.410687e-01    0.000000e+00
  1.413677e-01    0.000000e+00
  1.416666e-01    0.000000e+00
  1.419655e-01    0.000000e+00
  1.422645e-01    0.000000e+00
  1.425634e-01    0.000000e+00
  1.428623e-01    0.000000e+00
  1.431613e-01    0.000000e+00
  1.434602e-01    0.000000e+00
  1.437591e-01    0.000000e+00
  1.440580e-01    0.000000e+00
  1.443570e-01    0.000000e+00
  1.446559e-01    0.000000e+00
  1.449548e-01    0.000000e+00
  1.452538e-01    0.000000e+00
  1.455527e-01    0.000000e+00
  1.458516e-01    0.000000e+00
  1.461506e-01    0.000000e+00
  1.464495e-01    0.000000e+00
  1.467484e-01    0.000000e+00
  1.470473e-01    0.000000e+00
  1.473463e-01    0.000000e+00
  1.476452e-01    0.000000e+00
  1.479441e-01    0.000000e+00
  1.482431e-01    0.000000e+00
  1.485420e-01    0.000000e+00
  1.488409e-01    0.000000e+00
  1.491399e-01    0.000000e+00
  1.494388e-01    0.000000e+00
  1.497377e-01    0.000000e+00
  1.500367e-01    0.000000e+00
  1.503356e-01    0.000000e+00
  1.506345e-01    0.000000e+00
  1.509334e-01    0.000000e+00
  1.512324e-01    0.000000e+00
  1.515313e-01    0.000000e+00
  1.518302e-01    0.000000e+00
  1.521292e-01    0.000000e+00
  1.524281e-01    0.000000e+00
  1.527270e-01    0.000000e+00
  1.530260e-01    0.000000e+00
  1.533249e-01    0.000000e+00
  1.536238e-01    0.000000e+00
