# == pyFAI calibration ==
# Distance Sample to Detector: 2.266 m
# PONI: 5.659e-02, 4.293e-02 m
# Rotations: 0.000000 0.000000 0.000000 rad
# 
# == Fit2d calibration ==
# Distance Sample-beamCenter: 2266.000 mm
# Center: x=249.594, y=329.012 pix
# Tilt: 0.000 deg  TiltPlanRot: 0.000 deg
# 
# Detector Pilatus 300k	 PixelSize= 1.720e-04, 1.720e-04 m
#    Detector has a mask: True 
#    Detector has a dark current: False 
#    detector has a flat field: False 
# 
# Wavelength: 1.27818e-10 m
# Mask applied: user provided
# Dark current applied: False
# Flat field applied: False
# Polarization factor: None
# Normalization factor: 3786264.6
# --> AL_F127_220226_9c5cac4b-ccee-4540-814d-c525b378021d_1_r1d.csv
#        q_A^-1             I 
  4.457554e-03    3.165611e-04
  4.756484e-03    2.492815e-04
  5.055415e-03    1.728639e-04
  5.354345e-03    1.144590e-04
  5.653276e-03    8.378101e-05
  5.952206e-03    1.482044e-04
  6.251136e-03    1.280099e-04
  6.550067e-03    1.070764e-04
  6.848997e-03    9.007182e-05
  7.147927e-03    7.659415e-05
  7.446858e-03    6.561531e-05
  7.745788e-03    5.627885e-05
  8.044719e-03    4.894868e-05
  8.343649e-03    4.397200e-05
  8.642579e-03    3.915527e-05
  8.941510e-03    3.511070e-05
  9.240440e-03    3.192470e-05
  9.539371e-03    2.924767e-05
  9.838301e-03    2.675935e-05
  1.013723e-02    2.490059e-05
  1.043616e-02    2.276555e-05
  1.073509e-02    2.114321e-05
  1.103402e-02    2.003001e-05
  1.133295e-02    1.890984e-05
  1.163188e-02    1.802098e-05
  1.193081e-02    1.735383e-05
  1.222974e-02    1.644844e-05
  1.252867e-02    1.565497e-05
  1.282760e-02    1.509901e-05
  1.312654e-02    1.465519e-05
  1.342547e-02    1.420912e-05
  1.372440e-02    1.377633e-05
  1.402333e-02    1.364764e-05
  1.432226e-02    1.353377e-05
  1.462119e-02    1.326788e-05
  1.492012e-02    1.316282e-05
  1.521905e-02    1.293322e-05
  1.551798e-02    1.290177e-05
  1.581691e-02    1.310024e-05
  1.611584e-02    1.314627e-05
  1.641477e-02    1.325044e-05
  1.671370e-02    1.357100e-05
  1.701263e-02    1.374529e-05
  1.731156e-02    1.400275e-05
  1.761049e-02    1.432145e-05
  1.790942e-02    1.471572e-05
  1.820835e-02    1.515236e-05
  1.850728e-02    1.567239e-05
  1.880621e-02    1.617915e-05
  1.910514e-02    1.691607e-05
  1.940407e-02    1.760993e-05
  1.970300e-02    1.830011e-05
  2.000193e-02    1.924426e-05
  2.030086e-02    2.012679e-05
  2.059979e-02    2.121671e-05
  2.089873e-02    2.239753e-05
  2.119766e-02    2.347538e-05
  2.149659e-02    2.477705e-05
  2.179552e-02    2.603863e-05
  2.209445e-02    2.752666e-05
  2.239338e-02    2.882121e-05
  2.269231e-02    3.006118e-05
  2.299124e-02    3.156598e-05
  2.329017e-02    3.292557e-05
  2.358910e-02    3.444115e-05
  2.388803e-02    3.574783e-05
  2.418696e-02    3.671986e-05
  2.448589e-02    3.782865e-05
  2.478482e-02    3.858672e-05
  2.508375e-02    3.919733e-05
  2.538268e-02    3.954387e-05
  2.568161e-02    3.979274e-05
  2.598054e-02    3.991395e-05
  2.627947e-02    3.988452e-05
  2.657840e-02    3.933141e-05
  2.687733e-02    3.857118e-05
  2.717626e-02    3.766783e-05
  2.747519e-02    3.661836e-05
  2.777412e-02    3.557269e-05
  2.807305e-02    3.419551e-05
  2.837198e-02    3.270959e-05
  2.867092e-02    3.131496e-05
  2.896985e-02    2.988270e-05
  2.926878e-02    2.831881e-05
  2.956771e-02    2.702945e-05
  2.986664e-02    2.573245e-05
  3.016557e-02    2.446875e-05
  3.046450e-02    2.332965e-05
  3.076343e-02    2.220516e-05
  3.106236e-02    2.105600e-05
  3.136129e-02    2.010573e-05
  3.166022e-02    1.916806e-05
  3.195915e-02    1.831390e-05
  3.225808e-02    1.753973e-05
  3.255701e-02    1.680307e-05
  3.285594e-02    1.604733e-05
  3.315487e-02    1.552729e-05
  3.345380e-02    1.481601e-05
  3.375273e-02    1.434134e-05
  3.405166e-02    1.378364e-05
  3.435059e-02    1.328059e-05
  3.464952e-02    1.276980e-05
  3.494845e-02    1.246750e-05
  3.524738e-02    1.218884e-05
  3.554631e-02    1.188481e-05
  3.584524e-02    1.148447e-05
  3.614417e-02    1.117197e-05
  3.644310e-02    1.086273e-05
  3.674204e-02    1.063914e-05
  3.704097e-02    1.043162e-05
  3.733990e-02    1.020958e-05
  3.763883e-02    9.955334e-06
  3.793776e-02    9.834365e-06
  3.823669e-02    9.724824e-06
  3.853562e-02    9.487509e-06
  3.883455e-02    9.383361e-06
  3.913348e-02    9.192503e-06
  3.943241e-02    8.985296e-06
  3.973134e-02    8.936247e-06
  4.003027e-02    8.848086e-06
  4.032920e-02    8.754505e-06
  4.062813e-02    8.708438e-06
  4.092706e-02    8.574106e-06
  4.122599e-02    8.456288e-06
  4.152492e-02    8.374450e-06
  4.182385e-02    8.237634e-06
  4.212278e-02    8.141025e-06
  4.242171e-02    8.130398e-06
  4.272064e-02    8.129687e-06
  4.301957e-02    7.964879e-06
  4.331850e-02    7.868134e-06
  4.361743e-02    7.843389e-06
  4.391636e-02    7.786894e-06
  4.421529e-02    7.684498e-06
  4.451423e-02    7.618020e-06
  4.481316e-02    7.610025e-06
  4.511209e-02    7.501183e-06
  4.541102e-02    7.422573e-06
  4.570995e-02    7.321697e-06
  4.600888e-02    7.199369e-06
  4.630781e-02    7.164553e-06
  4.660674e-02    7.103480e-06
  4.690567e-02    7.003825e-06
  4.720460e-02    6.859754e-06
  4.750353e-02    6.776176e-06
  4.780246e-02    6.623455e-06
  4.810139e-02    6.531344e-06
  4.840032e-02    6.531101e-06
  4.869925e-02    6.406050e-06
  4.899818e-02    6.337068e-06
  4.929711e-02    6.209311e-06
  4.959604e-02    6.106337e-06
  4.989497e-02    6.053750e-06
  5.019390e-02    5.856344e-06
  5.049283e-02    5.727647e-06
  5.079176e-02    5.641070e-06
  5.109069e-02    5.549265e-06
  5.138962e-02    5.461973e-06
  5.168855e-02    5.246137e-06
  5.198748e-02    5.153419e-06
  5.228642e-02    5.055495e-06
  5.258535e-02    4.894429e-06
  5.288428e-02    4.786009e-06
  5.318321e-02    4.668968e-06
  5.348214e-02    4.499002e-06
  5.378107e-02    4.382305e-06
  5.408000e-02    4.286745e-06
  5.437893e-02    4.166693e-06
  5.467786e-02    4.053021e-06
  5.497679e-02    3.989801e-06
  5.527572e-02    3.911199e-06
  5.557465e-02    3.769884e-06
  5.587358e-02    3.640516e-06
  5.617251e-02    3.539610e-06
  5.647144e-02    3.463103e-06
  5.677037e-02    3.342986e-06
  5.706930e-02    3.246626e-06
  5.736823e-02    3.205883e-06
  5.766716e-02    3.143496e-06
  5.796609e-02    3.049173e-06
  5.826502e-02    2.945602e-06
  5.856395e-02    2.888364e-06
  5.886288e-02    2.800739e-06
  5.916181e-02    2.734895e-06
  5.946074e-02    2.646428e-06
  5.975967e-02    2.572832e-06
  6.005861e-02    2.529667e-06
  6.035754e-02    2.481110e-06
  6.065647e-02    2.448475e-06
  6.095540e-02    2.380955e-06
  6.125433e-02    2.327066e-06
  6.155326e-02    2.311235e-06
  6.185219e-02    2.245169e-06
  6.215112e-02    2.179265e-06
  6.245005e-02    2.155792e-06
  6.274898e-02    2.100425e-06
  6.304791e-02    2.039876e-06
  6.334684e-02    1.966786e-06
  6.364577e-02    1.941836e-06
  6.394470e-02    1.924460e-06
  6.424363e-02    1.928377e-06
  6.454256e-02    1.900791e-06
  6.484149e-02    1.842540e-06
  6.514042e-02    1.791773e-06
  6.543935e-02    1.778072e-06
  6.573828e-02    1.776033e-06
  6.603721e-02    1.723317e-06
  6.633614e-02    1.688823e-06
  6.663507e-02    1.679872e-06
  6.693400e-02    1.639318e-06
  6.723293e-02    1.613748e-06
  6.753186e-02    1.595901e-06
  6.783080e-02    1.600313e-06
  6.812973e-02    1.569886e-06
  6.842866e-02    1.508588e-06
  6.872759e-02    1.514811e-06
  6.902652e-02    1.505971e-06
  6.932545e-02    1.448485e-06
  6.962438e-02    1.427402e-06
  6.992331e-02    1.400535e-06
  7.022224e-02    1.393624e-06
  7.052117e-02    1.385985e-06
  7.082010e-02    1.347715e-06
  7.111903e-02    1.341669e-06
  7.141796e-02    1.332869e-06
  7.171689e-02    1.322307e-06
  7.201582e-02    1.317279e-06
  7.231475e-02    1.304067e-06
  7.261368e-02    1.292083e-06
  7.291261e-02    1.274693e-06
  7.321154e-02    1.267774e-06
  7.351047e-02    1.242164e-06
  7.380940e-02    1.232552e-06
  7.410833e-02    1.219515e-06
  7.440726e-02    1.196815e-06
  7.470619e-02    1.205768e-06
  7.500512e-02    1.200507e-06
  7.530405e-02    1.195852e-06
  7.560299e-02    1.191514e-06
  7.590192e-02    1.182203e-06
  7.620085e-02    1.177534e-06
  7.649978e-02    1.152458e-06
  7.679871e-02    1.151519e-06
  7.709764e-02    1.151639e-06
  7.739657e-02    1.153064e-06
  7.769550e-02    1.132841e-06
  7.799443e-02    1.143301e-06
  7.829336e-02    1.152132e-06
  7.859229e-02    1.142564e-06
  7.889122e-02    1.147946e-06
  7.919015e-02    1.136164e-06
  7.948908e-02    1.122556e-06
  7.978801e-02    1.132748e-06
  8.008694e-02    1.111538e-06
  8.038587e-02    1.105577e-06
  8.068480e-02    1.124585e-06
  8.098373e-02    1.121572e-06
  8.128266e-02    1.128871e-06
  8.158159e-02    1.121238e-06
  8.188052e-02    1.125579e-06
  8.217945e-02    1.099184e-06
  8.247838e-02    1.122677e-06
  8.277731e-02    1.122036e-06
  8.307624e-02    1.126877e-06
  8.337518e-02    1.124408e-06
  8.367411e-02    1.123343e-06
  8.397304e-02    1.110052e-06
  8.427197e-02    1.107279e-06
  8.457090e-02    1.118254e-06
  8.486983e-02    1.099774e-06
  8.516876e-02    1.118279e-06
  8.546769e-02    1.116423e-06
  8.576662e-02    1.118755e-06
  8.606555e-02    1.121427e-06
  8.636448e-02    1.120356e-06
  8.666341e-02    1.134505e-06
  8.696234e-02    1.130944e-06
  8.726127e-02    1.120994e-06
  8.756020e-02    1.129375e-06
  8.785913e-02    1.132578e-06
  8.815806e-02    1.128229e-06
  8.845699e-02    1.127349e-06
  8.875592e-02    1.143192e-06
  8.905485e-02    1.131700e-06
  8.935378e-02    1.135563e-06
  8.965271e-02    1.118679e-06
  8.995164e-02    1.111172e-06
  9.025057e-02    1.121857e-06
  9.054950e-02    1.142676e-06
  9.084843e-02    1.146546e-06
  9.114737e-02    1.123588e-06
  9.144630e-02    1.144816e-06
  9.174523e-02    1.152305e-06
  9.204416e-02    1.157889e-06
  9.234309e-02    1.151096e-06
  9.264202e-02    1.160180e-06
  9.294095e-02    1.156394e-06
  9.323988e-02    1.139438e-06
  9.353881e-02    1.138316e-06
  9.383774e-02    1.136611e-06
  9.413667e-02    1.138038e-06
  9.443560e-02    1.136084e-06
  9.473453e-02    1.135067e-06
  9.503346e-02    1.163703e-06
  9.533239e-02    1.192599e-06
  9.563132e-02    1.162018e-06
  9.593025e-02    1.138456e-06
  9.622918e-02    1.169711e-06
  9.652811e-02    1.178419e-06
  9.682704e-02    1.178641e-06
  9.712597e-02    1.170932e-06
  9.742490e-02    1.174443e-06
  9.772383e-02    1.166095e-06
  9.802276e-02    1.151748e-06
  9.832169e-02    1.158503e-06
  9.862062e-02    1.170971e-06
  9.891956e-02    1.181341e-06
  9.921849e-02    1.174976e-06
  9.951742e-02    1.163006e-06
  9.981635e-02    1.163498e-06
  1.001153e-01    1.166762e-06
  1.004142e-01    1.168507e-06
  1.007131e-01    1.160126e-06
  1.010121e-01    1.156764e-06
  1.013110e-01    1.146090e-06
  1.016099e-01    1.158798e-06
  1.019089e-01    1.153403e-06
  1.022078e-01    1.137412e-06
  1.025067e-01    1.140237e-06
  1.028057e-01    1.150069e-06
  1.031046e-01    1.136816e-06
  1.034035e-01    1.141385e-06
  1.037024e-01    1.153688e-06
  1.040014e-01    1.160755e-06
  1.043003e-01    1.150114e-06
  1.045992e-01    1.144361e-06
  1.048982e-01    1.156829e-06
  1.051971e-01    1.139373e-06
  1.054960e-01    1.112336e-06
  1.057950e-01    1.130935e-06
  1.060939e-01    1.142821e-06
  1.063928e-01    1.131702e-06
  1.066917e-01    1.147798e-06
  1.069907e-01    1.129619e-06
  1.072896e-01    1.127869e-06
  1.075885e-01    1.142059e-06
  1.078875e-01    1.133289e-06
  1.081864e-01    1.100166e-06
  1.084853e-01    1.128647e-06
  1.087843e-01    1.151138e-06
  1.090832e-01    1.138071e-06
  1.093821e-01    1.136048e-06
  1.096810e-01    1.140561e-06
  1.099800e-01    1.134711e-06
  1.102789e-01    1.128945e-06
  1.105778e-01    1.113868e-06
  1.108768e-01    1.122831e-06
  1.111757e-01    1.127450e-06
  1.114746e-01    1.087790e-06
  1.117736e-01    1.052403e-06
  1.120725e-01    1.035756e-06
  1.123714e-01    1.022391e-06
  1.126704e-01    1.030504e-06
  1.129693e-01    1.038002e-06
  1.132682e-01    1.043816e-06
  1.135671e-01    1.014346e-06
  1.138661e-01    9.853261e-07
  1.141650e-01    9.662767e-07
  1.144639e-01    9.452650e-07
  1.147629e-01    9.129623e-07
  1.150618e-01    9.287456e-07
  1.153607e-01    9.014351e-07
  1.156597e-01    8.961951e-07
  1.159586e-01    9.090295e-07
  1.162575e-01    9.381477e-07
  1.165564e-01    9.304601e-07
  1.168554e-01    9.310297e-07
  1.171543e-01    9.363965e-07
  1.174532e-01    8.911041e-07
  1.177522e-01    8.453247e-07
  1.180511e-01    8.339135e-07
  1.183500e-01    8.523545e-07
  1.186490e-01    8.624564e-07
  1.189479e-01    9.334756e-07
  1.192468e-01    9.728110e-07
  1.195458e-01    9.082490e-07
  1.198447e-01    8.792814e-07
  1.201436e-01    8.909225e-07
  1.204425e-01    8.739154e-07
  1.207415e-01    8.671310e-07
  1.210404e-01    1.057407e-06
  1.213393e-01    0.000000e+00
  1.216383e-01    0.000000e+00
  1.219372e-01    0.000000e+00
  1.222361e-01    0.000000e+00
  1.225351e-01    0.000000e+00
  1.228340e-01    0.000000e+00
  1.231329e-01    0.000000e+00
  1.234318e-01    0.000000e+00
  1.237308e-01    0.000000e+00
  1.240297e-01    0.000000e+00
  1.243286e-01    0.000000e+00
  1.246276e-01    0.000000e+00
  1.249265e-01    0.000000e+00
  1.252254e-01    0.000000e+00
  1.255244e-01    0.000000e+00
  1.258233e-01    0.000000e+00
  1.261222e-01    0.000000e+00
  1.264212e-01    0.000000e+00
  1.267201e-01    0.000000e+00
  1.270190e-01    0.000000e+00
  1.273179e-01    0.000000e+00
  1.276169e-01    0.000000e+00
  1.279158e-01    0.000000e+00
  1.282147e-01    0.000000e+00
  1.285137e-01    0.000000e+00
  1.288126e-01    0.000000e+00
  1.291115e-01    0.000000e+00
  1.294105e-01    0.000000e+00
  1.297094e-01    0.000000e+00
  1.300083e-01    0.000000e+00
  1.303072e-01    0.000000e+00
  1.306062e-01    0.000000e+00
  1.309051e-01    0.000000e+00
  1.312040e-01    0.000000e+00
  1.315030e-01    0.000000e+00
  1.318019e-01    0.000000e+00
  1.321008e-01    0.000000e+00
  1.323998e-01    0.000000e+00
  1.326987e-01    0.000000e+00
  1.329976e-01    0.000000e+00
  1.332965e-01    0.000000e+00
  1.335955e-01    0.000000e+00
  1.338944e-01    0.000000e+00
  1.341933e-01    0.000000e+00
  1.344923e-01    0.000000e+00
  1.347912e-01    0.000000e+00
  1.350901e-01    0.000000e+00
  1.353891e-01    0.000000e+00
  1.356880e-01    0.000000e+00
  1.359869e-01    0.000000e+00
  1.362859e-01    0.000000e+00
  1.365848e-01    0.000000e+00
  1.368837e-01    0.000000e+00
  1.371826e-01    0.000000e+00
  1.374816e-01    0.000000e+00
  1.377805e-01    0.000000e+00
  1.380794e-01    0.000000e+00
  1.383784e-01    0.000000e+00
  1.386773e-01    0.000000e+00
  1.389762e-01    0.000000e+00
  1.392752e-01    0.000000e+00
  1.395741e-01    0.000000e+00
  1.398730e-01    0.000000e+00
  1.401719e-01    0.000000e+00
  1.404709e-01    0.000000e+00
  1.407698e-01    0.000000e+00
  1.410687e-01    0.000000e+00
  1.413677e-01    0.000000e+00
  1.416666e-01    0.000000e+00
  1.419655e-01    0.000000e+00
  1.422645e-01    0.000000e+00
  1.425634e-01    0.000000e+00
  1.428623e-01    0.000000e+00
  1.431613e-01    0.000000e+00
  1.434602e-01    0.000000e+00
  1.437591e-01    0.000000e+00
  1.440580e-01    0.000000e+00
  1.443570e-01    0.000000e+00
  1.446559e-01    0.000000e+00
  1.449548e-01    0.000000e+00
  1.452538e-01    0.000000e+00
  1.455527e-01    0.000000e+00
  1.458516e-01    0.000000e+00
  1.461506e-01    0.000000e+00
  1.464495e-01    0.000000e+00
  1.467484e-01    0.000000e+00
  1.470473e-01    0.000000e+00
  1.473463e-01    0.000000e+00
  1.476452e-01    0.000000e+00
  1.479441e-01    0.000000e+00
  1.482431e-01    0.000000e+00
  1.485420e-01    0.000000e+00
  1.488409e-01    0.000000e+00
  1.491399e-01    0.000000e+00
  1.494388e-01    0.000000e+00
  1.497377e-01    0.000000e+00
  1.500367e-01    0.000000e+00
  1.503356e-01    0.000000e+00
  1.506345e-01    0.000000e+00
  1.509334e-01    0.000000e+00
  1.512324e-01    0.000000e+00
  1.515313e-01    0.000000e+00
  1.518302e-01    0.000000e+00
  1.521292e-01    0.000000e+00
  1.524281e-01    0.000000e+00
  1.527270e-01    0.000000e+00
  1.530260e-01    0.000000e+00
  1.533249e-01    0.000000e+00
  1.536238e-01    0.000000e+00
