# == pyFAI calibration ==
# Distance Sample to Detector: 2.266 m
# PONI: 5.659e-02, 4.293e-02 m
# Rotations: 0.000000 0.000000 0.000000 rad
# 
# == Fit2d calibration ==
# Distance Sample-beamCenter: 2266.000 mm
# Center: x=249.594, y=329.012 pix
# Tilt: 0.000 deg  TiltPlanRot: 0.000 deg
# 
# Detector Pilatus 300k	 PixelSize= 1.720e-04, 1.720e-04 m
#    Detector has a mask: True 
#    Detector has a dark current: False 
#    detector has a flat field: False 
# 
# Wavelength: 1.27818e-10 m
# Mask applied: user provided
# Dark current applied: False
# Flat field applied: False
# Polarization factor: None
# Normalization factor: 6183014.0
# --> AL_F127_220226_78baf016-7e37-4e65-ad32-e0a457b2a8f4_0_r1d.csv
#        q_A^-1             I 
  4.457554e-03    4.811737e-03
  4.756484e-03    3.776510e-03
  5.055415e-03    2.689636e-03
  5.354345e-03    1.886245e-03
  5.653276e-03    1.467096e-03
  5.952206e-03    2.455684e-03
  6.251136e-03    2.233868e-03
  6.550067e-03    1.936005e-03
  6.848997e-03    1.640554e-03
  7.147927e-03    1.382703e-03
  7.446858e-03    1.178203e-03
  7.745788e-03    1.008691e-03
  8.044719e-03    8.696450e-04
  8.343649e-03    7.597070e-04
  8.642579e-03    6.648347e-04
  8.941510e-03    5.854390e-04
  9.240440e-03    5.188379e-04
  9.539371e-03    4.600802e-04
  9.838301e-03    4.098673e-04
  1.013723e-02    3.677798e-04
  1.043616e-02    3.313039e-04
  1.073509e-02    2.968829e-04
  1.103402e-02    2.688516e-04
  1.133295e-02    2.445217e-04
  1.163188e-02    2.230708e-04
  1.193081e-02    2.044674e-04
  1.222974e-02    1.874023e-04
  1.252867e-02    1.721874e-04
  1.282760e-02    1.587544e-04
  1.312654e-02    1.461755e-04
  1.342547e-02    1.352772e-04
  1.372440e-02    1.259740e-04
  1.402333e-02    1.173165e-04
  1.432226e-02    1.089923e-04
  1.462119e-02    1.014753e-04
  1.492012e-02    9.531211e-05
  1.521905e-02    8.939266e-05
  1.551798e-02    8.357803e-05
  1.581691e-02    7.862686e-05
  1.611584e-02    7.452121e-05
  1.641477e-02    7.038414e-05
  1.671370e-02    6.649903e-05
  1.701263e-02    6.292079e-05
  1.731156e-02    5.963893e-05
  1.761049e-02    5.688010e-05
  1.790942e-02    5.429178e-05
  1.820835e-02    5.147394e-05
  1.850728e-02    4.921044e-05
  1.880621e-02    4.711463e-05
  1.910514e-02    4.525232e-05
  1.940407e-02    4.336491e-05
  1.970300e-02    4.159135e-05
  2.000193e-02    4.014899e-05
  2.030086e-02    3.865652e-05
  2.059979e-02    3.731454e-05
  2.089873e-02    3.611182e-05
  2.119766e-02    3.489571e-05
  2.149659e-02    3.390479e-05
  2.179552e-02    3.291859e-05
  2.209445e-02    3.191987e-05
  2.239338e-02    3.091338e-05
  2.269231e-02    3.006621e-05
  2.299124e-02    2.924076e-05
  2.329017e-02    2.842379e-05
  2.358910e-02    2.777761e-05
  2.388803e-02    2.720326e-05
  2.418696e-02    2.656078e-05
  2.448589e-02    2.588263e-05
  2.478482e-02    2.539358e-05
  2.508375e-02    2.495598e-05
  2.538268e-02    2.439865e-05
  2.568161e-02    2.386840e-05
  2.598054e-02    2.344010e-05
  2.627947e-02    2.307015e-05
  2.657840e-02    2.281959e-05
  2.687733e-02    2.254742e-05
  2.717626e-02    2.223014e-05
  2.747519e-02    2.169504e-05
  2.777412e-02    2.134080e-05
  2.807305e-02    2.113916e-05
  2.837198e-02    2.093951e-05
  2.867092e-02    2.059628e-05
  2.896985e-02    2.016114e-05
  2.926878e-02    1.997013e-05
  2.956771e-02    1.978028e-05
  2.986664e-02    1.958613e-05
  3.016557e-02    1.931863e-05
  3.046450e-02    1.907502e-05
  3.076343e-02    1.894849e-05
  3.106236e-02    1.873731e-05
  3.136129e-02    1.852927e-05
  3.166022e-02    1.832912e-05
  3.195915e-02    1.821250e-05
  3.225808e-02    1.808828e-05
  3.255701e-02    1.792458e-05
  3.285594e-02    1.775190e-05
  3.315487e-02    1.766340e-05
  3.345380e-02    1.742354e-05
  3.375273e-02    1.721052e-05
  3.405166e-02    1.702635e-05
  3.435059e-02    1.689452e-05
  3.464952e-02    1.670227e-05
  3.494845e-02    1.658886e-05
  3.524738e-02    1.646899e-05
  3.554631e-02    1.640945e-05
  3.584524e-02    1.618998e-05
  3.614417e-02    1.593839e-05
  3.644310e-02    1.592718e-05
  3.674204e-02    1.585684e-05
  3.704097e-02    1.571724e-05
  3.733990e-02    1.548194e-05
  3.763883e-02    1.542080e-05
  3.793776e-02    1.529499e-05
  3.823669e-02    1.528223e-05
  3.853562e-02    1.525600e-05
  3.883455e-02    1.518119e-05
  3.913348e-02    1.508894e-05
  3.943241e-02    1.489914e-05
  3.973134e-02    1.481169e-05
  4.003027e-02    1.477017e-05
  4.032920e-02    1.464334e-05
  4.062813e-02    1.453852e-05
  4.092706e-02    1.451430e-05
  4.122599e-02    1.442933e-05
  4.152492e-02    1.437403e-05
  4.182385e-02    1.429797e-05
  4.212278e-02    1.425662e-05
  4.242171e-02    1.426330e-05
  4.272064e-02    1.425176e-05
  4.301957e-02    1.418910e-05
  4.331850e-02    1.406328e-05
  4.361743e-02    1.402154e-05
  4.391636e-02    1.400345e-05
  4.421529e-02    1.389656e-05
  4.451423e-02    1.387819e-05
  4.481316e-02    1.388808e-05
  4.511209e-02    1.376532e-05
  4.541102e-02    1.380799e-05
  4.570995e-02    1.382605e-05
  4.600888e-02    1.385985e-05
  4.630781e-02    1.382908e-05
  4.660674e-02    1.381872e-05
  4.690567e-02    1.375920e-05
  4.720460e-02    1.374423e-05
  4.750353e-02    1.382246e-05
  4.780246e-02    1.380080e-05
  4.810139e-02    1.379121e-05
  4.840032e-02    1.372052e-05
  4.869925e-02    1.371589e-05
  4.899818e-02    1.369456e-05
  4.929711e-02    1.365616e-05
  4.959604e-02    1.373581e-05
  4.989497e-02    1.371939e-05
  5.019390e-02    1.363649e-05
  5.049283e-02    1.365604e-05
  5.079176e-02    1.371903e-05
  5.109069e-02    1.375486e-05
  5.138962e-02    1.379993e-05
  5.168855e-02    1.403115e-05
  5.198748e-02    1.430408e-05
  5.228642e-02    1.409078e-05
  5.258535e-02    1.365565e-05
  5.288428e-02    1.355804e-05
  5.318321e-02    1.363142e-05
  5.348214e-02    1.362656e-05
  5.378107e-02    1.364177e-05
  5.408000e-02    1.365514e-05
  5.437893e-02    1.368716e-05
  5.467786e-02    1.364886e-05
  5.497679e-02    1.357503e-05
  5.527572e-02    1.362357e-05
  5.557465e-02    1.361563e-05
  5.587358e-02    1.364678e-05
  5.617251e-02    1.368036e-05
  5.647144e-02    1.368324e-05
  5.677037e-02    1.372287e-05
  5.706930e-02    1.369696e-05
  5.736823e-02    1.369622e-05
  5.766716e-02    1.368260e-05
  5.796609e-02    1.365199e-05
  5.826502e-02    1.367218e-05
  5.856395e-02    1.371571e-05
  5.886288e-02    1.371682e-05
  5.916181e-02    1.384836e-05
  5.946074e-02    1.381763e-05
  5.975967e-02    1.377435e-05
  6.005861e-02    1.382718e-05
  6.035754e-02    1.381462e-05
  6.065647e-02    1.382726e-05
  6.095540e-02    1.399636e-05
  6.125433e-02    1.416980e-05
  6.155326e-02    1.419200e-05
  6.185219e-02    1.401584e-05
  6.215112e-02    1.393290e-05
  6.245005e-02    1.396543e-05
  6.274898e-02    1.402596e-05
  6.304791e-02    1.400321e-05
  6.334684e-02    1.400038e-05
  6.364577e-02    1.403081e-05
  6.394470e-02    1.405296e-05
  6.424363e-02    1.407886e-05
  6.454256e-02    1.411498e-05
  6.484149e-02    1.416522e-05
  6.514042e-02    1.416570e-05
  6.543935e-02    1.413713e-05
  6.573828e-02    1.413927e-05
  6.603721e-02    1.417088e-05
  6.633614e-02    1.422208e-05
  6.663507e-02    1.425356e-05
  6.693400e-02    1.423429e-05
  6.723293e-02    1.421077e-05
  6.753186e-02    1.425262e-05
  6.783080e-02    1.421598e-05
  6.812973e-02    1.422691e-05
  6.842866e-02    1.426977e-05
  6.872759e-02    1.431484e-05
  6.902652e-02    1.430737e-05
  6.932545e-02    1.430698e-05
  6.962438e-02    1.427490e-05
  6.992331e-02    1.432728e-05
  7.022224e-02    1.442435e-05
  7.052117e-02    1.439019e-05
  7.082010e-02    1.435107e-05
  7.111903e-02    1.437868e-05
  7.141796e-02    1.435049e-05
  7.171689e-02    1.442570e-05
  7.201582e-02    1.449634e-05
  7.231475e-02    1.447593e-05
  7.261368e-02    1.448404e-05
  7.291261e-02    1.454428e-05
  7.321154e-02    1.452990e-05
  7.351047e-02    1.448543e-05
  7.380940e-02    1.445362e-05
  7.410833e-02    1.449453e-05
  7.440726e-02    1.456807e-05
  7.470619e-02    1.449427e-05
  7.500512e-02    1.446881e-05
  7.530405e-02    1.450704e-05
  7.560299e-02    1.453271e-05
  7.590192e-02    1.453627e-05
  7.620085e-02    1.448631e-05
  7.649978e-02    1.442000e-05
  7.679871e-02    1.440893e-05
  7.709764e-02    1.444079e-05
  7.739657e-02    1.444612e-05
  7.769550e-02    1.447705e-05
  7.799443e-02    1.444006e-05
  7.829336e-02    1.445774e-05
  7.859229e-02    1.451055e-05
  7.889122e-02    1.447225e-05
  7.919015e-02    1.439193e-05
  7.948908e-02    1.440974e-05
  7.978801e-02    1.440536e-05
  8.008694e-02    1.438800e-05
  8.038587e-02    1.438155e-05
  8.068480e-02    1.434118e-05
  8.098373e-02    1.436806e-05
  8.128266e-02    1.436210e-05
  8.158159e-02    1.436882e-05
  8.188052e-02    1.433933e-05
  8.217945e-02    1.431538e-05
  8.247838e-02    1.427248e-05
  8.277731e-02    1.429016e-05
  8.307624e-02    1.426201e-05
  8.337518e-02    1.422722e-05
  8.367411e-02    1.419684e-05
  8.397304e-02    1.415967e-05
  8.427197e-02    1.422573e-05
  8.457090e-02    1.420030e-05
  8.486983e-02    1.416891e-05
  8.516876e-02    1.418590e-05
  8.546769e-02    1.416638e-05
  8.576662e-02    1.407105e-05
  8.606555e-02    1.404754e-05
  8.636448e-02    1.401715e-05
  8.666341e-02    1.398201e-05
  8.696234e-02    1.397844e-05
  8.726127e-02    1.399190e-05
  8.756020e-02    1.396085e-05
  8.785913e-02    1.393373e-05
  8.815806e-02    1.393886e-05
  8.845699e-02    1.388941e-05
  8.875592e-02    1.387279e-05
  8.905485e-02    1.384763e-05
  8.935378e-02    1.378017e-05
  8.965271e-02    1.376059e-05
  8.995164e-02    1.369990e-05
  9.025057e-02    1.370365e-05
  9.054950e-02    1.371564e-05
  9.084843e-02    1.370296e-05
  9.114737e-02    1.367694e-05
  9.144630e-02    1.361371e-05
  9.174523e-02    1.358278e-05
  9.204416e-02    1.354578e-05
  9.234309e-02    1.349316e-05
  9.264202e-02    1.350551e-05
  9.294095e-02    1.347773e-05
  9.323988e-02    1.347053e-05
  9.353881e-02    1.347401e-05
  9.383774e-02    1.342909e-05
  9.413667e-02    1.339572e-05
  9.443560e-02    1.339951e-05
  9.473453e-02    1.337617e-05
  9.503346e-02    1.335479e-05
  9.533239e-02    1.336014e-05
  9.563132e-02    1.334764e-05
  9.593025e-02    1.334156e-05
  9.622918e-02    1.340749e-05
  9.652811e-02    1.336489e-05
  9.682704e-02    1.336893e-05
  9.712597e-02    1.331374e-05
  9.742490e-02    1.323042e-05
  9.772383e-02    1.321664e-05
  9.802276e-02    1.319372e-05
  9.832169e-02    1.313979e-05
  9.862062e-02    1.311005e-05
  9.891956e-02    1.305534e-05
  9.921849e-02    1.300230e-05
  9.951742e-02    1.303796e-05
  9.981635e-02    1.303271e-05
  1.001153e-01    1.301877e-05
  1.004142e-01    1.289256e-05
  1.007131e-01    1.285300e-05
  1.010121e-01    1.289903e-05
  1.013110e-01    1.286352e-05
  1.016099e-01    1.280355e-05
  1.019089e-01    1.283297e-05
  1.022078e-01    1.285995e-05
  1.025067e-01    1.280634e-05
  1.028057e-01    1.274052e-05
  1.031046e-01    1.271362e-05
  1.034035e-01    1.267260e-05
  1.037024e-01    1.264009e-05
  1.040014e-01    1.269566e-05
  1.043003e-01    1.268634e-05
  1.045992e-01    1.263616e-05
  1.048982e-01    1.257121e-05
  1.051971e-01    1.255243e-05
  1.054960e-01    1.252619e-05
  1.057950e-01    1.250735e-05
  1.060939e-01    1.249528e-05
  1.063928e-01    1.252089e-05
  1.066917e-01    1.249452e-05
  1.069907e-01    1.251033e-05
  1.072896e-01    1.247860e-05
  1.075885e-01    1.242964e-05
  1.078875e-01    1.231842e-05
  1.081864e-01    1.230690e-05
  1.084853e-01    1.231488e-05
  1.087843e-01    1.231473e-05
  1.090832e-01    1.231730e-05
  1.093821e-01    1.225600e-05
  1.096810e-01    1.216808e-05
  1.099800e-01    1.210389e-05
  1.102789e-01    1.212194e-05
  1.105778e-01    1.209830e-05
  1.108768e-01    1.212562e-05
  1.111757e-01    1.209570e-05
  1.114746e-01    1.204139e-05
  1.117736e-01    1.203949e-05
  1.120725e-01    1.202658e-05
  1.123714e-01    1.197097e-05
  1.126704e-01    1.190859e-05
  1.129693e-01    1.182143e-05
  1.132682e-01    1.178513e-05
  1.135671e-01    1.181253e-05
  1.138661e-01    1.177763e-05
  1.141650e-01    1.175827e-05
  1.144639e-01    1.173612e-05
  1.147629e-01    1.159013e-05
  1.150618e-01    1.155867e-05
  1.153607e-01    1.167257e-05
  1.156597e-01    1.169753e-05
  1.159586e-01    1.164236e-05
  1.162575e-01    1.156325e-05
  1.165564e-01    1.148164e-05
  1.168554e-01    1.150187e-05
  1.171543e-01    1.150769e-05
  1.174532e-01    1.153502e-05
  1.177522e-01    1.156711e-05
  1.180511e-01    1.141377e-05
  1.183500e-01    1.130692e-05
  1.186490e-01    1.134139e-05
  1.189479e-01    1.138414e-05
  1.192468e-01    1.136442e-05
  1.195458e-01    1.136741e-05
  1.198447e-01    1.151264e-05
  1.201436e-01    1.164292e-05
  1.204425e-01    1.143682e-05
  1.207415e-01    1.151599e-05
  1.210404e-01    1.181723e-05
  1.213393e-01    0.000000e+00
  1.216383e-01    0.000000e+00
  1.219372e-01    0.000000e+00
  1.222361e-01    0.000000e+00
  1.225351e-01    0.000000e+00
  1.228340e-01    0.000000e+00
  1.231329e-01    0.000000e+00
  1.234318e-01    0.000000e+00
  1.237308e-01    0.000000e+00
  1.240297e-01    0.000000e+00
  1.243286e-01    0.000000e+00
  1.246276e-01    0.000000e+00
  1.249265e-01    0.000000e+00
  1.252254e-01    0.000000e+00
  1.255244e-01    0.000000e+00
  1.258233e-01    0.000000e+00
  1.261222e-01    0.000000e+00
  1.264212e-01    0.000000e+00
  1.267201e-01    0.000000e+00
  1.270190e-01    0.000000e+00
  1.273179e-01    0.000000e+00
  1.276169e-01    0.000000e+00
  1.279158e-01    0.000000e+00
  1.282147e-01    0.000000e+00
  1.285137e-01    0.000000e+00
  1.288126e-01    0.000000e+00
  1.291115e-01    0.000000e+00
  1.294105e-01    0.000000e+00
  1.297094e-01    0.000000e+00
  1.300083e-01    0.000000e+00
  1.303072e-01    0.000000e+00
  1.306062e-01    0.000000e+00
  1.309051e-01    0.000000e+00
  1.312040e-01    0.000000e+00
  1.315030e-01    0.000000e+00
  1.318019e-01    0.000000e+00
  1.321008e-01    0.000000e+00
  1.323998e-01    0.000000e+00
  1.326987e-01    0.000000e+00
  1.329976e-01    0.000000e+00
  1.332965e-01    0.000000e+00
  1.335955e-01    0.000000e+00
  1.338944e-01    0.000000e+00
  1.341933e-01    0.000000e+00
  1.344923e-01    0.000000e+00
  1.347912e-01    0.000000e+00
  1.350901e-01    0.000000e+00
  1.353891e-01    0.000000e+00
  1.356880e-01    0.000000e+00
  1.359869e-01    0.000000e+00
  1.362859e-01    0.000000e+00
  1.365848e-01    0.000000e+00
  1.368837e-01    0.000000e+00
  1.371826e-01    0.000000e+00
  1.374816e-01    0.000000e+00
  1.377805e-01    0.000000e+00
  1.380794e-01    0.000000e+00
  1.383784e-01    0.000000e+00
  1.386773e-01    0.000000e+00
  1.389762e-01    0.000000e+00
  1.392752e-01    0.000000e+00
  1.395741e-01    0.000000e+00
  1.398730e-01    0.000000e+00
  1.401719e-01    0.000000e+00
  1.404709e-01    0.000000e+00
  1.407698e-01    0.000000e+00
  1.410687e-01    0.000000e+00
  1.413677e-01    0.000000e+00
  1.416666e-01    0.000000e+00
  1.419655e-01    0.000000e+00
  1.422645e-01    0.000000e+00
  1.425634e-01    0.000000e+00
  1.428623e-01    0.000000e+00
  1.431613e-01    0.000000e+00
  1.434602e-01    0.000000e+00
  1.437591e-01    0.000000e+00
  1.440580e-01    0.000000e+00
  1.443570e-01    0.000000e+00
  1.446559e-01    0.000000e+00
  1.449548e-01    0.000000e+00
  1.452538e-01    0.000000e+00
  1.455527e-01    0.000000e+00
  1.458516e-01    0.000000e+00
  1.461506e-01    0.000000e+00
  1.464495e-01    0.000000e+00
  1.467484e-01    0.000000e+00
  1.470473e-01    0.000000e+00
  1.473463e-01    0.000000e+00
  1.476452e-01    0.000000e+00
  1.479441e-01    0.000000e+00
  1.482431e-01    0.000000e+00
  1.485420e-01    0.000000e+00
  1.488409e-01    0.000000e+00
  1.491399e-01    0.000000e+00
  1.494388e-01    0.000000e+00
  1.497377e-01    0.000000e+00
  1.500367e-01    0.000000e+00
  1.503356e-01    0.000000e+00
  1.506345e-01    0.000000e+00
  1.509334e-01    0.000000e+00
  1.512324e-01    0.000000e+00
  1.515313e-01    0.000000e+00
  1.518302e-01    0.000000e+00
  1.521292e-01    0.000000e+00
  1.524281e-01    0.000000e+00
  1.527270e-01    0.000000e+00
  1.530260e-01    0.000000e+00
  1.533249e-01    0.000000e+00
  1.536238e-01    0.000000e+00
