# == pyFAI calibration ==
# Distance Sample to Detector: 2.266 m
# PONI: 5.659e-02, 4.293e-02 m
# Rotations: 0.000000 0.000000 0.000000 rad
# 
# == Fit2d calibration ==
# Distance Sample-beamCenter: 2266.000 mm
# Center: x=249.594, y=329.012 pix
# Tilt: 0.000 deg  TiltPlanRot: 0.000 deg
# 
# Detector Pilatus 300k	 PixelSize= 1.720e-04, 1.720e-04 m
#    Detector has a mask: True 
#    Detector has a dark current: False 
#    detector has a flat field: False 
# 
# Wavelength: 1.27818e-10 m
# Mask applied: user provided
# Dark current applied: False
# Flat field applied: False
# Polarization factor: None
# Normalization factor: 942122.3999999999
# --> AL_F127_220226_890168c6-143f-41d6-84ea-ccbd49284653_2_r1d.csv
#        q_A^-1             I 
  4.457554e-03    2.645386e-03
  4.756484e-03    2.082947e-03
  5.055415e-03    1.431135e-03
  5.354345e-03    9.432803e-04
  5.653276e-03    6.877444e-04
  5.952206e-03    9.841430e-04
  6.251136e-03    8.877417e-04
  6.550067e-03    7.766144e-04
  6.848997e-03    6.700576e-04
  7.147927e-03    5.631408e-04
  7.446858e-03    4.840019e-04
  7.745788e-03    4.205233e-04
  8.044719e-03    3.627859e-04
  8.343649e-03    3.183493e-04
  8.642579e-03    2.796465e-04
  8.941510e-03    2.448134e-04
  9.240440e-03    2.189775e-04
  9.539371e-03    1.949924e-04
  9.838301e-03    1.735258e-04
  1.013723e-02    1.566507e-04
  1.043616e-02    1.427088e-04
  1.073509e-02    1.300874e-04
  1.103402e-02    1.186777e-04
  1.133295e-02    1.082914e-04
  1.163188e-02    9.863059e-05
  1.193081e-02    9.073246e-05
  1.222974e-02    8.411750e-05
  1.252867e-02    7.762259e-05
  1.282760e-02    7.123731e-05
  1.312654e-02    6.639836e-05
  1.342547e-02    6.346730e-05
  1.372440e-02    5.969161e-05
  1.402333e-02    5.516593e-05
  1.432226e-02    5.185041e-05
  1.462119e-02    4.943682e-05
  1.492012e-02    4.647706e-05
  1.521905e-02    4.373259e-05
  1.551798e-02    4.152833e-05
  1.581691e-02    3.950467e-05
  1.611584e-02    3.760683e-05
  1.641477e-02    3.565606e-05
  1.671370e-02    3.441318e-05
  1.701263e-02    3.275381e-05
  1.731156e-02    3.162840e-05
  1.761049e-02    3.050253e-05
  1.790942e-02    2.949004e-05
  1.820835e-02    2.786690e-05
  1.850728e-02    2.651721e-05
  1.880621e-02    2.569514e-05
  1.910514e-02    2.498531e-05
  1.940407e-02    2.416234e-05
  1.970300e-02    2.334442e-05
  2.000193e-02    2.256816e-05
  2.030086e-02    2.184666e-05
  2.059979e-02    2.093154e-05
  2.089873e-02    2.017279e-05
  2.119766e-02    1.976269e-05
  2.149659e-02    1.915364e-05
  2.179552e-02    1.832998e-05
  2.209445e-02    1.815027e-05
  2.239338e-02    1.771232e-05
  2.269231e-02    1.688852e-05
  2.299124e-02    1.651792e-05
  2.329017e-02    1.605836e-05
  2.358910e-02    1.542570e-05
  2.388803e-02    1.506738e-05
  2.418696e-02    1.458297e-05
  2.448589e-02    1.448032e-05
  2.478482e-02    1.408551e-05
  2.508375e-02    1.366842e-05
  2.538268e-02    1.371200e-05
  2.568161e-02    1.341010e-05
  2.598054e-02    1.275571e-05
  2.627947e-02    1.239131e-05
  2.657840e-02    1.225249e-05
  2.687733e-02    1.213592e-05
  2.717626e-02    1.200278e-05
  2.747519e-02    1.178295e-05
  2.777412e-02    1.153671e-05
  2.807305e-02    1.138301e-05
  2.837198e-02    1.121802e-05
  2.867092e-02    1.113431e-05
  2.896985e-02    1.111200e-05
  2.926878e-02    1.103921e-05
  2.956771e-02    1.105110e-05
  2.986664e-02    1.103311e-05
  3.016557e-02    1.104250e-05
  3.046450e-02    1.085717e-05
  3.076343e-02    1.091903e-05
  3.106236e-02    1.085534e-05
  3.136129e-02    1.083210e-05
  3.166022e-02    1.093703e-05
  3.195915e-02    1.094353e-05
  3.225808e-02    1.061556e-05
  3.255701e-02    1.063022e-05
  3.285594e-02    1.062272e-05
  3.315487e-02    1.059533e-05
  3.345380e-02    1.074577e-05
  3.375273e-02    1.064300e-05
  3.405166e-02    1.059399e-05
  3.435059e-02    1.049862e-05
  3.464952e-02    1.061355e-05
  3.494845e-02    1.087779e-05
  3.524738e-02    1.079058e-05
  3.554631e-02    1.058544e-05
  3.584524e-02    1.079496e-05
  3.614417e-02    1.074584e-05
  3.644310e-02    1.071192e-05
  3.674204e-02    1.092923e-05
  3.704097e-02    1.093245e-05
  3.733990e-02    1.098108e-05
  3.763883e-02    1.094878e-05
  3.793776e-02    1.100737e-05
  3.823669e-02    1.107555e-05
  3.853562e-02    1.101113e-05
  3.883455e-02    1.122292e-05
  3.913348e-02    1.112054e-05
  3.943241e-02    1.120239e-05
  3.973134e-02    1.143736e-05
  4.003027e-02    1.134260e-05
  4.032920e-02    1.153692e-05
  4.062813e-02    1.134959e-05
  4.092706e-02    1.148289e-05
  4.122599e-02    1.166367e-05
  4.152492e-02    1.167483e-05
  4.182385e-02    1.168839e-05
  4.212278e-02    1.172233e-05
  4.242171e-02    1.188317e-05
  4.272064e-02    1.193335e-05
  4.301957e-02    1.183972e-05
  4.331850e-02    1.196532e-05
  4.361743e-02    1.209750e-05
  4.391636e-02    1.193343e-05
  4.421529e-02    1.192050e-05
  4.451423e-02    1.197722e-05
  4.481316e-02    1.188933e-05
  4.511209e-02    1.192583e-05
  4.541102e-02    1.202394e-05
  4.570995e-02    1.217184e-05
  4.600888e-02    1.219371e-05
  4.630781e-02    1.205176e-05
  4.660674e-02    1.225143e-05
  4.690567e-02    1.210100e-05
  4.720460e-02    1.200506e-05
  4.750353e-02    1.216136e-05
  4.780246e-02    1.202377e-05
  4.810139e-02    1.197114e-05
  4.840032e-02    1.211326e-05
  4.869925e-02    1.212424e-05
  4.899818e-02    1.224515e-05
  4.929711e-02    1.224260e-05
  4.959604e-02    1.212508e-05
  4.989497e-02    1.212791e-05
  5.019390e-02    1.210710e-05
  5.049283e-02    1.219101e-05
  5.079176e-02    1.226147e-05
  5.109069e-02    1.217971e-05
  5.138962e-02    1.215450e-05
  5.168855e-02    1.221985e-05
  5.198748e-02    1.228298e-05
  5.228642e-02    1.209143e-05
  5.258535e-02    1.187043e-05
  5.288428e-02    1.169189e-05
  5.318321e-02    1.155799e-05
  5.348214e-02    1.153716e-05
  5.378107e-02    1.143993e-05
  5.408000e-02    1.121642e-05
  5.437893e-02    1.129672e-05
  5.467786e-02    1.132139e-05
  5.497679e-02    1.111808e-05
  5.527572e-02    1.108408e-05
  5.557465e-02    1.108740e-05
  5.587358e-02    1.096571e-05
  5.617251e-02    1.100381e-05
  5.647144e-02    1.099947e-05
  5.677037e-02    1.084535e-05
  5.706930e-02    1.082524e-05
  5.736823e-02    1.062927e-05
  5.766716e-02    1.050372e-05
  5.796609e-02    1.060613e-05
  5.826502e-02    1.043155e-05
  5.856395e-02    1.027277e-05
  5.886288e-02    1.021937e-05
  5.916181e-02    1.014045e-05
  5.946074e-02    1.012550e-05
  5.975967e-02    1.016116e-05
  6.005861e-02    9.972608e-06
  6.035754e-02    9.929911e-06
  6.065647e-02    9.948423e-06
  6.095540e-02    1.001824e-05
  6.125433e-02    1.003193e-05
  6.155326e-02    1.007163e-05
  6.185219e-02    9.935125e-06
  6.215112e-02    9.874147e-06
  6.245005e-02    9.786237e-06
  6.274898e-02    9.732481e-06
  6.304791e-02    9.611982e-06
  6.334684e-02    9.571567e-06
  6.364577e-02    9.522524e-06
  6.394470e-02    9.475695e-06
  6.424363e-02    9.355425e-06
  6.454256e-02    9.366018e-06
  6.484149e-02    9.458335e-06
  6.514042e-02    9.318528e-06
  6.543935e-02    9.286102e-06
  6.573828e-02    9.371462e-06
  6.603721e-02    9.266907e-06
  6.633614e-02    9.133546e-06
  6.663507e-02    9.094648e-06
  6.693400e-02    9.108100e-06
  6.723293e-02    9.019255e-06
  6.753186e-02    9.014117e-06
  6.783080e-02    8.988376e-06
  6.812973e-02    8.974919e-06
  6.842866e-02    8.944533e-06
  6.872759e-02    8.890976e-06
  6.902652e-02    8.959653e-06
  6.932545e-02    8.888946e-06
  6.962438e-02    8.733250e-06
  6.992331e-02    8.860567e-06
  7.022224e-02    8.847135e-06
  7.052117e-02    8.807458e-06
  7.082010e-02    8.720483e-06
  7.111903e-02    8.654888e-06
  7.141796e-02    8.684277e-06
  7.171689e-02    8.655878e-06
  7.201582e-02    8.583143e-06
  7.231475e-02    8.641175e-06
  7.261368e-02    8.616214e-06
  7.291261e-02    8.453505e-06
  7.321154e-02    8.504449e-06
  7.351047e-02    8.533702e-06
  7.380940e-02    8.551186e-06
  7.410833e-02    8.470430e-06
  7.440726e-02    8.474859e-06
  7.470619e-02    8.553253e-06
  7.500512e-02    8.443028e-06
  7.530405e-02    8.384380e-06
  7.560299e-02    8.371273e-06
  7.590192e-02    8.313639e-06
  7.620085e-02    8.283307e-06
  7.649978e-02    8.350323e-06
  7.679871e-02    8.420568e-06
  7.709764e-02    8.195973e-06
  7.739657e-02    8.052241e-06
  7.769550e-02    8.062863e-06
  7.799443e-02    8.076803e-06
  7.829336e-02    8.170217e-06
  7.859229e-02    8.257580e-06
  7.889122e-02    8.140294e-06
  7.919015e-02    8.171733e-06
  7.948908e-02    8.080707e-06
  7.978801e-02    7.888874e-06
  8.008694e-02    7.971540e-06
  8.038587e-02    8.085440e-06
  8.068480e-02    8.066879e-06
  8.098373e-02    8.030413e-06
  8.128266e-02    7.964692e-06
  8.158159e-02    7.957547e-06
  8.188052e-02    7.926776e-06
  8.217945e-02    7.963664e-06
  8.247838e-02    8.010546e-06
  8.277731e-02    7.947356e-06
  8.307624e-02    7.886335e-06
  8.337518e-02    7.829030e-06
  8.367411e-02    7.712376e-06
  8.397304e-02    7.699242e-06
  8.427197e-02    7.705137e-06
  8.457090e-02    7.739020e-06
  8.486983e-02    7.773720e-06
  8.516876e-02    7.805073e-06
  8.546769e-02    7.739885e-06
  8.576662e-02    7.724982e-06
  8.606555e-02    7.733442e-06
  8.636448e-02    7.744595e-06
  8.666341e-02    7.701455e-06
  8.696234e-02    7.672970e-06
  8.726127e-02    7.671762e-06
  8.756020e-02    7.673996e-06
  8.785913e-02    7.618871e-06
  8.815806e-02    7.495360e-06
  8.845699e-02    7.432108e-06
  8.875592e-02    7.484693e-06
  8.905485e-02    7.604539e-06
  8.935378e-02    7.642517e-06
  8.965271e-02    7.580293e-06
  8.995164e-02    7.538606e-06
  9.025057e-02    7.486560e-06
  9.054950e-02    7.506036e-06
  9.084843e-02    7.543396e-06
  9.114737e-02    7.499584e-06
  9.144630e-02    7.436769e-06
  9.174523e-02    7.466568e-06
  9.204416e-02    7.395938e-06
  9.234309e-02    7.347795e-06
  9.264202e-02    7.331509e-06
  9.294095e-02    7.362086e-06
  9.323988e-02    7.416820e-06
  9.353881e-02    7.382887e-06
  9.383774e-02    7.400967e-06
  9.413667e-02    7.335258e-06
  9.443560e-02    7.324384e-06
  9.473453e-02    7.298182e-06
  9.503346e-02    7.302705e-06
  9.533239e-02    7.384842e-06
  9.563132e-02    7.377742e-06
  9.593025e-02    7.356276e-06
  9.622918e-02    7.256750e-06
  9.652811e-02    7.292457e-06
  9.682704e-02    7.406002e-06
  9.712597e-02    7.407662e-06
  9.742490e-02    7.446439e-06
  9.772383e-02    7.435458e-06
  9.802276e-02    7.444803e-06
  9.832169e-02    7.387149e-06
  9.862062e-02    7.261466e-06
  9.891956e-02    7.283931e-06
  9.921849e-02    7.230213e-06
  9.951742e-02    7.118339e-06
  9.981635e-02    7.122704e-06
  1.001153e-01    7.252280e-06
  1.004142e-01    7.310875e-06
  1.007131e-01    7.232522e-06
  1.010121e-01    7.281105e-06
  1.013110e-01    7.282760e-06
  1.016099e-01    7.184125e-06
  1.019089e-01    7.139528e-06
  1.022078e-01    7.099297e-06
  1.025067e-01    7.179271e-06
  1.028057e-01    7.120042e-06
  1.031046e-01    7.027576e-06
  1.034035e-01    7.061450e-06
  1.037024e-01    7.074683e-06
  1.040014e-01    7.063580e-06
  1.043003e-01    7.092986e-06
  1.045992e-01    7.088930e-06
  1.048982e-01    7.071214e-06
  1.051971e-01    7.147660e-06
  1.054960e-01    7.043201e-06
  1.057950e-01    6.908904e-06
  1.060939e-01    6.908595e-06
  1.063928e-01    6.944465e-06
  1.066917e-01    6.999298e-06
  1.069907e-01    7.132674e-06
  1.072896e-01    7.133166e-06
  1.075885e-01    7.201107e-06
  1.078875e-01    7.212708e-06
  1.081864e-01    7.125802e-06
  1.084853e-01    7.099782e-06
  1.087843e-01    7.081129e-06
  1.090832e-01    7.195865e-06
  1.093821e-01    7.178795e-06
  1.096810e-01    7.020189e-06
  1.099800e-01    7.177254e-06
  1.102789e-01    7.150975e-06
  1.105778e-01    7.101094e-06
  1.108768e-01    7.017263e-06
  1.111757e-01    7.025653e-06
  1.114746e-01    6.978004e-06
  1.117736e-01    6.882085e-06
  1.120725e-01    6.894288e-06
  1.123714e-01    6.911339e-06
  1.126704e-01    6.819294e-06
  1.129693e-01    6.713129e-06
  1.132682e-01    6.619293e-06
  1.135671e-01    6.397027e-06
  1.138661e-01    6.370150e-06
  1.141650e-01    6.248073e-06
  1.144639e-01    6.206972e-06
  1.147629e-01    6.321569e-06
  1.150618e-01    6.283346e-06
  1.153607e-01    6.245284e-06
  1.156597e-01    6.329645e-06
  1.159586e-01    6.335790e-06
  1.162575e-01    6.349129e-06
  1.165564e-01    6.297618e-06
  1.168554e-01    6.142619e-06
  1.171543e-01    6.183093e-06
  1.174532e-01    6.550261e-06
  1.177522e-01    6.413595e-06
  1.180511e-01    6.336088e-06
  1.183500e-01    6.277588e-06
  1.186490e-01    6.160843e-06
  1.189479e-01    6.233588e-06
  1.192468e-01    6.324580e-06
  1.195458e-01    6.101463e-06
  1.198447e-01    5.923644e-06
  1.201436e-01    6.438147e-06
  1.204425e-01    6.384872e-06
  1.207415e-01    5.109690e-06
  1.210404e-01    3.187184e-06
  1.213393e-01    0.000000e+00
  1.216383e-01    0.000000e+00
  1.219372e-01    0.000000e+00
  1.222361e-01    0.000000e+00
  1.225351e-01    0.000000e+00
  1.228340e-01    0.000000e+00
  1.231329e-01    0.000000e+00
  1.234318e-01    0.000000e+00
  1.237308e-01    0.000000e+00
  1.240297e-01    0.000000e+00
  1.243286e-01    0.000000e+00
  1.246276e-01    0.000000e+00
  1.249265e-01    0.000000e+00
  1.252254e-01    0.000000e+00
  1.255244e-01    0.000000e+00
  1.258233e-01    0.000000e+00
  1.261222e-01    0.000000e+00
  1.264212e-01    0.000000e+00
  1.267201e-01    0.000000e+00
  1.270190e-01    0.000000e+00
  1.273179e-01    0.000000e+00
  1.276169e-01    0.000000e+00
  1.279158e-01    0.000000e+00
  1.282147e-01    0.000000e+00
  1.285137e-01    0.000000e+00
  1.288126e-01    0.000000e+00
  1.291115e-01    0.000000e+00
  1.294105e-01    0.000000e+00
  1.297094e-01    0.000000e+00
  1.300083e-01    0.000000e+00
  1.303072e-01    0.000000e+00
  1.306062e-01    0.000000e+00
  1.309051e-01    0.000000e+00
  1.312040e-01    0.000000e+00
  1.315030e-01    0.000000e+00
  1.318019e-01    0.000000e+00
  1.321008e-01    0.000000e+00
  1.323998e-01    0.000000e+00
  1.326987e-01    0.000000e+00
  1.329976e-01    0.000000e+00
  1.332965e-01    0.000000e+00
  1.335955e-01    0.000000e+00
  1.338944e-01    0.000000e+00
  1.341933e-01    0.000000e+00
  1.344923e-01    0.000000e+00
  1.347912e-01    0.000000e+00
  1.350901e-01    0.000000e+00
  1.353891e-01    0.000000e+00
  1.356880e-01    0.000000e+00
  1.359869e-01    0.000000e+00
  1.362859e-01    0.000000e+00
  1.365848e-01    0.000000e+00
  1.368837e-01    0.000000e+00
  1.371826e-01    0.000000e+00
  1.374816e-01    0.000000e+00
  1.377805e-01    0.000000e+00
  1.380794e-01    0.000000e+00
  1.383784e-01    0.000000e+00
  1.386773e-01    0.000000e+00
  1.389762e-01    0.000000e+00
  1.392752e-01    0.000000e+00
  1.395741e-01    0.000000e+00
  1.398730e-01    0.000000e+00
  1.401719e-01    0.000000e+00
  1.404709e-01    0.000000e+00
  1.407698e-01    0.000000e+00
  1.410687e-01    0.000000e+00
  1.413677e-01    0.000000e+00
  1.416666e-01    0.000000e+00
  1.419655e-01    0.000000e+00
  1.422645e-01    0.000000e+00
  1.425634e-01    0.000000e+00
  1.428623e-01    0.000000e+00
  1.431613e-01    0.000000e+00
  1.434602e-01    0.000000e+00
  1.437591e-01    0.000000e+00
  1.440580e-01    0.000000e+00
  1.443570e-01    0.000000e+00
  1.446559e-01    0.000000e+00
  1.449548e-01    0.000000e+00
  1.452538e-01    0.000000e+00
  1.455527e-01    0.000000e+00
  1.458516e-01    0.000000e+00
  1.461506e-01    0.000000e+00
  1.464495e-01    0.000000e+00
  1.467484e-01    0.000000e+00
  1.470473e-01    0.000000e+00
  1.473463e-01    0.000000e+00
  1.476452e-01    0.000000e+00
  1.479441e-01    0.000000e+00
  1.482431e-01    0.000000e+00
  1.485420e-01    0.000000e+00
  1.488409e-01    0.000000e+00
  1.491399e-01    0.000000e+00
  1.494388e-01    0.000000e+00
  1.497377e-01    0.000000e+00
  1.500367e-01    0.000000e+00
  1.503356e-01    0.000000e+00
  1.506345e-01    0.000000e+00
  1.509334e-01    0.000000e+00
  1.512324e-01    0.000000e+00
  1.515313e-01    0.000000e+00
  1.518302e-01    0.000000e+00
  1.521292e-01    0.000000e+00
  1.524281e-01    0.000000e+00
  1.527270e-01    0.000000e+00
  1.530260e-01    0.000000e+00
  1.533249e-01    0.000000e+00
  1.536238e-01    0.000000e+00
