# == pyFAI calibration ==
# Distance Sample to Detector: 2.266 m
# PONI: 5.659e-02, 4.293e-02 m
# Rotations: 0.000000 0.000000 0.000000 rad
# 
# == Fit2d calibration ==
# Distance Sample-beamCenter: 2266.000 mm
# Center: x=249.594, y=329.012 pix
# Tilt: 0.000 deg  TiltPlanRot: 0.000 deg
# 
# Detector Pilatus 300k	 PixelSize= 1.720e-04, 1.720e-04 m
#    Detector has a mask: True 
#    Detector has a dark current: False 
#    detector has a flat field: False 
# 
# Wavelength: 1.27818e-10 m
# Mask applied: user provided
# Dark current applied: False
# Flat field applied: False
# Polarization factor: None
# Normalization factor: 10273381.200000001
# --> AL_F127_220301_b425f2ad-de44-4ff9-850b-951a81a4e330_0_r1d.csv
#        q_A^-1             I 
  4.457554e-03    3.774785e-03
  4.756484e-03    2.928853e-03
  5.055415e-03    2.073333e-03
  5.354345e-03    1.449757e-03
  5.653276e-03    1.119872e-03
  5.952206e-03    1.655264e-03
  6.251136e-03    1.464132e-03
  6.550067e-03    1.238539e-03
  6.848997e-03    1.043834e-03
  7.147927e-03    8.862911e-04
  7.446858e-03    7.577512e-04
  7.745788e-03    6.566991e-04
  8.044719e-03    5.681624e-04
  8.343649e-03    4.966816e-04
  8.642579e-03    4.366359e-04
  8.941510e-03    3.875533e-04
  9.240440e-03    3.436473e-04
  9.539371e-03    3.071319e-04
  9.838301e-03    2.752894e-04
  1.013723e-02    2.469872e-04
  1.043616e-02    2.229430e-04
  1.073509e-02    2.022446e-04
  1.103402e-02    1.837639e-04
  1.133295e-02    1.673476e-04
  1.163188e-02    1.530290e-04
  1.193081e-02    1.401008e-04
  1.222974e-02    1.290308e-04
  1.252867e-02    1.187794e-04
  1.282760e-02    1.094910e-04
  1.312654e-02    1.013645e-04
  1.342547e-02    9.419161e-05
  1.372440e-02    8.767335e-05
  1.402333e-02    8.194878e-05
  1.432226e-02    7.642429e-05
  1.462119e-02    7.156518e-05
  1.492012e-02    6.754163e-05
  1.521905e-02    6.351843e-05
  1.551798e-02    5.973897e-05
  1.581691e-02    5.667999e-05
  1.611584e-02    5.400232e-05
  1.641477e-02    5.144990e-05
  1.671370e-02    4.884715e-05
  1.701263e-02    4.674146e-05
  1.731156e-02    4.466451e-05
  1.761049e-02    4.292659e-05
  1.790942e-02    4.149049e-05
  1.820835e-02    4.005881e-05
  1.850728e-02    3.879034e-05
  1.880621e-02    3.765894e-05
  1.910514e-02    3.656505e-05
  1.940407e-02    3.575764e-05
  1.970300e-02    3.503871e-05
  2.000193e-02    3.440126e-05
  2.030086e-02    3.371853e-05
  2.059979e-02    3.308072e-05
  2.089873e-02    3.255339e-05
  2.119766e-02    3.227267e-05
  2.149659e-02    3.206526e-05
  2.179552e-02    3.180486e-05
  2.209445e-02    3.149022e-05
  2.239338e-02    3.140794e-05
  2.269231e-02    3.143918e-05
  2.299124e-02    3.116282e-05
  2.329017e-02    3.101542e-05
  2.358910e-02    3.083362e-05
  2.388803e-02    3.068563e-05
  2.418696e-02    3.054136e-05
  2.448589e-02    3.033532e-05
  2.478482e-02    3.020314e-05
  2.508375e-02    3.002890e-05
  2.538268e-02    2.984124e-05
  2.568161e-02    2.968533e-05
  2.598054e-02    2.935700e-05
  2.627947e-02    2.893155e-05
  2.657840e-02    2.853149e-05
  2.687733e-02    2.810968e-05
  2.717626e-02    2.755984e-05
  2.747519e-02    2.704861e-05
  2.777412e-02    2.663374e-05
  2.807305e-02    2.613881e-05
  2.837198e-02    2.553417e-05
  2.867092e-02    2.507507e-05
  2.896985e-02    2.459607e-05
  2.926878e-02    2.407976e-05
  2.956771e-02    2.378473e-05
  2.986664e-02    2.337170e-05
  3.016557e-02    2.295834e-05
  3.046450e-02    2.261198e-05
  3.076343e-02    2.228665e-05
  3.106236e-02    2.199461e-05
  3.136129e-02    2.173192e-05
  3.166022e-02    2.142950e-05
  3.195915e-02    2.106112e-05
  3.225808e-02    2.073583e-05
  3.255701e-02    2.050981e-05
  3.285594e-02    2.030162e-05
  3.315487e-02    1.999402e-05
  3.345380e-02    1.979986e-05
  3.375273e-02    1.959432e-05
  3.405166e-02    1.938040e-05
  3.435059e-02    1.919567e-05
  3.464952e-02    1.902073e-05
  3.494845e-02    1.882105e-05
  3.524738e-02    1.863860e-05
  3.554631e-02    1.852676e-05
  3.584524e-02    1.836021e-05
  3.614417e-02    1.826138e-05
  3.644310e-02    1.821911e-05
  3.674204e-02    1.802310e-05
  3.704097e-02    1.794396e-05
  3.733990e-02    1.782749e-05
  3.763883e-02    1.773339e-05
  3.793776e-02    1.755607e-05
  3.823669e-02    1.748775e-05
  3.853562e-02    1.747415e-05
  3.883455e-02    1.738025e-05
  3.913348e-02    1.727147e-05
  3.943241e-02    1.718433e-05
  3.973134e-02    1.709701e-05
  4.003027e-02    1.700670e-05
  4.032920e-02    1.696941e-05
  4.062813e-02    1.693177e-05
  4.092706e-02    1.686484e-05
  4.122599e-02    1.680984e-05
  4.152492e-02    1.678906e-05
  4.182385e-02    1.667867e-05
  4.212278e-02    1.661188e-05
  4.242171e-02    1.662391e-05
  4.272064e-02    1.663118e-05
  4.301957e-02    1.656282e-05
  4.331850e-02    1.651824e-05
  4.361743e-02    1.641358e-05
  4.391636e-02    1.631405e-05
  4.421529e-02    1.630159e-05
  4.451423e-02    1.625529e-05
  4.481316e-02    1.618851e-05
  4.511209e-02    1.613400e-05
  4.541102e-02    1.610674e-05
  4.570995e-02    1.603484e-05
  4.600888e-02    1.591922e-05
  4.630781e-02    1.591284e-05
  4.660674e-02    1.582254e-05
  4.690567e-02    1.577977e-05
  4.720460e-02    1.565492e-05
  4.750353e-02    1.557273e-05
  4.780246e-02    1.545871e-05
  4.810139e-02    1.536787e-05
  4.840032e-02    1.528227e-05
  4.869925e-02    1.514190e-05
  4.899818e-02    1.508974e-05
  4.929711e-02    1.498227e-05
  4.959604e-02    1.487489e-05
  4.989497e-02    1.481034e-05
  5.019390e-02    1.469031e-05
  5.049283e-02    1.458871e-05
  5.079176e-02    1.448376e-05
  5.109069e-02    1.442492e-05
  5.138962e-02    1.437822e-05
  5.168855e-02    1.436458e-05
  5.198748e-02    1.432339e-05
  5.228642e-02    1.416170e-05
  5.258535e-02    1.386564e-05
  5.288428e-02    1.363253e-05
  5.318321e-02    1.354057e-05
  5.348214e-02    1.344572e-05
  5.378107e-02    1.333955e-05
  5.408000e-02    1.330100e-05
  5.437893e-02    1.323329e-05
  5.467786e-02    1.307554e-05
  5.497679e-02    1.304114e-05
  5.527572e-02    1.290771e-05
  5.557465e-02    1.283913e-05
  5.587358e-02    1.278810e-05
  5.617251e-02    1.261367e-05
  5.647144e-02    1.253609e-05
  5.677037e-02    1.248302e-05
  5.706930e-02    1.245009e-05
  5.736823e-02    1.242115e-05
  5.766716e-02    1.232937e-05
  5.796609e-02    1.227957e-05
  5.826502e-02    1.220184e-05
  5.856395e-02    1.208315e-05
  5.886288e-02    1.201312e-05
  5.916181e-02    1.196507e-05
  5.946074e-02    1.192324e-05
  5.975967e-02    1.187745e-05
  6.005861e-02    1.186120e-05
  6.035754e-02    1.185685e-05
  6.065647e-02    1.180708e-05
  6.095540e-02    1.182700e-05
  6.125433e-02    1.185637e-05
  6.155326e-02    1.179813e-05
  6.185219e-02    1.172462e-05
  6.215112e-02    1.160467e-05
  6.245005e-02    1.149814e-05
  6.274898e-02    1.148346e-05
  6.304791e-02    1.148017e-05
  6.334684e-02    1.139726e-05
  6.364577e-02    1.135063e-05
  6.394470e-02    1.133563e-05
  6.424363e-02    1.130965e-05
  6.454256e-02    1.131205e-05
  6.484149e-02    1.124969e-05
  6.514042e-02    1.121189e-05
  6.543935e-02    1.116780e-05
  6.573828e-02    1.116114e-05
  6.603721e-02    1.115857e-05
  6.633614e-02    1.109410e-05
  6.663507e-02    1.108508e-05
  6.693400e-02    1.111700e-05
  6.723293e-02    1.110591e-05
  6.753186e-02    1.109798e-05
  6.783080e-02    1.100775e-05
  6.812973e-02    1.096688e-05
  6.842866e-02    1.100106e-05
  6.872759e-02    1.095606e-05
  6.902652e-02    1.100711e-05
  6.932545e-02    1.102687e-05
  6.962438e-02    1.102943e-05
  6.992331e-02    1.102951e-05
  7.022224e-02    1.103213e-05
  7.052117e-02    1.098720e-05
  7.082010e-02    1.097786e-05
  7.111903e-02    1.095696e-05
  7.141796e-02    1.092238e-05
  7.171689e-02    1.098587e-05
  7.201582e-02    1.093300e-05
  7.231475e-02    1.091071e-05
  7.261368e-02    1.089596e-05
  7.291261e-02    1.088000e-05
  7.321154e-02    1.091561e-05
  7.351047e-02    1.092754e-05
  7.380940e-02    1.094016e-05
  7.410833e-02    1.087504e-05
  7.440726e-02    1.086326e-05
  7.470619e-02    1.083230e-05
  7.500512e-02    1.085669e-05
  7.530405e-02    1.084890e-05
  7.560299e-02    1.079741e-05
  7.590192e-02    1.077272e-05
  7.620085e-02    1.078265e-05
  7.649978e-02    1.079077e-05
  7.679871e-02    1.078818e-05
  7.709764e-02    1.082422e-05
  7.739657e-02    1.079458e-05
  7.769550e-02    1.078397e-05
  7.799443e-02    1.075751e-05
  7.829336e-02    1.071972e-05
  7.859229e-02    1.073264e-05
  7.889122e-02    1.073983e-05
  7.919015e-02    1.070160e-05
  7.948908e-02    1.068498e-05
  7.978801e-02    1.069123e-05
  8.008694e-02    1.069551e-05
  8.038587e-02    1.067580e-05
  8.068480e-02    1.063587e-05
  8.098373e-02    1.064013e-05
  8.128266e-02    1.058886e-05
  8.158159e-02    1.060613e-05
  8.188052e-02    1.061969e-05
  8.217945e-02    1.056766e-05
  8.247838e-02    1.054642e-05
  8.277731e-02    1.054431e-05
  8.307624e-02    1.053030e-05
  8.337518e-02    1.052503e-05
  8.367411e-02    1.051459e-05
  8.397304e-02    1.049515e-05
  8.427197e-02    1.050308e-05
  8.457090e-02    1.045793e-05
  8.486983e-02    1.043162e-05
  8.516876e-02    1.041344e-05
  8.546769e-02    1.047563e-05
  8.576662e-02    1.047570e-05
  8.606555e-02    1.044641e-05
  8.636448e-02    1.043447e-05
  8.666341e-02    1.040806e-05
  8.696234e-02    1.038510e-05
  8.726127e-02    1.035539e-05
  8.756020e-02    1.032060e-05
  8.785913e-02    1.033487e-05
  8.815806e-02    1.030365e-05
  8.845699e-02    1.026253e-05
  8.875592e-02    1.024331e-05
  8.905485e-02    1.025601e-05
  8.935378e-02    1.021946e-05
  8.965271e-02    1.022241e-05
  8.995164e-02    1.018632e-05
  9.025057e-02    1.016828e-05
  9.054950e-02    1.016713e-05
  9.084843e-02    1.010319e-05
  9.114737e-02    1.004689e-05
  9.144630e-02    1.005567e-05
  9.174523e-02    1.006277e-05
  9.204416e-02    1.004860e-05
  9.234309e-02    1.002717e-05
  9.264202e-02    1.001220e-05
  9.294095e-02    9.990057e-06
  9.323988e-02    9.976117e-06
  9.353881e-02    9.956834e-06
  9.383774e-02    9.913867e-06
  9.413667e-02    9.898636e-06
  9.443560e-02    9.918734e-06
  9.473453e-02    9.916991e-06
  9.503346e-02    9.879646e-06
  9.533239e-02    9.845021e-06
  9.563132e-02    9.856019e-06
  9.593025e-02    9.878754e-06
  9.622918e-02    9.878405e-06
  9.652811e-02    9.869179e-06
  9.682704e-02    9.894814e-06
  9.712597e-02    9.878912e-06
  9.742490e-02    9.827076e-06
  9.772383e-02    9.809358e-06
  9.802276e-02    9.743759e-06
  9.832169e-02    9.691405e-06
  9.862062e-02    9.691820e-06
  9.891956e-02    9.679376e-06
  9.921849e-02    9.653108e-06
  9.951742e-02    9.631926e-06
  9.981635e-02    9.591870e-06
  1.001153e-01    9.614156e-06
  1.004142e-01    9.602914e-06
  1.007131e-01    9.590938e-06
  1.010121e-01    9.586106e-06
  1.013110e-01    9.588671e-06
  1.016099e-01    9.552371e-06
  1.019089e-01    9.517385e-06
  1.022078e-01    9.499930e-06
  1.025067e-01    9.455993e-06
  1.028057e-01    9.412442e-06
  1.031046e-01    9.382988e-06
  1.034035e-01    9.395057e-06
  1.037024e-01    9.378254e-06
  1.040014e-01    9.370980e-06
  1.043003e-01    9.379599e-06
  1.045992e-01    9.382559e-06
  1.048982e-01    9.366569e-06
  1.051971e-01    9.316266e-06
  1.054960e-01    9.279841e-06
  1.057950e-01    9.285152e-06
  1.060939e-01    9.280485e-06
  1.063928e-01    9.288970e-06
  1.066917e-01    9.290199e-06
  1.069907e-01    9.283158e-06
  1.072896e-01    9.264526e-06
  1.075885e-01    9.266329e-06
  1.078875e-01    9.261498e-06
  1.081864e-01    9.230280e-06
  1.084853e-01    9.220889e-06
  1.087843e-01    9.207304e-06
  1.090832e-01    9.177683e-06
  1.093821e-01    9.186909e-06
  1.096810e-01    9.137364e-06
  1.099800e-01    9.109624e-06
  1.102789e-01    9.105062e-06
  1.105778e-01    9.108343e-06
  1.108768e-01    9.073484e-06
  1.111757e-01    9.027890e-06
  1.114746e-01    8.994772e-06
  1.117736e-01    8.967623e-06
  1.120725e-01    9.002791e-06
  1.123714e-01    9.035293e-06
  1.126704e-01    8.992584e-06
  1.129693e-01    8.972652e-06
  1.132682e-01    8.950761e-06
  1.135671e-01    8.855290e-06
  1.138661e-01    8.837186e-06
  1.141650e-01    8.824677e-06
  1.144639e-01    8.778908e-06
  1.147629e-01    8.755420e-06
  1.150618e-01    8.727058e-06
  1.153607e-01    8.683854e-06
  1.156597e-01    8.675296e-06
  1.159586e-01    8.603573e-06
  1.162575e-01    8.551964e-06
  1.165564e-01    8.591278e-06
  1.168554e-01    8.645029e-06
  1.171543e-01    8.785878e-06
  1.174532e-01    8.773802e-06
  1.177522e-01    8.765785e-06
  1.180511e-01    8.880505e-06
  1.183500e-01    8.829245e-06
  1.186490e-01    8.773259e-06
  1.189479e-01    8.796635e-06
  1.192468e-01    8.819090e-06
  1.195458e-01    8.750033e-06
  1.198447e-01    8.550541e-06
  1.201436e-01    8.482711e-06
  1.204425e-01    8.382791e-06
  1.207415e-01    7.998430e-06
  1.210404e-01    8.378732e-06
  1.213393e-01    0.000000e+00
  1.216383e-01    0.000000e+00
  1.219372e-01    0.000000e+00
  1.222361e-01    0.000000e+00
  1.225351e-01    0.000000e+00
  1.228340e-01    0.000000e+00
  1.231329e-01    0.000000e+00
  1.234318e-01    0.000000e+00
  1.237308e-01    0.000000e+00
  1.240297e-01    0.000000e+00
  1.243286e-01    0.000000e+00
  1.246276e-01    0.000000e+00
  1.249265e-01    0.000000e+00
  1.252254e-01    0.000000e+00
  1.255244e-01    0.000000e+00
  1.258233e-01    0.000000e+00
  1.261222e-01    0.000000e+00
  1.264212e-01    0.000000e+00
  1.267201e-01    0.000000e+00
  1.270190e-01    0.000000e+00
  1.273179e-01    0.000000e+00
  1.276169e-01    0.000000e+00
  1.279158e-01    0.000000e+00
  1.282147e-01    0.000000e+00
  1.285137e-01    0.000000e+00
  1.288126e-01    0.000000e+00
  1.291115e-01    0.000000e+00
  1.294105e-01    0.000000e+00
  1.297094e-01    0.000000e+00
  1.300083e-01    0.000000e+00
  1.303072e-01    0.000000e+00
  1.306062e-01    0.000000e+00
  1.309051e-01    0.000000e+00
  1.312040e-01    0.000000e+00
  1.315030e-01    0.000000e+00
  1.318019e-01    0.000000e+00
  1.321008e-01    0.000000e+00
  1.323998e-01    0.000000e+00
  1.326987e-01    0.000000e+00
  1.329976e-01    0.000000e+00
  1.332965e-01    0.000000e+00
  1.335955e-01    0.000000e+00
  1.338944e-01    0.000000e+00
  1.341933e-01    0.000000e+00
  1.344923e-01    0.000000e+00
  1.347912e-01    0.000000e+00
  1.350901e-01    0.000000e+00
  1.353891e-01    0.000000e+00
  1.356880e-01    0.000000e+00
  1.359869e-01    0.000000e+00
  1.362859e-01    0.000000e+00
  1.365848e-01    0.000000e+00
  1.368837e-01    0.000000e+00
  1.371826e-01    0.000000e+00
  1.374816e-01    0.000000e+00
  1.377805e-01    0.000000e+00
  1.380794e-01    0.000000e+00
  1.383784e-01    0.000000e+00
  1.386773e-01    0.000000e+00
  1.389762e-01    0.000000e+00
  1.392752e-01    0.000000e+00
  1.395741e-01    0.000000e+00
  1.398730e-01    0.000000e+00
  1.401719e-01    0.000000e+00
  1.404709e-01    0.000000e+00
  1.407698e-01    0.000000e+00
  1.410687e-01    0.000000e+00
  1.413677e-01    0.000000e+00
  1.416666e-01    0.000000e+00
  1.419655e-01    0.000000e+00
  1.422645e-01    0.000000e+00
  1.425634e-01    0.000000e+00
  1.428623e-01    0.000000e+00
  1.431613e-01    0.000000e+00
  1.434602e-01    0.000000e+00
  1.437591e-01    0.000000e+00
  1.440580e-01    0.000000e+00
  1.443570e-01    0.000000e+00
  1.446559e-01    0.000000e+00
  1.449548e-01    0.000000e+00
  1.452538e-01    0.000000e+00
  1.455527e-01    0.000000e+00
  1.458516e-01    0.000000e+00
  1.461506e-01    0.000000e+00
  1.464495e-01    0.000000e+00
  1.467484e-01    0.000000e+00
  1.470473e-01    0.000000e+00
  1.473463e-01    0.000000e+00
  1.476452e-01    0.000000e+00
  1.479441e-01    0.000000e+00
  1.482431e-01    0.000000e+00
  1.485420e-01    0.000000e+00
  1.488409e-01    0.000000e+00
  1.491399e-01    0.000000e+00
  1.494388e-01    0.000000e+00
  1.497377e-01    0.000000e+00
  1.500367e-01    0.000000e+00
  1.503356e-01    0.000000e+00
  1.506345e-01    0.000000e+00
  1.509334e-01    0.000000e+00
  1.512324e-01    0.000000e+00
  1.515313e-01    0.000000e+00
  1.518302e-01    0.000000e+00
  1.521292e-01    0.000000e+00
  1.524281e-01    0.000000e+00
  1.527270e-01    0.000000e+00
  1.530260e-01    0.000000e+00
  1.533249e-01    0.000000e+00
  1.536238e-01    0.000000e+00
