# == pyFAI calibration ==
# Distance Sample to Detector: 2.266 m
# PONI: 5.659e-02, 4.293e-02 m
# Rotations: 0.000000 0.000000 0.000000 rad
# 
# == Fit2d calibration ==
# Distance Sample-beamCenter: 2266.000 mm
# Center: x=249.594, y=329.012 pix
# Tilt: 0.000 deg  TiltPlanRot: 0.000 deg
# 
# Detector Pilatus 300k	 PixelSize= 1.720e-04, 1.720e-04 m
#    Detector has a mask: True 
#    Detector has a dark current: False 
#    detector has a flat field: False 
# 
# Wavelength: 1.27818e-10 m
# Mask applied: user provided
# Dark current applied: False
# Flat field applied: False
# Polarization factor: None
# Normalization factor: 6878861.800000001
# --> AL_F127_220226_47c1da36-2278-4d98-b4fb-f372322d695f_0_r1d.csv
#        q_A^-1             I 
  4.457554e-03    6.979659e-04
  4.756484e-03    5.454831e-04
  5.055415e-03    3.943609e-04
  5.354345e-03    2.858556e-04
  5.653276e-03    2.231241e-04
  5.952206e-03    2.866817e-04
  6.251136e-03    2.590258e-04
  6.550067e-03    2.265280e-04
  6.848997e-03    1.960990e-04
  7.147927e-03    1.672725e-04
  7.446858e-03    1.434098e-04
  7.745788e-03    1.242162e-04
  8.044719e-03    1.079998e-04
  8.343649e-03    9.444726e-05
  8.642579e-03    8.297219e-05
  8.941510e-03    7.355551e-05
  9.240440e-03    6.548669e-05
  9.539371e-03    5.815358e-05
  9.838301e-03    5.206813e-05
  1.013723e-02    4.688372e-05
  1.043616e-02    4.235243e-05
  1.073509e-02    3.854397e-05
  1.103402e-02    3.521519e-05
  1.133295e-02    3.212618e-05
  1.163188e-02    2.935146e-05
  1.193081e-02    2.669209e-05
  1.222974e-02    2.436154e-05
  1.252867e-02    2.262822e-05
  1.282760e-02    2.118220e-05
  1.312654e-02    1.962257e-05
  1.342547e-02    1.813244e-05
  1.372440e-02    1.699032e-05
  1.402333e-02    1.591591e-05
  1.432226e-02    1.488844e-05
  1.462119e-02    1.411020e-05
  1.492012e-02    1.346092e-05
  1.521905e-02    1.288867e-05
  1.551798e-02    1.225982e-05
  1.581691e-02    1.172988e-05
  1.611584e-02    1.132476e-05
  1.641477e-02    1.087850e-05
  1.671370e-02    1.044211e-05
  1.701263e-02    1.009178e-05
  1.731156e-02    9.914548e-06
  1.761049e-02    9.734889e-06
  1.790942e-02    9.540960e-06
  1.820835e-02    9.424800e-06
  1.850728e-02    9.262647e-06
  1.880621e-02    9.092795e-06
  1.910514e-02    9.130079e-06
  1.940407e-02    9.101666e-06
  1.970300e-02    9.061208e-06
  2.000193e-02    9.132575e-06
  2.030086e-02    9.156371e-06
  2.059979e-02    9.153609e-06
  2.089873e-02    9.193708e-06
  2.119766e-02    9.277091e-06
  2.149659e-02    9.360070e-06
  2.179552e-02    9.437435e-06
  2.209445e-02    9.549457e-06
  2.239338e-02    9.587749e-06
  2.269231e-02    9.554901e-06
  2.299124e-02    9.605629e-06
  2.329017e-02    9.596350e-06
  2.358910e-02    9.560204e-06
  2.388803e-02    9.601394e-06
  2.418696e-02    9.702317e-06
  2.448589e-02    9.712495e-06
  2.478482e-02    9.667213e-06
  2.508375e-02    9.544825e-06
  2.538268e-02    9.456555e-06
  2.568161e-02    9.357253e-06
  2.598054e-02    9.212677e-06
  2.627947e-02    8.984349e-06
  2.657840e-02    8.809339e-06
  2.687733e-02    8.662825e-06
  2.717626e-02    8.397219e-06
  2.747519e-02    8.162348e-06
  2.777412e-02    8.024191e-06
  2.807305e-02    7.796456e-06
  2.837198e-02    7.596316e-06
  2.867092e-02    7.365978e-06
  2.896985e-02    7.104286e-06
  2.926878e-02    6.944946e-06
  2.956771e-02    6.702772e-06
  2.986664e-02    6.509971e-06
  3.016557e-02    6.310003e-06
  3.046450e-02    6.070002e-06
  3.076343e-02    5.892928e-06
  3.106236e-02    5.701448e-06
  3.136129e-02    5.446106e-06
  3.166022e-02    5.293222e-06
  3.195915e-02    5.164717e-06
  3.225808e-02    5.042598e-06
  3.255701e-02    4.879306e-06
  3.285594e-02    4.714662e-06
  3.315487e-02    4.592027e-06
  3.345380e-02    4.491752e-06
  3.375273e-02    4.373504e-06
  3.405166e-02    4.296736e-06
  3.435059e-02    4.182079e-06
  3.464952e-02    4.049637e-06
  3.494845e-02    3.888083e-06
  3.524738e-02    3.819077e-06
  3.554631e-02    3.744843e-06
  3.584524e-02    3.632221e-06
  3.614417e-02    3.543534e-06
  3.644310e-02    3.468399e-06
  3.674204e-02    3.392454e-06
  3.704097e-02    3.360210e-06
  3.733990e-02    3.302665e-06
  3.763883e-02    3.246781e-06
  3.793776e-02    3.142299e-06
  3.823669e-02    3.097221e-06
  3.853562e-02    3.040901e-06
  3.883455e-02    2.965240e-06
  3.913348e-02    2.944983e-06
  3.943241e-02    2.915063e-06
  3.973134e-02    2.882637e-06
  4.003027e-02    2.844293e-06
  4.032920e-02    2.770363e-06
  4.062813e-02    2.710970e-06
  4.092706e-02    2.708876e-06
  4.122599e-02    2.670847e-06
  4.152492e-02    2.656526e-06
  4.182385e-02    2.610517e-06
  4.212278e-02    2.562535e-06
  4.242171e-02    2.529544e-06
  4.272064e-02    2.510330e-06
  4.301957e-02    2.484671e-06
  4.331850e-02    2.467156e-06
  4.361743e-02    2.430585e-06
  4.391636e-02    2.361943e-06
  4.421529e-02    2.336345e-06
  4.451423e-02    2.331179e-06
  4.481316e-02    2.317406e-06
  4.511209e-02    2.282992e-06
  4.541102e-02    2.276727e-06
  4.570995e-02    2.292814e-06
  4.600888e-02    2.283399e-06
  4.630781e-02    2.259060e-06
  4.660674e-02    2.219129e-06
  4.690567e-02    2.170388e-06
  4.720460e-02    2.169328e-06
  4.750353e-02    2.157684e-06
  4.780246e-02    2.121047e-06
  4.810139e-02    2.100607e-06
  4.840032e-02    2.057895e-06
  4.869925e-02    2.041541e-06
  4.899818e-02    2.040256e-06
  4.929711e-02    2.035993e-06
  4.959604e-02    2.005481e-06
  4.989497e-02    1.971707e-06
  5.019390e-02    1.935174e-06
  5.049283e-02    1.944178e-06
  5.079176e-02    1.932702e-06
  5.109069e-02    1.903629e-06
  5.138962e-02    1.902915e-06
  5.168855e-02    1.948261e-06
  5.198748e-02    1.951896e-06
  5.228642e-02    1.927802e-06
  5.258535e-02    1.852477e-06
  5.288428e-02    1.808087e-06
  5.318321e-02    1.815140e-06
  5.348214e-02    1.757836e-06
  5.378107e-02    1.754015e-06
  5.408000e-02    1.743264e-06
  5.437893e-02    1.715508e-06
  5.467786e-02    1.687206e-06
  5.497679e-02    1.682901e-06
  5.527572e-02    1.668085e-06
  5.557465e-02    1.640976e-06
  5.587358e-02    1.627622e-06
  5.617251e-02    1.619066e-06
  5.647144e-02    1.598477e-06
  5.677037e-02    1.580392e-06
  5.706930e-02    1.584118e-06
  5.736823e-02    1.565600e-06
  5.766716e-02    1.549878e-06
  5.796609e-02    1.548624e-06
  5.826502e-02    1.537152e-06
  5.856395e-02    1.528227e-06
  5.886288e-02    1.526875e-06
  5.916181e-02    1.492719e-06
  5.946074e-02    1.507887e-06
  5.975967e-02    1.526599e-06
  6.005861e-02    1.519909e-06
  6.035754e-02    1.520945e-06
  6.065647e-02    1.506747e-06
  6.095540e-02    1.492688e-06
  6.125433e-02    1.521847e-06
  6.155326e-02    1.532564e-06
  6.185219e-02    1.470524e-06
  6.215112e-02    1.455763e-06
  6.245005e-02    1.458730e-06
  6.274898e-02    1.436154e-06
  6.304791e-02    1.448827e-06
  6.334684e-02    1.445636e-06
  6.364577e-02    1.428907e-06
  6.394470e-02    1.414864e-06
  6.424363e-02    1.398616e-06
  6.454256e-02    1.401853e-06
  6.484149e-02    1.406579e-06
  6.514042e-02    1.407195e-06
  6.543935e-02    1.388804e-06
  6.573828e-02    1.399363e-06
  6.603721e-02    1.406946e-06
  6.633614e-02    1.393261e-06
  6.663507e-02    1.402238e-06
  6.693400e-02    1.396256e-06
  6.723293e-02    1.388603e-06
  6.753186e-02    1.381844e-06
  6.783080e-02    1.378362e-06
  6.812973e-02    1.378211e-06
  6.842866e-02    1.378171e-06
  6.872759e-02    1.370848e-06
  6.902652e-02    1.378619e-06
  6.932545e-02    1.364474e-06
  6.962438e-02    1.348506e-06
  6.992331e-02    1.383811e-06
  7.022224e-02    1.375231e-06
  7.052117e-02    1.369479e-06
  7.082010e-02    1.366741e-06
  7.111903e-02    1.364409e-06
  7.141796e-02    1.378048e-06
  7.171689e-02    1.358498e-06
  7.201582e-02    1.356581e-06
  7.231475e-02    1.382376e-06
  7.261368e-02    1.376605e-06
  7.291261e-02    1.374341e-06
  7.321154e-02    1.375287e-06
  7.351047e-02    1.378494e-06
  7.380940e-02    1.371560e-06
  7.410833e-02    1.359049e-06
  7.440726e-02    1.364532e-06
  7.470619e-02    1.337513e-06
  7.500512e-02    1.330687e-06
  7.530405e-02    1.356636e-06
  7.560299e-02    1.362019e-06
  7.590192e-02    1.366346e-06
  7.620085e-02    1.363796e-06
  7.649978e-02    1.344928e-06
  7.679871e-02    1.332716e-06
  7.709764e-02    1.348494e-06
  7.739657e-02    1.358486e-06
  7.769550e-02    1.348240e-06
  7.799443e-02    1.346513e-06
  7.829336e-02    1.341159e-06
  7.859229e-02    1.347139e-06
  7.889122e-02    1.355450e-06
  7.919015e-02    1.352671e-06
  7.948908e-02    1.339813e-06
  7.978801e-02    1.320667e-06
  8.008694e-02    1.328070e-06
  8.038587e-02    1.335121e-06
  8.068480e-02    1.334059e-06
  8.098373e-02    1.332072e-06
  8.128266e-02    1.328054e-06
  8.158159e-02    1.341931e-06
  8.188052e-02    1.334537e-06
  8.217945e-02    1.316536e-06
  8.247838e-02    1.309610e-06
  8.277731e-02    1.306467e-06
  8.307624e-02    1.303340e-06
  8.337518e-02    1.312197e-06
  8.367411e-02    1.317466e-06
  8.397304e-02    1.306970e-06
  8.427197e-02    1.300207e-06
  8.457090e-02    1.294031e-06
  8.486983e-02    1.322009e-06
  8.516876e-02    1.322936e-06
  8.546769e-02    1.304475e-06
  8.576662e-02    1.297100e-06
  8.606555e-02    1.301389e-06
  8.636448e-02    1.298342e-06
  8.666341e-02    1.281352e-06
  8.696234e-02    1.270854e-06
  8.726127e-02    1.284918e-06
  8.756020e-02    1.279423e-06
  8.785913e-02    1.279623e-06
  8.815806e-02    1.285084e-06
  8.845699e-02    1.273706e-06
  8.875592e-02    1.265710e-06
  8.905485e-02    1.254800e-06
  8.935378e-02    1.262598e-06
  8.965271e-02    1.258085e-06
  8.995164e-02    1.251372e-06
  9.025057e-02    1.250546e-06
  9.054950e-02    1.260633e-06
  9.084843e-02    1.247109e-06
  9.114737e-02    1.239731e-06
  9.144630e-02    1.236417e-06
  9.174523e-02    1.226152e-06
  9.204416e-02    1.229986e-06
  9.234309e-02    1.218027e-06
  9.264202e-02    1.215196e-06
  9.294095e-02    1.213076e-06
  9.323988e-02    1.200477e-06
  9.353881e-02    1.212661e-06
  9.383774e-02    1.232089e-06
  9.413667e-02    1.225123e-06
  9.443560e-02    1.212255e-06
  9.473453e-02    1.198091e-06
  9.503346e-02    1.209397e-06
  9.533239e-02    1.210568e-06
  9.563132e-02    1.214357e-06
  9.593025e-02    1.209451e-06
  9.622918e-02    1.213618e-06
  9.652811e-02    1.224706e-06
  9.682704e-02    1.230517e-06
  9.712597e-02    1.234943e-06
  9.742490e-02    1.221791e-06
  9.772383e-02    1.204208e-06
  9.802276e-02    1.201488e-06
  9.832169e-02    1.193407e-06
  9.862062e-02    1.188244e-06
  9.891956e-02    1.185653e-06
  9.921849e-02    1.190357e-06
  9.951742e-02    1.180252e-06
  9.981635e-02    1.182874e-06
  1.001153e-01    1.179347e-06
  1.004142e-01    1.161501e-06
  1.007131e-01    1.169245e-06
  1.010121e-01    1.177472e-06
  1.013110e-01    1.162564e-06
  1.016099e-01    1.158228e-06
  1.019089e-01    1.161181e-06
  1.022078e-01    1.153963e-06
  1.025067e-01    1.145107e-06
  1.028057e-01    1.150465e-06
  1.031046e-01    1.148677e-06
  1.034035e-01    1.134580e-06
  1.037024e-01    1.134646e-06
  1.040014e-01    1.141195e-06
  1.043003e-01    1.138979e-06
  1.045992e-01    1.139319e-06
  1.048982e-01    1.125531e-06
  1.051971e-01    1.101612e-06
  1.054960e-01    1.114969e-06
  1.057950e-01    1.141571e-06
  1.060939e-01    1.134656e-06
  1.063928e-01    1.129171e-06
  1.066917e-01    1.137148e-06
  1.069907e-01    1.131912e-06
  1.072896e-01    1.128429e-06
  1.075885e-01    1.124011e-06
  1.078875e-01    1.114577e-06
  1.081864e-01    1.119390e-06
  1.084853e-01    1.107583e-06
  1.087843e-01    1.106169e-06
  1.090832e-01    1.117080e-06
  1.093821e-01    1.121932e-06
  1.096810e-01    1.110612e-06
  1.099800e-01    1.106010e-06
  1.102789e-01    1.118116e-06
  1.105778e-01    1.120610e-06
  1.108768e-01    1.107259e-06
  1.111757e-01    1.096813e-06
  1.114746e-01    1.094371e-06
  1.117736e-01    1.087853e-06
  1.120725e-01    1.092702e-06
  1.123714e-01    1.098371e-06
  1.126704e-01    1.110027e-06
  1.129693e-01    1.105673e-06
  1.132682e-01    1.080875e-06
  1.135671e-01    1.064938e-06
  1.138661e-01    1.076024e-06
  1.141650e-01    1.051161e-06
  1.144639e-01    1.038582e-06
  1.147629e-01    1.050665e-06
  1.150618e-01    1.043427e-06
  1.153607e-01    1.029945e-06
  1.156597e-01    1.030194e-06
  1.159586e-01    1.025540e-06
  1.162575e-01    1.037388e-06
  1.165564e-01    1.047099e-06
  1.168554e-01    1.062302e-06
  1.171543e-01    1.091342e-06
  1.174532e-01    1.109857e-06
  1.177522e-01    1.108953e-06
  1.180511e-01    1.086282e-06
  1.183500e-01    1.086635e-06
  1.186490e-01    1.118124e-06
  1.189479e-01    1.094874e-06
  1.192468e-01    1.082958e-06
  1.195458e-01    1.111358e-06
  1.198447e-01    1.054656e-06
  1.201436e-01    1.072210e-06
  1.204425e-01    1.071047e-06
  1.207415e-01    1.133458e-06
  1.210404e-01    1.018532e-06
  1.213393e-01    0.000000e+00
  1.216383e-01    0.000000e+00
  1.219372e-01    0.000000e+00
  1.222361e-01    0.000000e+00
  1.225351e-01    0.000000e+00
  1.228340e-01    0.000000e+00
  1.231329e-01    0.000000e+00
  1.234318e-01    0.000000e+00
  1.237308e-01    0.000000e+00
  1.240297e-01    0.000000e+00
  1.243286e-01    0.000000e+00
  1.246276e-01    0.000000e+00
  1.249265e-01    0.000000e+00
  1.252254e-01    0.000000e+00
  1.255244e-01    0.000000e+00
  1.258233e-01    0.000000e+00
  1.261222e-01    0.000000e+00
  1.264212e-01    0.000000e+00
  1.267201e-01    0.000000e+00
  1.270190e-01    0.000000e+00
  1.273179e-01    0.000000e+00
  1.276169e-01    0.000000e+00
  1.279158e-01    0.000000e+00
  1.282147e-01    0.000000e+00
  1.285137e-01    0.000000e+00
  1.288126e-01    0.000000e+00
  1.291115e-01    0.000000e+00
  1.294105e-01    0.000000e+00
  1.297094e-01    0.000000e+00
  1.300083e-01    0.000000e+00
  1.303072e-01    0.000000e+00
  1.306062e-01    0.000000e+00
  1.309051e-01    0.000000e+00
  1.312040e-01    0.000000e+00
  1.315030e-01    0.000000e+00
  1.318019e-01    0.000000e+00
  1.321008e-01    0.000000e+00
  1.323998e-01    0.000000e+00
  1.326987e-01    0.000000e+00
  1.329976e-01    0.000000e+00
  1.332965e-01    0.000000e+00
  1.335955e-01    0.000000e+00
  1.338944e-01    0.000000e+00
  1.341933e-01    0.000000e+00
  1.344923e-01    0.000000e+00
  1.347912e-01    0.000000e+00
  1.350901e-01    0.000000e+00
  1.353891e-01    0.000000e+00
  1.356880e-01    0.000000e+00
  1.359869e-01    0.000000e+00
  1.362859e-01    0.000000e+00
  1.365848e-01    0.000000e+00
  1.368837e-01    0.000000e+00
  1.371826e-01    0.000000e+00
  1.374816e-01    0.000000e+00
  1.377805e-01    0.000000e+00
  1.380794e-01    0.000000e+00
  1.383784e-01    0.000000e+00
  1.386773e-01    0.000000e+00
  1.389762e-01    0.000000e+00
  1.392752e-01    0.000000e+00
  1.395741e-01    0.000000e+00
  1.398730e-01    0.000000e+00
  1.401719e-01    0.000000e+00
  1.404709e-01    0.000000e+00
  1.407698e-01    0.000000e+00
  1.410687e-01    0.000000e+00
  1.413677e-01    0.000000e+00
  1.416666e-01    0.000000e+00
  1.419655e-01    0.000000e+00
  1.422645e-01    0.000000e+00
  1.425634e-01    0.000000e+00
  1.428623e-01    0.000000e+00
  1.431613e-01    0.000000e+00
  1.434602e-01    0.000000e+00
  1.437591e-01    0.000000e+00
  1.440580e-01    0.000000e+00
  1.443570e-01    0.000000e+00
  1.446559e-01    0.000000e+00
  1.449548e-01    0.000000e+00
  1.452538e-01    0.000000e+00
  1.455527e-01    0.000000e+00
  1.458516e-01    0.000000e+00
  1.461506e-01    0.000000e+00
  1.464495e-01    0.000000e+00
  1.467484e-01    0.000000e+00
  1.470473e-01    0.000000e+00
  1.473463e-01    0.000000e+00
  1.476452e-01    0.000000e+00
  1.479441e-01    0.000000e+00
  1.482431e-01    0.000000e+00
  1.485420e-01    0.000000e+00
  1.488409e-01    0.000000e+00
  1.491399e-01    0.000000e+00
  1.494388e-01    0.000000e+00
  1.497377e-01    0.000000e+00
  1.500367e-01    0.000000e+00
  1.503356e-01    0.000000e+00
  1.506345e-01    0.000000e+00
  1.509334e-01    0.000000e+00
  1.512324e-01    0.000000e+00
  1.515313e-01    0.000000e+00
  1.518302e-01    0.000000e+00
  1.521292e-01    0.000000e+00
  1.524281e-01    0.000000e+00
  1.527270e-01    0.000000e+00
  1.530260e-01    0.000000e+00
  1.533249e-01    0.000000e+00
  1.536238e-01    0.000000e+00
