# == pyFAI calibration ==
# Distance Sample to Detector: 2.266 m
# PONI: 5.659e-02, 4.293e-02 m
# Rotations: 0.000000 0.000000 0.000000 rad
# 
# == Fit2d calibration ==
# Distance Sample-beamCenter: 2266.000 mm
# Center: x=249.594, y=329.012 pix
# Tilt: 0.000 deg  TiltPlanRot: 0.000 deg
# 
# Detector Pilatus 300k	 PixelSize= 1.720e-04, 1.720e-04 m
#    Detector has a mask: True 
#    Detector has a dark current: False 
#    detector has a flat field: False 
# 
# Wavelength: 1.27818e-10 m
# Mask applied: user provided
# Dark current applied: False
# Flat field applied: False
# Polarization factor: None
# Normalization factor: 8000124.599999999
# --> AL_F127_220226_b58c268f-669c-400a-ab68-2f1aa91c9389_0_r1d.csv
#        q_A^-1             I 
  4.457554e-03    3.263497e-04
  4.756484e-03    2.577413e-04
  5.055415e-03    1.857660e-04
  5.354345e-03    1.334778e-04
  5.653276e-03    1.039933e-04
  5.952206e-03    1.553868e-04
  6.251136e-03    1.409735e-04
  6.550067e-03    1.222693e-04
  6.848997e-03    1.048623e-04
  7.147927e-03    8.959940e-05
  7.446858e-03    7.666473e-05
  7.745788e-03    6.600787e-05
  8.044719e-03    5.747927e-05
  8.343649e-03    5.055827e-05
  8.642579e-03    4.400666e-05
  8.941510e-03    3.868423e-05
  9.240440e-03    3.450125e-05
  9.539371e-03    3.085956e-05
  9.838301e-03    2.756197e-05
  1.013723e-02    2.477886e-05
  1.043616e-02    2.227566e-05
  1.073509e-02    1.997690e-05
  1.103402e-02    1.799390e-05
  1.133295e-02    1.623870e-05
  1.163188e-02    1.481486e-05
  1.193081e-02    1.345209e-05
  1.222974e-02    1.221946e-05
  1.252867e-02    1.112060e-05
  1.282760e-02    1.027734e-05
  1.312654e-02    9.530825e-06
  1.342547e-02    8.585344e-06
  1.372440e-02    7.918068e-06
  1.402333e-02    7.454239e-06
  1.432226e-02    6.839156e-06
  1.462119e-02    6.292342e-06
  1.492012e-02    5.918962e-06
  1.521905e-02    5.503999e-06
  1.551798e-02    5.117062e-06
  1.581691e-02    4.799256e-06
  1.611584e-02    4.557070e-06
  1.641477e-02    4.262248e-06
  1.671370e-02    4.013536e-06
  1.701263e-02    3.828908e-06
  1.731156e-02    3.653971e-06
  1.761049e-02    3.421542e-06
  1.790942e-02    3.259881e-06
  1.820835e-02    3.129833e-06
  1.850728e-02    2.983007e-06
  1.880621e-02    2.891574e-06
  1.910514e-02    2.803066e-06
  1.940407e-02    2.718174e-06
  1.970300e-02    2.612901e-06
  2.000193e-02    2.516538e-06
  2.030086e-02    2.449467e-06
  2.059979e-02    2.403558e-06
  2.089873e-02    2.351284e-06
  2.119766e-02    2.282809e-06
  2.149659e-02    2.216450e-06
  2.179552e-02    2.164335e-06
  2.209445e-02    2.161434e-06
  2.239338e-02    2.126036e-06
  2.269231e-02    2.072604e-06
  2.299124e-02    2.049668e-06
  2.329017e-02    2.034170e-06
  2.358910e-02    1.996565e-06
  2.388803e-02    1.958970e-06
  2.418696e-02    1.951047e-06
  2.448589e-02    1.936358e-06
  2.478482e-02    1.871642e-06
  2.508375e-02    1.842729e-06
  2.538268e-02    1.851851e-06
  2.568161e-02    1.838712e-06
  2.598054e-02    1.796478e-06
  2.627947e-02    1.789915e-06
  2.657840e-02    1.747787e-06
  2.687733e-02    1.699974e-06
  2.717626e-02    1.664350e-06
  2.747519e-02    1.625207e-06
  2.777412e-02    1.567279e-06
  2.807305e-02    1.559549e-06
  2.837198e-02    1.526744e-06
  2.867092e-02    1.472653e-06
  2.896985e-02    1.485781e-06
  2.926878e-02    1.448445e-06
  2.956771e-02    1.420852e-06
  2.986664e-02    1.386086e-06
  3.016557e-02    1.359356e-06
  3.046450e-02    1.327006e-06
  3.076343e-02    1.298537e-06
  3.106236e-02    1.280134e-06
  3.136129e-02    1.258519e-06
  3.166022e-02    1.243107e-06
  3.195915e-02    1.224585e-06
  3.225808e-02    1.179031e-06
  3.255701e-02    1.175087e-06
  3.285594e-02    1.181223e-06
  3.315487e-02    1.165188e-06
  3.345380e-02    1.150862e-06
  3.375273e-02    1.136708e-06
  3.405166e-02    1.126400e-06
  3.435059e-02    1.113602e-06
  3.464952e-02    1.082093e-06
  3.494845e-02    1.052951e-06
  3.524738e-02    1.036332e-06
  3.554631e-02    1.053804e-06
  3.584524e-02    1.028283e-06
  3.614417e-02    1.017846e-06
  3.644310e-02    1.015929e-06
  3.674204e-02    1.001021e-06
  3.704097e-02    1.000216e-06
  3.733990e-02    9.967584e-07
  3.763883e-02    9.657756e-07
  3.793776e-02    9.655743e-07
  3.823669e-02    9.574234e-07
  3.853562e-02    9.341447e-07
  3.883455e-02    9.360183e-07
  3.913348e-02    9.267458e-07
  3.943241e-02    9.120511e-07
  3.973134e-02    9.237545e-07
  4.003027e-02    9.138121e-07
  4.032920e-02    8.886161e-07
  4.062813e-02    8.906204e-07
  4.092706e-02    8.868805e-07
  4.122599e-02    8.821217e-07
  4.152492e-02    8.698169e-07
  4.182385e-02    8.854481e-07
  4.212278e-02    8.727391e-07
  4.242171e-02    8.803726e-07
  4.272064e-02    8.835514e-07
  4.301957e-02    8.772814e-07
  4.331850e-02    8.763070e-07
  4.361743e-02    8.443834e-07
  4.391636e-02    8.379762e-07
  4.421529e-02    8.445342e-07
  4.451423e-02    8.417234e-07
  4.481316e-02    8.451416e-07
  4.511209e-02    8.461265e-07
  4.541102e-02    8.412441e-07
  4.570995e-02    8.437809e-07
  4.600888e-02    8.312345e-07
  4.630781e-02    8.295427e-07
  4.660674e-02    8.166105e-07
  4.690567e-02    8.159903e-07
  4.720460e-02    8.246279e-07
  4.750353e-02    8.113862e-07
  4.780246e-02    8.031915e-07
  4.810139e-02    7.956329e-07
  4.840032e-02    8.059534e-07
  4.869925e-02    8.077028e-07
  4.899818e-02    7.963149e-07
  4.929711e-02    7.865638e-07
  4.959604e-02    7.919785e-07
  4.989497e-02    7.847328e-07
  5.019390e-02    7.889394e-07
  5.049283e-02    7.890332e-07
  5.079176e-02    7.839153e-07
  5.109069e-02    7.996685e-07
  5.138962e-02    8.031926e-07
  5.168855e-02    7.986189e-07
  5.198748e-02    8.141604e-07
  5.228642e-02    8.012538e-07
  5.258535e-02    7.653214e-07
  5.288428e-02    7.372791e-07
  5.318321e-02    7.349701e-07
  5.348214e-02    7.321574e-07
  5.378107e-02    7.336362e-07
  5.408000e-02    7.306903e-07
  5.437893e-02    7.123210e-07
  5.467786e-02    7.088028e-07
  5.497679e-02    7.194761e-07
  5.527572e-02    7.222833e-07
  5.557465e-02    6.986621e-07
  5.587358e-02    7.059855e-07
  5.617251e-02    7.050864e-07
  5.647144e-02    6.992278e-07
  5.677037e-02    6.922656e-07
  5.706930e-02    6.862584e-07
  5.736823e-02    6.874163e-07
  5.766716e-02    6.848657e-07
  5.796609e-02    6.803893e-07
  5.826502e-02    6.772511e-07
  5.856395e-02    6.832446e-07
  5.886288e-02    6.770288e-07
  5.916181e-02    6.847571e-07
  5.946074e-02    6.919908e-07
  5.975967e-02    6.868625e-07
  6.005861e-02    6.748348e-07
  6.035754e-02    6.873615e-07
  6.065647e-02    6.926781e-07
  6.095540e-02    6.871215e-07
  6.125433e-02    7.047402e-07
  6.155326e-02    7.035561e-07
  6.185219e-02    6.854948e-07
  6.215112e-02    6.844550e-07
  6.245005e-02    6.689099e-07
  6.274898e-02    6.578138e-07
  6.304791e-02    6.724082e-07
  6.334684e-02    6.732056e-07
  6.364577e-02    6.592837e-07
  6.394470e-02    6.590326e-07
  6.424363e-02    6.549445e-07
  6.454256e-02    6.587907e-07
  6.484149e-02    6.642516e-07
  6.514042e-02    6.635575e-07
  6.543935e-02    6.632155e-07
  6.573828e-02    6.656100e-07
  6.603721e-02    6.728873e-07
  6.633614e-02    6.633488e-07
  6.663507e-02    6.628414e-07
  6.693400e-02    6.642986e-07
  6.723293e-02    6.563694e-07
  6.753186e-02    6.494953e-07
  6.783080e-02    6.607171e-07
  6.812973e-02    6.644018e-07
  6.842866e-02    6.664069e-07
  6.872759e-02    6.704078e-07
  6.902652e-02    6.686374e-07
  6.932545e-02    6.597001e-07
  6.962438e-02    6.638312e-07
  6.992331e-02    6.592406e-07
  7.022224e-02    6.516523e-07
  7.052117e-02    6.690137e-07
  7.082010e-02    6.769076e-07
  7.111903e-02    6.816948e-07
  7.141796e-02    6.734659e-07
  7.171689e-02    6.576524e-07
  7.201582e-02    6.597061e-07
  7.231475e-02    6.534593e-07
  7.261368e-02    6.657205e-07
  7.291261e-02    6.779366e-07
  7.321154e-02    6.729495e-07
  7.351047e-02    6.505176e-07
  7.380940e-02    6.488806e-07
  7.410833e-02    6.572008e-07
  7.440726e-02    6.591666e-07
  7.470619e-02    6.519333e-07
  7.500512e-02    6.548069e-07
  7.530405e-02    6.466420e-07
  7.560299e-02    6.468926e-07
  7.590192e-02    6.464342e-07
  7.620085e-02    6.501194e-07
  7.649978e-02    6.641342e-07
  7.679871e-02    6.473371e-07
  7.709764e-02    6.437369e-07
  7.739657e-02    6.557927e-07
  7.769550e-02    6.641710e-07
  7.799443e-02    6.690342e-07
  7.829336e-02    6.599395e-07
  7.859229e-02    6.523084e-07
  7.889122e-02    6.454374e-07
  7.919015e-02    6.374355e-07
  7.948908e-02    6.356483e-07
  7.978801e-02    6.438880e-07
  8.008694e-02    6.534036e-07
  8.038587e-02    6.517493e-07
  8.068480e-02    6.513874e-07
  8.098373e-02    6.425182e-07
  8.128266e-02    6.412237e-07
  8.158159e-02    6.445251e-07
  8.188052e-02    6.470958e-07
  8.217945e-02    6.432554e-07
  8.247838e-02    6.368651e-07
  8.277731e-02    6.384473e-07
  8.307624e-02    6.353953e-07
  8.337518e-02    6.351092e-07
  8.367411e-02    6.376608e-07
  8.397304e-02    6.356418e-07
  8.427197e-02    6.334417e-07
  8.457090e-02    6.287510e-07
  8.486983e-02    6.274032e-07
  8.516876e-02    6.321359e-07
  8.546769e-02    6.285574e-07
  8.576662e-02    6.167894e-07
  8.606555e-02    6.164584e-07
  8.636448e-02    6.189397e-07
  8.666341e-02    6.201876e-07
  8.696234e-02    6.227241e-07
  8.726127e-02    6.192322e-07
  8.756020e-02    6.209439e-07
  8.785913e-02    6.162448e-07
  8.815806e-02    6.150011e-07
  8.845699e-02    6.226741e-07
  8.875592e-02    6.210008e-07
  8.905485e-02    6.083405e-07
  8.935378e-02    6.042823e-07
  8.965271e-02    6.022773e-07
  8.995164e-02    6.015349e-07
  9.025057e-02    6.124160e-07
  9.054950e-02    6.148190e-07
  9.084843e-02    6.194254e-07
  9.114737e-02    6.120329e-07
  9.144630e-02    6.011648e-07
  9.174523e-02    6.019973e-07
  9.204416e-02    5.978849e-07
  9.234309e-02    5.942186e-07
  9.264202e-02    5.870460e-07
  9.294095e-02    5.949937e-07
  9.323988e-02    5.950815e-07
  9.353881e-02    5.955379e-07
  9.383774e-02    5.987548e-07
  9.413667e-02    5.971121e-07
  9.443560e-02    5.860442e-07
  9.473453e-02    5.878687e-07
  9.503346e-02    5.984785e-07
  9.533239e-02    6.005047e-07
  9.563132e-02    5.914430e-07
  9.593025e-02    5.860815e-07
  9.622918e-02    5.948319e-07
  9.652811e-02    6.067071e-07
  9.682704e-02    5.999935e-07
  9.712597e-02    5.864258e-07
  9.742490e-02    5.947378e-07
  9.772383e-02    5.875895e-07
  9.802276e-02    5.767571e-07
  9.832169e-02    5.740404e-07
  9.862062e-02    5.834418e-07
  9.891956e-02    5.849569e-07
  9.921849e-02    5.759694e-07
  9.951742e-02    5.752380e-07
  9.981635e-02    5.740362e-07
  1.001153e-01    5.721569e-07
  1.004142e-01    5.668217e-07
  1.007131e-01    5.584250e-07
  1.010121e-01    5.579747e-07
  1.013110e-01    5.687269e-07
  1.016099e-01    5.717783e-07
  1.019089e-01    5.760709e-07
  1.022078e-01    5.712053e-07
  1.025067e-01    5.565575e-07
  1.028057e-01    5.626653e-07
  1.031046e-01    5.620287e-07
  1.034035e-01    5.538606e-07
  1.037024e-01    5.491028e-07
  1.040014e-01    5.497595e-07
  1.043003e-01    5.534164e-07
  1.045992e-01    5.675076e-07
  1.048982e-01    5.682182e-07
  1.051971e-01    5.605229e-07
  1.054960e-01    5.562496e-07
  1.057950e-01    5.560715e-07
  1.060939e-01    5.484423e-07
  1.063928e-01    5.506246e-07
  1.066917e-01    5.534562e-07
  1.069907e-01    5.501455e-07
  1.072896e-01    5.437158e-07
  1.075885e-01    5.375405e-07
  1.078875e-01    5.338023e-07
  1.081864e-01    5.417693e-07
  1.084853e-01    5.412437e-07
  1.087843e-01    5.461168e-07
  1.090832e-01    5.572220e-07
  1.093821e-01    5.526642e-07
  1.096810e-01    5.507813e-07
  1.099800e-01    5.487045e-07
  1.102789e-01    5.389426e-07
  1.105778e-01    5.182191e-07
  1.108768e-01    5.283469e-07
  1.111757e-01    5.290977e-07
  1.114746e-01    5.295685e-07
  1.117736e-01    5.342840e-07
  1.120725e-01    5.362368e-07
  1.123714e-01    5.290133e-07
  1.126704e-01    5.161194e-07
  1.129693e-01    5.234565e-07
  1.132682e-01    5.154459e-07
  1.135671e-01    5.137582e-07
  1.138661e-01    5.077023e-07
  1.141650e-01    4.922676e-07
  1.144639e-01    4.901138e-07
  1.147629e-01    5.052478e-07
  1.150618e-01    4.839051e-07
  1.153607e-01    4.852268e-07
  1.156597e-01    5.146092e-07
  1.159586e-01    5.102484e-07
  1.162575e-01    4.989797e-07
  1.165564e-01    5.156468e-07
  1.168554e-01    5.128477e-07
  1.171543e-01    5.184153e-07
  1.174532e-01    5.089988e-07
  1.177522e-01    4.989043e-07
  1.180511e-01    5.177786e-07
  1.183500e-01    4.968874e-07
  1.186490e-01    5.122947e-07
  1.189479e-01    5.269001e-07
  1.192468e-01    4.981012e-07
  1.195458e-01    5.212769e-07
  1.198447e-01    5.348953e-07
  1.201436e-01    5.072332e-07
  1.204425e-01    4.800337e-07
  1.207415e-01    4.521242e-07
  1.210404e-01    3.753339e-07
  1.213393e-01    0.000000e+00
  1.216383e-01    0.000000e+00
  1.219372e-01    0.000000e+00
  1.222361e-01    0.000000e+00
  1.225351e-01    0.000000e+00
  1.228340e-01    0.000000e+00
  1.231329e-01    0.000000e+00
  1.234318e-01    0.000000e+00
  1.237308e-01    0.000000e+00
  1.240297e-01    0.000000e+00
  1.243286e-01    0.000000e+00
  1.246276e-01    0.000000e+00
  1.249265e-01    0.000000e+00
  1.252254e-01    0.000000e+00
  1.255244e-01    0.000000e+00
  1.258233e-01    0.000000e+00
  1.261222e-01    0.000000e+00
  1.264212e-01    0.000000e+00
  1.267201e-01    0.000000e+00
  1.270190e-01    0.000000e+00
  1.273179e-01    0.000000e+00
  1.276169e-01    0.000000e+00
  1.279158e-01    0.000000e+00
  1.282147e-01    0.000000e+00
  1.285137e-01    0.000000e+00
  1.288126e-01    0.000000e+00
  1.291115e-01    0.000000e+00
  1.294105e-01    0.000000e+00
  1.297094e-01    0.000000e+00
  1.300083e-01    0.000000e+00
  1.303072e-01    0.000000e+00
  1.306062e-01    0.000000e+00
  1.309051e-01    0.000000e+00
  1.312040e-01    0.000000e+00
  1.315030e-01    0.000000e+00
  1.318019e-01    0.000000e+00
  1.321008e-01    0.000000e+00
  1.323998e-01    0.000000e+00
  1.326987e-01    0.000000e+00
  1.329976e-01    0.000000e+00
  1.332965e-01    0.000000e+00
  1.335955e-01    0.000000e+00
  1.338944e-01    0.000000e+00
  1.341933e-01    0.000000e+00
  1.344923e-01    0.000000e+00
  1.347912e-01    0.000000e+00
  1.350901e-01    0.000000e+00
  1.353891e-01    0.000000e+00
  1.356880e-01    0.000000e+00
  1.359869e-01    0.000000e+00
  1.362859e-01    0.000000e+00
  1.365848e-01    0.000000e+00
  1.368837e-01    0.000000e+00
  1.371826e-01    0.000000e+00
  1.374816e-01    0.000000e+00
  1.377805e-01    0.000000e+00
  1.380794e-01    0.000000e+00
  1.383784e-01    0.000000e+00
  1.386773e-01    0.000000e+00
  1.389762e-01    0.000000e+00
  1.392752e-01    0.000000e+00
  1.395741e-01    0.000000e+00
  1.398730e-01    0.000000e+00
  1.401719e-01    0.000000e+00
  1.404709e-01    0.000000e+00
  1.407698e-01    0.000000e+00
  1.410687e-01    0.000000e+00
  1.413677e-01    0.000000e+00
  1.416666e-01    0.000000e+00
  1.419655e-01    0.000000e+00
  1.422645e-01    0.000000e+00
  1.425634e-01    0.000000e+00
  1.428623e-01    0.000000e+00
  1.431613e-01    0.000000e+00
  1.434602e-01    0.000000e+00
  1.437591e-01    0.000000e+00
  1.440580e-01    0.000000e+00
  1.443570e-01    0.000000e+00
  1.446559e-01    0.000000e+00
  1.449548e-01    0.000000e+00
  1.452538e-01    0.000000e+00
  1.455527e-01    0.000000e+00
  1.458516e-01    0.000000e+00
  1.461506e-01    0.000000e+00
  1.464495e-01    0.000000e+00
  1.467484e-01    0.000000e+00
  1.470473e-01    0.000000e+00
  1.473463e-01    0.000000e+00
  1.476452e-01    0.000000e+00
  1.479441e-01    0.000000e+00
  1.482431e-01    0.000000e+00
  1.485420e-01    0.000000e+00
  1.488409e-01    0.000000e+00
  1.491399e-01    0.000000e+00
  1.494388e-01    0.000000e+00
  1.497377e-01    0.000000e+00
  1.500367e-01    0.000000e+00
  1.503356e-01    0.000000e+00
  1.506345e-01    0.000000e+00
  1.509334e-01    0.000000e+00
  1.512324e-01    0.000000e+00
  1.515313e-01    0.000000e+00
  1.518302e-01    0.000000e+00
  1.521292e-01    0.000000e+00
  1.524281e-01    0.000000e+00
  1.527270e-01    0.000000e+00
  1.530260e-01    0.000000e+00
  1.533249e-01    0.000000e+00
  1.536238e-01    0.000000e+00
