# == pyFAI calibration ==
# Distance Sample to Detector: 2.266 m
# PONI: 5.659e-02, 4.293e-02 m
# Rotations: 0.000000 0.000000 0.000000 rad
# 
# == Fit2d calibration ==
# Distance Sample-beamCenter: 2266.000 mm
# Center: x=249.594, y=329.012 pix
# Tilt: 0.000 deg  TiltPlanRot: 0.000 deg
# 
# Detector Pilatus 300k	 PixelSize= 1.720e-04, 1.720e-04 m
#    Detector has a mask: True 
#    Detector has a dark current: False 
#    detector has a flat field: False 
# 
# Wavelength: 1.27818e-10 m
# Mask applied: user provided
# Dark current applied: False
# Flat field applied: False
# Polarization factor: None
# Normalization factor: 16472068.8
# --> AL_F127_220228_5634dfe5-e104-4b58-89d8-b934f405ba25_0_r1d.csv
#        q_A^-1             I 
  4.457554e-03    9.023221e-04
  4.756484e-03    7.056533e-04
  5.055415e-03    4.967837e-04
  5.354345e-03    3.420897e-04
  5.653276e-03    2.598861e-04
  5.952206e-03    4.167912e-04
  6.251136e-03    3.810717e-04
  6.550067e-03    3.322975e-04
  6.848997e-03    2.831731e-04
  7.147927e-03    2.393404e-04
  7.446858e-03    2.043918e-04
  7.745788e-03    1.749999e-04
  8.044719e-03    1.506091e-04
  8.343649e-03    1.313262e-04
  8.642579e-03    1.147334e-04
  8.941510e-03    1.008136e-04
  9.240440e-03    8.946427e-05
  9.539371e-03    7.950806e-05
  9.838301e-03    7.086556e-05
  1.013723e-02    6.337542e-05
  1.043616e-02    5.705895e-05
  1.073509e-02    5.141132e-05
  1.103402e-02    4.648521e-05
  1.133295e-02    4.211280e-05
  1.163188e-02    3.831217e-05
  1.193081e-02    3.514248e-05
  1.222974e-02    3.214600e-05
  1.252867e-02    2.950044e-05
  1.282760e-02    2.726493e-05
  1.312654e-02    2.512546e-05
  1.342547e-02    2.328832e-05
  1.372440e-02    2.154900e-05
  1.402333e-02    2.000659e-05
  1.432226e-02    1.863864e-05
  1.462119e-02    1.739943e-05
  1.492012e-02    1.625559e-05
  1.521905e-02    1.519628e-05
  1.551798e-02    1.426972e-05
  1.581691e-02    1.343088e-05
  1.611584e-02    1.262084e-05
  1.641477e-02    1.189364e-05
  1.671370e-02    1.122389e-05
  1.701263e-02    1.065414e-05
  1.731156e-02    1.016234e-05
  1.761049e-02    9.673759e-06
  1.790942e-02    9.139586e-06
  1.820835e-02    8.719626e-06
  1.850728e-02    8.342064e-06
  1.880621e-02    7.952638e-06
  1.910514e-02    7.594203e-06
  1.940407e-02    7.245174e-06
  1.970300e-02    6.991280e-06
  2.000193e-02    6.760880e-06
  2.030086e-02    6.491220e-06
  2.059979e-02    6.295975e-06
  2.089873e-02    6.070159e-06
  2.119766e-02    5.856395e-06
  2.149659e-02    5.669019e-06
  2.179552e-02    5.518327e-06
  2.209445e-02    5.389595e-06
  2.239338e-02    5.222530e-06
  2.269231e-02    5.072900e-06
  2.299124e-02    4.930182e-06
  2.329017e-02    4.804185e-06
  2.358910e-02    4.686528e-06
  2.388803e-02    4.554464e-06
  2.418696e-02    4.441944e-06
  2.448589e-02    4.364307e-06
  2.478482e-02    4.303834e-06
  2.508375e-02    4.232450e-06
  2.538268e-02    4.106017e-06
  2.568161e-02    4.056827e-06
  2.598054e-02    3.981555e-06
  2.627947e-02    3.907222e-06
  2.657840e-02    3.846294e-06
  2.687733e-02    3.787509e-06
  2.717626e-02    3.720350e-06
  2.747519e-02    3.652543e-06
  2.777412e-02    3.640503e-06
  2.807305e-02    3.598660e-06
  2.837198e-02    3.527345e-06
  2.867092e-02    3.482296e-06
  2.896985e-02    3.443913e-06
  2.926878e-02    3.410200e-06
  2.956771e-02    3.383517e-06
  2.986664e-02    3.336974e-06
  3.016557e-02    3.311156e-06
  3.046450e-02    3.260814e-06
  3.076343e-02    3.233251e-06
  3.106236e-02    3.196730e-06
  3.136129e-02    3.179392e-06
  3.166022e-02    3.137189e-06
  3.195915e-02    3.098944e-06
  3.225808e-02    3.073838e-06
  3.255701e-02    3.033921e-06
  3.285594e-02    3.001500e-06
  3.315487e-02    3.007266e-06
  3.345380e-02    2.985799e-06
  3.375273e-02    2.932020e-06
  3.405166e-02    2.893619e-06
  3.435059e-02    2.854043e-06
  3.464952e-02    2.840142e-06
  3.494845e-02    2.822770e-06
  3.524738e-02    2.805933e-06
  3.554631e-02    2.796782e-06
  3.584524e-02    2.746715e-06
  3.614417e-02    2.704262e-06
  3.644310e-02    2.695645e-06
  3.674204e-02    2.673403e-06
  3.704097e-02    2.645472e-06
  3.733990e-02    2.615976e-06
  3.763883e-02    2.597696e-06
  3.793776e-02    2.598485e-06
  3.823669e-02    2.572945e-06
  3.853562e-02    2.554194e-06
  3.883455e-02    2.538819e-06
  3.913348e-02    2.512795e-06
  3.943241e-02    2.506696e-06
  3.973134e-02    2.481980e-06
  4.003027e-02    2.458949e-06
  4.032920e-02    2.455693e-06
  4.062813e-02    2.439810e-06
  4.092706e-02    2.428145e-06
  4.122599e-02    2.402055e-06
  4.152492e-02    2.395019e-06
  4.182385e-02    2.395405e-06
  4.212278e-02    2.378662e-06
  4.242171e-02    2.366880e-06
  4.272064e-02    2.364696e-06
  4.301957e-02    2.354909e-06
  4.331850e-02    2.324265e-06
  4.361743e-02    2.333024e-06
  4.391636e-02    2.347321e-06
  4.421529e-02    2.324185e-06
  4.451423e-02    2.336358e-06
  4.481316e-02    2.313617e-06
  4.511209e-02    2.303742e-06
  4.541102e-02    2.314025e-06
  4.570995e-02    2.331789e-06
  4.600888e-02    2.303657e-06
  4.630781e-02    2.311928e-06
  4.660674e-02    2.323550e-06
  4.690567e-02    2.308027e-06
  4.720460e-02    2.308279e-06
  4.750353e-02    2.310232e-06
  4.780246e-02    2.299703e-06
  4.810139e-02    2.292688e-06
  4.840032e-02    2.272519e-06
  4.869925e-02    2.265293e-06
  4.899818e-02    2.265677e-06
  4.929711e-02    2.263884e-06
  4.959604e-02    2.264879e-06
  4.989497e-02    2.263051e-06
  5.019390e-02    2.286797e-06
  5.049283e-02    2.282722e-06
  5.079176e-02    2.273756e-06
  5.109069e-02    2.300179e-06
  5.138962e-02    2.315122e-06
  5.168855e-02    2.374379e-06
  5.198748e-02    2.428715e-06
  5.228642e-02    2.395662e-06
  5.258535e-02    2.312959e-06
  5.288428e-02    2.273311e-06
  5.318321e-02    2.261775e-06
  5.348214e-02    2.244210e-06
  5.378107e-02    2.268406e-06
  5.408000e-02    2.266503e-06
  5.437893e-02    2.260150e-06
  5.467786e-02    2.230125e-06
  5.497679e-02    2.236950e-06
  5.527572e-02    2.241558e-06
  5.557465e-02    2.244989e-06
  5.587358e-02    2.249237e-06
  5.617251e-02    2.256805e-06
  5.647144e-02    2.268417e-06
  5.677037e-02    2.261150e-06
  5.706930e-02    2.260805e-06
  5.736823e-02    2.256301e-06
  5.766716e-02    2.279729e-06
  5.796609e-02    2.261049e-06
  5.826502e-02    2.267587e-06
  5.856395e-02    2.270385e-06
  5.886288e-02    2.280178e-06
  5.916181e-02    2.281774e-06
  5.946074e-02    2.278752e-06
  5.975967e-02    2.286293e-06
  6.005861e-02    2.291226e-06
  6.035754e-02    2.311451e-06
  6.065647e-02    2.301176e-06
  6.095540e-02    2.314248e-06
  6.125433e-02    2.366599e-06
  6.155326e-02    2.374016e-06
  6.185219e-02    2.345081e-06
  6.215112e-02    2.336821e-06
  6.245005e-02    2.322155e-06
  6.274898e-02    2.305076e-06
  6.304791e-02    2.312695e-06
  6.334684e-02    2.310705e-06
  6.364577e-02    2.312333e-06
  6.394470e-02    2.322623e-06
  6.424363e-02    2.327543e-06
  6.454256e-02    2.317113e-06
  6.484149e-02    2.326710e-06
  6.514042e-02    2.347151e-06
  6.543935e-02    2.352596e-06
  6.573828e-02    2.348514e-06
  6.603721e-02    2.348806e-06
  6.633614e-02    2.344252e-06
  6.663507e-02    2.359213e-06
  6.693400e-02    2.362427e-06
  6.723293e-02    2.367433e-06
  6.753186e-02    2.379751e-06
  6.783080e-02    2.368052e-06
  6.812973e-02    2.374100e-06
  6.842866e-02    2.379619e-06
  6.872759e-02    2.377437e-06
  6.902652e-02    2.354484e-06
  6.932545e-02    2.358598e-06
  6.962438e-02    2.370223e-06
  6.992331e-02    2.383926e-06
  7.022224e-02    2.389073e-06
  7.052117e-02    2.388746e-06
  7.082010e-02    2.387001e-06
  7.111903e-02    2.390881e-06
  7.141796e-02    2.397543e-06
  7.171689e-02    2.407935e-06
  7.201582e-02    2.407890e-06
  7.231475e-02    2.397523e-06
  7.261368e-02    2.406638e-06
  7.291261e-02    2.407865e-06
  7.321154e-02    2.400679e-06
  7.351047e-02    2.421925e-06
  7.380940e-02    2.423152e-06
  7.410833e-02    2.411266e-06
  7.440726e-02    2.416025e-06
  7.470619e-02    2.420535e-06
  7.500512e-02    2.428535e-06
  7.530405e-02    2.407385e-06
  7.560299e-02    2.406527e-06
  7.590192e-02    2.406411e-06
  7.620085e-02    2.400354e-06
  7.649978e-02    2.411832e-06
  7.679871e-02    2.424568e-06
  7.709764e-02    2.434077e-06
  7.739657e-02    2.431311e-06
  7.769550e-02    2.414113e-06
  7.799443e-02    2.407386e-06
  7.829336e-02    2.412432e-06
  7.859229e-02    2.419900e-06
  7.889122e-02    2.415302e-06
  7.919015e-02    2.415376e-06
  7.948908e-02    2.403547e-06
  7.978801e-02    2.410822e-06
  8.008694e-02    2.401509e-06
  8.038587e-02    2.398784e-06
  8.068480e-02    2.398481e-06
  8.098373e-02    2.397463e-06
  8.128266e-02    2.383669e-06
  8.158159e-02    2.384834e-06
  8.188052e-02    2.382219e-06
  8.217945e-02    2.374976e-06
  8.247838e-02    2.376357e-06
  8.277731e-02    2.378287e-06
  8.307624e-02    2.378931e-06
  8.337518e-02    2.388165e-06
  8.367411e-02    2.377830e-06
  8.397304e-02    2.360950e-06
  8.427197e-02    2.359128e-06
  8.457090e-02    2.366643e-06
  8.486983e-02    2.372720e-06
  8.516876e-02    2.352187e-06
  8.546769e-02    2.342794e-06
  8.576662e-02    2.353876e-06
  8.606555e-02    2.353603e-06
  8.636448e-02    2.345080e-06
  8.666341e-02    2.343422e-06
  8.696234e-02    2.333680e-06
  8.726127e-02    2.320834e-06
  8.756020e-02    2.332074e-06
  8.785913e-02    2.335342e-06
  8.815806e-02    2.329284e-06
  8.845699e-02    2.322069e-06
  8.875592e-02    2.318971e-06
  8.905485e-02    2.305000e-06
  8.935378e-02    2.305567e-06
  8.965271e-02    2.299947e-06
  8.995164e-02    2.285933e-06
  9.025057e-02    2.277429e-06
  9.054950e-02    2.290058e-06
  9.084843e-02    2.290490e-06
  9.114737e-02    2.278289e-06
  9.144630e-02    2.272004e-06
  9.174523e-02    2.259046e-06
  9.204416e-02    2.259857e-06
  9.234309e-02    2.240260e-06
  9.264202e-02    2.224729e-06
  9.294095e-02    2.238453e-06
  9.323988e-02    2.244405e-06
  9.353881e-02    2.255317e-06
  9.383774e-02    2.264931e-06
  9.413667e-02    2.254838e-06
  9.443560e-02    2.228780e-06
  9.473453e-02    2.212163e-06
  9.503346e-02    2.215177e-06
  9.533239e-02    2.223899e-06
  9.563132e-02    2.222180e-06
  9.593025e-02    2.210438e-06
  9.622918e-02    2.209029e-06
  9.652811e-02    2.228420e-06
  9.682704e-02    2.240356e-06
  9.712597e-02    2.235334e-06
  9.742490e-02    2.224856e-06
  9.772383e-02    2.221924e-06
  9.802276e-02    2.198399e-06
  9.832169e-02    2.178024e-06
  9.862062e-02    2.180075e-06
  9.891956e-02    2.172538e-06
  9.921849e-02    2.162422e-06
  9.951742e-02    2.175392e-06
  9.981635e-02    2.158469e-06
  1.001153e-01    2.139801e-06
  1.004142e-01    2.134077e-06
  1.007131e-01    2.129965e-06
  1.010121e-01    2.129586e-06
  1.013110e-01    2.128796e-06
  1.016099e-01    2.121606e-06
  1.019089e-01    2.118267e-06
  1.022078e-01    2.118158e-06
  1.025067e-01    2.121274e-06
  1.028057e-01    2.114885e-06
  1.031046e-01    2.095122e-06
  1.034035e-01    2.082525e-06
  1.037024e-01    2.085622e-06
  1.040014e-01    2.094137e-06
  1.043003e-01    2.096038e-06
  1.045992e-01    2.093210e-06
  1.048982e-01    2.093327e-06
  1.051971e-01    2.086240e-06
  1.054960e-01    2.077984e-06
  1.057950e-01    2.073632e-06
  1.060939e-01    2.067721e-06
  1.063928e-01    2.072559e-06
  1.066917e-01    2.075267e-06
  1.069907e-01    2.067083e-06
  1.072896e-01    2.046325e-06
  1.075885e-01    2.051007e-06
  1.078875e-01    2.049303e-06
  1.081864e-01    2.040211e-06
  1.084853e-01    2.038867e-06
  1.087843e-01    2.034479e-06
  1.090832e-01    2.040645e-06
  1.093821e-01    2.032935e-06
  1.096810e-01    2.026988e-06
  1.099800e-01    2.019133e-06
  1.102789e-01    2.010868e-06
  1.105778e-01    2.006570e-06
  1.108768e-01    2.000091e-06
  1.111757e-01    2.002683e-06
  1.114746e-01    2.002459e-06
  1.117736e-01    2.005917e-06
  1.120725e-01    2.001095e-06
  1.123714e-01    1.980376e-06
  1.126704e-01    1.990191e-06
  1.129693e-01    1.985521e-06
  1.132682e-01    1.966813e-06
  1.135671e-01    1.958236e-06
  1.138661e-01    1.957692e-06
  1.141650e-01    1.954757e-06
  1.144639e-01    1.937059e-06
  1.147629e-01    1.926231e-06
  1.150618e-01    1.940929e-06
  1.153607e-01    1.954437e-06
  1.156597e-01    1.932264e-06
  1.159586e-01    1.930852e-06
  1.162575e-01    1.925420e-06
  1.165564e-01    1.905709e-06
  1.168554e-01    1.915269e-06
  1.171543e-01    1.950418e-06
  1.174532e-01    1.955979e-06
  1.177522e-01    1.932137e-06
  1.180511e-01    1.940683e-06
  1.183500e-01    1.919831e-06
  1.186490e-01    1.889736e-06
  1.189479e-01    1.908559e-06
  1.192468e-01    1.918034e-06
  1.195458e-01    1.911235e-06
  1.198447e-01    1.889808e-06
  1.201436e-01    1.863520e-06
  1.204425e-01    1.773716e-06
  1.207415e-01    1.670779e-06
  1.210404e-01    1.519096e-06
  1.213393e-01    0.000000e+00
  1.216383e-01    0.000000e+00
  1.219372e-01    0.000000e+00
  1.222361e-01    0.000000e+00
  1.225351e-01    0.000000e+00
  1.228340e-01    0.000000e+00
  1.231329e-01    0.000000e+00
  1.234318e-01    0.000000e+00
  1.237308e-01    0.000000e+00
  1.240297e-01    0.000000e+00
  1.243286e-01    0.000000e+00
  1.246276e-01    0.000000e+00
  1.249265e-01    0.000000e+00
  1.252254e-01    0.000000e+00
  1.255244e-01    0.000000e+00
  1.258233e-01    0.000000e+00
  1.261222e-01    0.000000e+00
  1.264212e-01    0.000000e+00
  1.267201e-01    0.000000e+00
  1.270190e-01    0.000000e+00
  1.273179e-01    0.000000e+00
  1.276169e-01    0.000000e+00
  1.279158e-01    0.000000e+00
  1.282147e-01    0.000000e+00
  1.285137e-01    0.000000e+00
  1.288126e-01    0.000000e+00
  1.291115e-01    0.000000e+00
  1.294105e-01    0.000000e+00
  1.297094e-01    0.000000e+00
  1.300083e-01    0.000000e+00
  1.303072e-01    0.000000e+00
  1.306062e-01    0.000000e+00
  1.309051e-01    0.000000e+00
  1.312040e-01    0.000000e+00
  1.315030e-01    0.000000e+00
  1.318019e-01    0.000000e+00
  1.321008e-01    0.000000e+00
  1.323998e-01    0.000000e+00
  1.326987e-01    0.000000e+00
  1.329976e-01    0.000000e+00
  1.332965e-01    0.000000e+00
  1.335955e-01    0.000000e+00
  1.338944e-01    0.000000e+00
  1.341933e-01    0.000000e+00
  1.344923e-01    0.000000e+00
  1.347912e-01    0.000000e+00
  1.350901e-01    0.000000e+00
  1.353891e-01    0.000000e+00
  1.356880e-01    0.000000e+00
  1.359869e-01    0.000000e+00
  1.362859e-01    0.000000e+00
  1.365848e-01    0.000000e+00
  1.368837e-01    0.000000e+00
  1.371826e-01    0.000000e+00
  1.374816e-01    0.000000e+00
  1.377805e-01    0.000000e+00
  1.380794e-01    0.000000e+00
  1.383784e-01    0.000000e+00
  1.386773e-01    0.000000e+00
  1.389762e-01    0.000000e+00
  1.392752e-01    0.000000e+00
  1.395741e-01    0.000000e+00
  1.398730e-01    0.000000e+00
  1.401719e-01    0.000000e+00
  1.404709e-01    0.000000e+00
  1.407698e-01    0.000000e+00
  1.410687e-01    0.000000e+00
  1.413677e-01    0.000000e+00
  1.416666e-01    0.000000e+00
  1.419655e-01    0.000000e+00
  1.422645e-01    0.000000e+00
  1.425634e-01    0.000000e+00
  1.428623e-01    0.000000e+00
  1.431613e-01    0.000000e+00
  1.434602e-01    0.000000e+00
  1.437591e-01    0.000000e+00
  1.440580e-01    0.000000e+00
  1.443570e-01    0.000000e+00
  1.446559e-01    0.000000e+00
  1.449548e-01    0.000000e+00
  1.452538e-01    0.000000e+00
  1.455527e-01    0.000000e+00
  1.458516e-01    0.000000e+00
  1.461506e-01    0.000000e+00
  1.464495e-01    0.000000e+00
  1.467484e-01    0.000000e+00
  1.470473e-01    0.000000e+00
  1.473463e-01    0.000000e+00
  1.476452e-01    0.000000e+00
  1.479441e-01    0.000000e+00
  1.482431e-01    0.000000e+00
  1.485420e-01    0.000000e+00
  1.488409e-01    0.000000e+00
  1.491399e-01    0.000000e+00
  1.494388e-01    0.000000e+00
  1.497377e-01    0.000000e+00
  1.500367e-01    0.000000e+00
  1.503356e-01    0.000000e+00
  1.506345e-01    0.000000e+00
  1.509334e-01    0.000000e+00
  1.512324e-01    0.000000e+00
  1.515313e-01    0.000000e+00
  1.518302e-01    0.000000e+00
  1.521292e-01    0.000000e+00
  1.524281e-01    0.000000e+00
  1.527270e-01    0.000000e+00
  1.530260e-01    0.000000e+00
  1.533249e-01    0.000000e+00
  1.536238e-01    0.000000e+00
