# == pyFAI calibration ==
# Distance Sample to Detector: 2.266 m
# PONI: 5.659e-02, 4.293e-02 m
# Rotations: 0.000000 0.000000 0.000000 rad
# 
# == Fit2d calibration ==
# Distance Sample-beamCenter: 2266.000 mm
# Center: x=249.594, y=329.012 pix
# Tilt: 0.000 deg  TiltPlanRot: 0.000 deg
# 
# Detector Pilatus 300k	 PixelSize= 1.720e-04, 1.720e-04 m
#    Detector has a mask: True 
#    Detector has a dark current: False 
#    detector has a flat field: False 
# 
# Wavelength: 1.27818e-10 m
# Mask applied: user provided
# Dark current applied: False
# Flat field applied: False
# Polarization factor: None
# Normalization factor: 12933248.0
# --> AL_F127_220301_8037e240-7f6b-405b-8e60-0e44140214eb_0_r1d.csv
#        q_A^-1             I 
  4.457554e-03    1.694179e-04
  4.756484e-03    1.308204e-04
  5.055415e-03    8.881171e-05
  5.354345e-03    5.893749e-05
  5.653276e-03    4.265582e-05
  5.952206e-03    5.858608e-05
  6.251136e-03    5.322949e-05
  6.550067e-03    4.641803e-05
  6.848997e-03    3.958814e-05
  7.147927e-03    3.353589e-05
  7.446858e-03    2.887569e-05
  7.745788e-03    2.507234e-05
  8.044719e-03    2.182252e-05
  8.343649e-03    1.909000e-05
  8.642579e-03    1.680996e-05
  8.941510e-03    1.494744e-05
  9.240440e-03    1.326896e-05
  9.539371e-03    1.186932e-05
  9.838301e-03    1.063956e-05
  1.013723e-02    9.617155e-06
  1.043616e-02    8.788758e-06
  1.073509e-02    8.044887e-06
  1.103402e-02    7.376724e-06
  1.133295e-02    6.747451e-06
  1.163188e-02    6.260825e-06
  1.193081e-02    5.868395e-06
  1.222974e-02    5.413807e-06
  1.252867e-02    5.001457e-06
  1.282760e-02    4.684321e-06
  1.312654e-02    4.387459e-06
  1.342547e-02    4.125656e-06
  1.372440e-02    3.878755e-06
  1.402333e-02    3.698742e-06
  1.432226e-02    3.526783e-06
  1.462119e-02    3.335265e-06
  1.492012e-02    3.251137e-06
  1.521905e-02    3.167327e-06
  1.551798e-02    3.019974e-06
  1.581691e-02    2.933418e-06
  1.611584e-02    2.832925e-06
  1.641477e-02    2.760386e-06
  1.671370e-02    2.679952e-06
  1.701263e-02    2.683717e-06
  1.731156e-02    2.652121e-06
  1.761049e-02    2.619470e-06
  1.790942e-02    2.620971e-06
  1.820835e-02    2.609278e-06
  1.850728e-02    2.541315e-06
  1.880621e-02    2.559140e-06
  1.910514e-02    2.593082e-06
  1.940407e-02    2.584085e-06
  1.970300e-02    2.587632e-06
  2.000193e-02    2.597721e-06
  2.030086e-02    2.610264e-06
  2.059979e-02    2.644736e-06
  2.089873e-02    2.678311e-06
  2.119766e-02    2.690211e-06
  2.149659e-02    2.721366e-06
  2.179552e-02    2.728966e-06
  2.209445e-02    2.726366e-06
  2.239338e-02    2.759604e-06
  2.269231e-02    2.744252e-06
  2.299124e-02    2.745812e-06
  2.329017e-02    2.742206e-06
  2.358910e-02    2.737223e-06
  2.388803e-02    2.769556e-06
  2.418696e-02    2.754175e-06
  2.448589e-02    2.732697e-06
  2.478482e-02    2.707167e-06
  2.508375e-02    2.725669e-06
  2.538268e-02    2.693431e-06
  2.568161e-02    2.668797e-06
  2.598054e-02    2.613703e-06
  2.627947e-02    2.557146e-06
  2.657840e-02    2.560334e-06
  2.687733e-02    2.542032e-06
  2.717626e-02    2.509014e-06
  2.747519e-02    2.462211e-06
  2.777412e-02    2.387159e-06
  2.807305e-02    2.340638e-06
  2.837198e-02    2.338974e-06
  2.867092e-02    2.295787e-06
  2.896985e-02    2.239020e-06
  2.926878e-02    2.225614e-06
  2.956771e-02    2.193794e-06
  2.986664e-02    2.135981e-06
  3.016557e-02    2.094941e-06
  3.046450e-02    2.072807e-06
  3.076343e-02    2.061494e-06
  3.106236e-02    2.034846e-06
  3.136129e-02    1.988637e-06
  3.166022e-02    1.946218e-06
  3.195915e-02    1.947106e-06
  3.225808e-02    1.912745e-06
  3.255701e-02    1.905840e-06
  3.285594e-02    1.904262e-06
  3.315487e-02    1.853624e-06
  3.345380e-02    1.831123e-06
  3.375273e-02    1.814606e-06
  3.405166e-02    1.787264e-06
  3.435059e-02    1.776479e-06
  3.464952e-02    1.761366e-06
  3.494845e-02    1.752221e-06
  3.524738e-02    1.739497e-06
  3.554631e-02    1.711946e-06
  3.584524e-02    1.681111e-06
  3.614417e-02    1.699152e-06
  3.644310e-02    1.701977e-06
  3.674204e-02    1.684013e-06
  3.704097e-02    1.669693e-06
  3.733990e-02    1.642750e-06
  3.763883e-02    1.660468e-06
  3.793776e-02    1.649542e-06
  3.823669e-02    1.632766e-06
  3.853562e-02    1.625735e-06
  3.883455e-02    1.614526e-06
  3.913348e-02    1.617909e-06
  3.943241e-02    1.600963e-06
  3.973134e-02    1.587539e-06
  4.003027e-02    1.583778e-06
  4.032920e-02    1.594053e-06
  4.062813e-02    1.586353e-06
  4.092706e-02    1.575336e-06
  4.122599e-02    1.558025e-06
  4.152492e-02    1.558520e-06
  4.182385e-02    1.567644e-06
  4.212278e-02    1.547055e-06
  4.242171e-02    1.534464e-06
  4.272064e-02    1.522845e-06
  4.301957e-02    1.530093e-06
  4.331850e-02    1.524577e-06
  4.361743e-02    1.505097e-06
  4.391636e-02    1.497391e-06
  4.421529e-02    1.480036e-06
  4.451423e-02    1.468951e-06
  4.481316e-02    1.462230e-06
  4.511209e-02    1.473389e-06
  4.541102e-02    1.468488e-06
  4.570995e-02    1.431676e-06
  4.600888e-02    1.427750e-06
  4.630781e-02    1.408861e-06
  4.660674e-02    1.399273e-06
  4.690567e-02    1.373534e-06
  4.720460e-02    1.373130e-06
  4.750353e-02    1.355927e-06
  4.780246e-02    1.330815e-06
  4.810139e-02    1.332631e-06
  4.840032e-02    1.319046e-06
  4.869925e-02    1.290390e-06
  4.899818e-02    1.280913e-06
  4.929711e-02    1.265627e-06
  4.959604e-02    1.253135e-06
  4.989497e-02    1.236744e-06
  5.019390e-02    1.217863e-06
  5.049283e-02    1.215956e-06
  5.079176e-02    1.183855e-06
  5.109069e-02    1.172147e-06
  5.138962e-02    1.181245e-06
  5.168855e-02    1.165137e-06
  5.198748e-02    1.152762e-06
  5.228642e-02    1.137716e-06
  5.258535e-02    1.100976e-06
  5.288428e-02    1.078930e-06
  5.318321e-02    1.071779e-06
  5.348214e-02    1.049157e-06
  5.378107e-02    1.034172e-06
  5.408000e-02    1.036591e-06
  5.437893e-02    1.005886e-06
  5.467786e-02    9.907226e-07
  5.497679e-02    9.969870e-07
  5.527572e-02    9.747832e-07
  5.557465e-02    9.627798e-07
  5.587358e-02    9.531647e-07
  5.617251e-02    9.375677e-07
  5.647144e-02    9.265635e-07
  5.677037e-02    9.095738e-07
  5.706930e-02    8.946121e-07
  5.736823e-02    8.823679e-07
  5.766716e-02    8.812783e-07
  5.796609e-02    8.683170e-07
  5.826502e-02    8.513913e-07
  5.856395e-02    8.362686e-07
  5.886288e-02    8.354413e-07
  5.916181e-02    8.303907e-07
  5.946074e-02    8.132517e-07
  5.975967e-02    8.035477e-07
  6.005861e-02    8.013129e-07
  6.035754e-02    7.849288e-07
  6.065647e-02    7.614215e-07
  6.095540e-02    7.621326e-07
  6.125433e-02    7.692598e-07
  6.155326e-02    7.560730e-07
  6.185219e-02    7.421123e-07
  6.215112e-02    7.314946e-07
  6.245005e-02    7.314526e-07
  6.274898e-02    7.220162e-07
  6.304791e-02    7.047902e-07
  6.334684e-02    7.031353e-07
  6.364577e-02    6.910548e-07
  6.394470e-02    6.883186e-07
  6.424363e-02    6.815266e-07
  6.454256e-02    6.724818e-07
  6.484149e-02    6.659220e-07
  6.514042e-02    6.687119e-07
  6.543935e-02    6.548798e-07
  6.573828e-02    6.466939e-07
  6.603721e-02    6.439855e-07
  6.633614e-02    6.437307e-07
  6.663507e-02    6.389777e-07
  6.693400e-02    6.296115e-07
  6.723293e-02    6.346411e-07
  6.753186e-02    6.327347e-07
  6.783080e-02    6.301128e-07
  6.812973e-02    6.237300e-07
  6.842866e-02    6.091406e-07
  6.872759e-02    6.049374e-07
  6.902652e-02    5.955143e-07
  6.932545e-02    6.022440e-07
  6.962438e-02    5.926821e-07
  6.992331e-02    5.939518e-07
  7.022224e-02    5.939899e-07
  7.052117e-02    5.829448e-07
  7.082010e-02    5.670153e-07
  7.111903e-02    5.652188e-07
  7.141796e-02    5.634323e-07
  7.171689e-02    5.619747e-07
  7.201582e-02    5.665695e-07
  7.231475e-02    5.677873e-07
  7.261368e-02    5.527929e-07
  7.291261e-02    5.494923e-07
  7.321154e-02    5.547445e-07
  7.351047e-02    5.575656e-07
  7.380940e-02    5.569188e-07
  7.410833e-02    5.521786e-07
  7.440726e-02    5.424758e-07
  7.470619e-02    5.360312e-07
  7.500512e-02    5.406302e-07
  7.530405e-02    5.378470e-07
  7.560299e-02    5.366987e-07
  7.590192e-02    5.422328e-07
  7.620085e-02    5.339396e-07
  7.649978e-02    5.339539e-07
  7.679871e-02    5.352827e-07
  7.709764e-02    5.283340e-07
  7.739657e-02    5.217582e-07
  7.769550e-02    5.232575e-07
  7.799443e-02    5.199813e-07
  7.829336e-02    5.136184e-07
  7.859229e-02    5.104111e-07
  7.889122e-02    5.151547e-07
  7.919015e-02    5.118872e-07
  7.948908e-02    5.073146e-07
  7.978801e-02    4.987700e-07
  8.008694e-02    5.031991e-07
  8.038587e-02    5.064664e-07
  8.068480e-02    5.073159e-07
  8.098373e-02    5.052442e-07
  8.128266e-02    5.027132e-07
  8.158159e-02    5.010093e-07
  8.188052e-02    4.953827e-07
  8.217945e-02    4.969259e-07
  8.247838e-02    4.946549e-07
  8.277731e-02    4.922097e-07
  8.307624e-02    4.931412e-07
  8.337518e-02    4.963641e-07
  8.367411e-02    4.915858e-07
  8.397304e-02    5.016402e-07
  8.427197e-02    4.960093e-07
  8.457090e-02    4.906012e-07
  8.486983e-02    4.870902e-07
  8.516876e-02    4.855641e-07
  8.546769e-02    4.902850e-07
  8.576662e-02    4.922422e-07
  8.606555e-02    4.897985e-07
  8.636448e-02    4.867978e-07
  8.666341e-02    4.948446e-07
  8.696234e-02    4.957286e-07
  8.726127e-02    4.865132e-07
  8.756020e-02    4.840763e-07
  8.785913e-02    4.824391e-07
  8.815806e-02    4.790433e-07
  8.845699e-02    4.819296e-07
  8.875592e-02    4.833726e-07
  8.905485e-02    4.819028e-07
  8.935378e-02    4.811812e-07
  8.965271e-02    4.797689e-07
  8.995164e-02    4.802625e-07
  9.025057e-02    4.744254e-07
  9.054950e-02    4.753279e-07
  9.084843e-02    4.842073e-07
  9.114737e-02    4.817521e-07
  9.144630e-02    4.877183e-07
  9.174523e-02    4.822079e-07
  9.204416e-02    4.776566e-07
  9.234309e-02    4.733209e-07
  9.264202e-02    4.709626e-07
  9.294095e-02    4.692972e-07
  9.323988e-02    4.676011e-07
  9.353881e-02    4.665943e-07
  9.383774e-02    4.727946e-07
  9.413667e-02    4.752904e-07
  9.443560e-02    4.814867e-07
  9.473453e-02    4.841433e-07
  9.503346e-02    4.752674e-07
  9.533239e-02    4.711367e-07
  9.563132e-02    4.742356e-07
  9.593025e-02    4.735647e-07
  9.622918e-02    4.699728e-07
  9.652811e-02    4.776052e-07
  9.682704e-02    4.765528e-07
  9.712597e-02    4.821275e-07
  9.742490e-02    4.857063e-07
  9.772383e-02    4.807289e-07
  9.802276e-02    4.770545e-07
  9.832169e-02    4.753526e-07
  9.862062e-02    4.764046e-07
  9.891956e-02    4.789200e-07
  9.921849e-02    4.778739e-07
  9.951742e-02    4.763403e-07
  9.981635e-02    4.707175e-07
  1.001153e-01    4.703145e-07
  1.004142e-01    4.694147e-07
  1.007131e-01    4.655899e-07
  1.010121e-01    4.641031e-07
  1.013110e-01    4.689764e-07
  1.016099e-01    4.672245e-07
  1.019089e-01    4.690005e-07
  1.022078e-01    4.707628e-07
  1.025067e-01    4.686690e-07
  1.028057e-01    4.688267e-07
  1.031046e-01    4.636454e-07
  1.034035e-01    4.614223e-07
  1.037024e-01    4.644872e-07
  1.040014e-01    4.699884e-07
  1.043003e-01    4.680694e-07
  1.045992e-01    4.694077e-07
  1.048982e-01    4.723100e-07
  1.051971e-01    4.677892e-07
  1.054960e-01    4.665731e-07
  1.057950e-01    4.640666e-07
  1.060939e-01    4.614243e-07
  1.063928e-01    4.600142e-07
  1.066917e-01    4.625782e-07
  1.069907e-01    4.730456e-07
  1.072896e-01    4.681398e-07
  1.075885e-01    4.631797e-07
  1.078875e-01    4.706175e-07
  1.081864e-01    4.772247e-07
  1.084853e-01    4.784631e-07
  1.087843e-01    4.673654e-07
  1.090832e-01    4.595165e-07
  1.093821e-01    4.568471e-07
  1.096810e-01    4.623039e-07
  1.099800e-01    4.677470e-07
  1.102789e-01    4.688360e-07
  1.105778e-01    4.555351e-07
  1.108768e-01    4.528206e-07
  1.111757e-01    4.610289e-07
  1.114746e-01    4.672017e-07
  1.117736e-01    4.656172e-07
  1.120725e-01    4.480146e-07
  1.123714e-01    4.460631e-07
  1.126704e-01    4.529332e-07
  1.129693e-01    4.401977e-07
  1.132682e-01    4.455879e-07
  1.135671e-01    4.506437e-07
  1.138661e-01    4.447589e-07
  1.141650e-01    4.338613e-07
  1.144639e-01    4.168356e-07
  1.147629e-01    4.156129e-07
  1.150618e-01    4.246635e-07
  1.153607e-01    4.376921e-07
  1.156597e-01    4.289762e-07
  1.159586e-01    4.251836e-07
  1.162575e-01    4.258737e-07
  1.165564e-01    4.325960e-07
  1.168554e-01    4.294805e-07
  1.171543e-01    4.397334e-07
  1.174532e-01    4.355659e-07
  1.177522e-01    4.312364e-07
  1.180511e-01    4.302913e-07
  1.183500e-01    4.431877e-07
  1.186490e-01    4.294521e-07
  1.189479e-01    4.197438e-07
  1.192468e-01    4.453088e-07
  1.195458e-01    4.235380e-07
  1.198447e-01    4.026958e-07
  1.201436e-01    3.970842e-07
  1.204425e-01    4.264655e-07
  1.207415e-01    5.834882e-07
  1.210404e-01    7.739014e-07
  1.213393e-01    0.000000e+00
  1.216383e-01    0.000000e+00
  1.219372e-01    0.000000e+00
  1.222361e-01    0.000000e+00
  1.225351e-01    0.000000e+00
  1.228340e-01    0.000000e+00
  1.231329e-01    0.000000e+00
  1.234318e-01    0.000000e+00
  1.237308e-01    0.000000e+00
  1.240297e-01    0.000000e+00
  1.243286e-01    0.000000e+00
  1.246276e-01    0.000000e+00
  1.249265e-01    0.000000e+00
  1.252254e-01    0.000000e+00
  1.255244e-01    0.000000e+00
  1.258233e-01    0.000000e+00
  1.261222e-01    0.000000e+00
  1.264212e-01    0.000000e+00
  1.267201e-01    0.000000e+00
  1.270190e-01    0.000000e+00
  1.273179e-01    0.000000e+00
  1.276169e-01    0.000000e+00
  1.279158e-01    0.000000e+00
  1.282147e-01    0.000000e+00
  1.285137e-01    0.000000e+00
  1.288126e-01    0.000000e+00
  1.291115e-01    0.000000e+00
  1.294105e-01    0.000000e+00
  1.297094e-01    0.000000e+00
  1.300083e-01    0.000000e+00
  1.303072e-01    0.000000e+00
  1.306062e-01    0.000000e+00
  1.309051e-01    0.000000e+00
  1.312040e-01    0.000000e+00
  1.315030e-01    0.000000e+00
  1.318019e-01    0.000000e+00
  1.321008e-01    0.000000e+00
  1.323998e-01    0.000000e+00
  1.326987e-01    0.000000e+00
  1.329976e-01    0.000000e+00
  1.332965e-01    0.000000e+00
  1.335955e-01    0.000000e+00
  1.338944e-01    0.000000e+00
  1.341933e-01    0.000000e+00
  1.344923e-01    0.000000e+00
  1.347912e-01    0.000000e+00
  1.350901e-01    0.000000e+00
  1.353891e-01    0.000000e+00
  1.356880e-01    0.000000e+00
  1.359869e-01    0.000000e+00
  1.362859e-01    0.000000e+00
  1.365848e-01    0.000000e+00
  1.368837e-01    0.000000e+00
  1.371826e-01    0.000000e+00
  1.374816e-01    0.000000e+00
  1.377805e-01    0.000000e+00
  1.380794e-01    0.000000e+00
  1.383784e-01    0.000000e+00
  1.386773e-01    0.000000e+00
  1.389762e-01    0.000000e+00
  1.392752e-01    0.000000e+00
  1.395741e-01    0.000000e+00
  1.398730e-01    0.000000e+00
  1.401719e-01    0.000000e+00
  1.404709e-01    0.000000e+00
  1.407698e-01    0.000000e+00
  1.410687e-01    0.000000e+00
  1.413677e-01    0.000000e+00
  1.416666e-01    0.000000e+00
  1.419655e-01    0.000000e+00
  1.422645e-01    0.000000e+00
  1.425634e-01    0.000000e+00
  1.428623e-01    0.000000e+00
  1.431613e-01    0.000000e+00
  1.434602e-01    0.000000e+00
  1.437591e-01    0.000000e+00
  1.440580e-01    0.000000e+00
  1.443570e-01    0.000000e+00
  1.446559e-01    0.000000e+00
  1.449548e-01    0.000000e+00
  1.452538e-01    0.000000e+00
  1.455527e-01    0.000000e+00
  1.458516e-01    0.000000e+00
  1.461506e-01    0.000000e+00
  1.464495e-01    0.000000e+00
  1.467484e-01    0.000000e+00
  1.470473e-01    0.000000e+00
  1.473463e-01    0.000000e+00
  1.476452e-01    0.000000e+00
  1.479441e-01    0.000000e+00
  1.482431e-01    0.000000e+00
  1.485420e-01    0.000000e+00
  1.488409e-01    0.000000e+00
  1.491399e-01    0.000000e+00
  1.494388e-01    0.000000e+00
  1.497377e-01    0.000000e+00
  1.500367e-01    0.000000e+00
  1.503356e-01    0.000000e+00
  1.506345e-01    0.000000e+00
  1.509334e-01    0.000000e+00
  1.512324e-01    0.000000e+00
  1.515313e-01    0.000000e+00
  1.518302e-01    0.000000e+00
  1.521292e-01    0.000000e+00
  1.524281e-01    0.000000e+00
  1.527270e-01    0.000000e+00
  1.530260e-01    0.000000e+00
  1.533249e-01    0.000000e+00
  1.536238e-01    0.000000e+00
