# == pyFAI calibration ==
# Distance Sample to Detector: 2.266 m
# PONI: 5.659e-02, 4.293e-02 m
# Rotations: 0.000000 0.000000 0.000000 rad
# 
# == Fit2d calibration ==
# Distance Sample-beamCenter: 2266.000 mm
# Center: x=249.594, y=329.012 pix
# Tilt: 0.000 deg  TiltPlanRot: 0.000 deg
# 
# Detector Pilatus 300k	 PixelSize= 1.720e-04, 1.720e-04 m
#    Detector has a mask: True 
#    Detector has a dark current: False 
#    detector has a flat field: False 
# 
# Wavelength: 1.27818e-10 m
# Mask applied: user provided
# Dark current applied: False
# Flat field applied: False
# Polarization factor: None
# Normalization factor: 514685.0
# --> AL_F127_220301_66d575cd-b423-4c03-8fbf-fdb0a75420ee_2_r1d.csv
#        q_A^-1             I 
  4.457554e-03    1.128212e-02
  4.756484e-03    9.010537e-03
  5.055415e-03    6.590542e-03
  5.354345e-03    4.723698e-03
  5.653276e-03    3.702778e-03
  5.952206e-03    5.560939e-03
  6.251136e-03    5.033473e-03
  6.550067e-03    4.348646e-03
  6.848997e-03    3.699247e-03
  7.147927e-03    3.191415e-03
  7.446858e-03    2.770386e-03
  7.745788e-03    2.434572e-03
  8.044719e-03    2.154294e-03
  8.343649e-03    1.933852e-03
  8.642579e-03    1.743024e-03
  8.941510e-03    1.587446e-03
  9.240440e-03    1.464928e-03
  9.539371e-03    1.344998e-03
  9.838301e-03    1.246118e-03
  1.013723e-02    1.164004e-03
  1.043616e-02    1.100610e-03
  1.073509e-02    1.038831e-03
  1.103402e-02    9.900599e-04
  1.133295e-02    9.503993e-04
  1.163188e-02    9.172563e-04
  1.193081e-02    8.885026e-04
  1.222974e-02    8.615478e-04
  1.252867e-02    8.384691e-04
  1.282760e-02    8.213898e-04
  1.312654e-02    8.095439e-04
  1.342547e-02    7.983890e-04
  1.372440e-02    7.902558e-04
  1.402333e-02    7.805028e-04
  1.432226e-02    7.782516e-04
  1.462119e-02    7.739659e-04
  1.492012e-02    7.739044e-04
  1.521905e-02    7.773865e-04
  1.551798e-02    7.835030e-04
  1.581691e-02    7.904451e-04
  1.611584e-02    8.023033e-04
  1.641477e-02    8.130481e-04
  1.671370e-02    8.280345e-04
  1.701263e-02    8.436044e-04
  1.731156e-02    8.663221e-04
  1.761049e-02    8.896661e-04
  1.790942e-02    9.150108e-04
  1.820835e-02    9.447091e-04
  1.850728e-02    9.768343e-04
  1.880621e-02    1.014372e-03
  1.910514e-02    1.053093e-03
  1.940407e-02    1.091167e-03
  1.970300e-02    1.135643e-03
  2.000193e-02    1.185931e-03
  2.030086e-02    1.240718e-03
  2.059979e-02    1.295637e-03
  2.089873e-02    1.352981e-03
  2.119766e-02    1.416356e-03
  2.149659e-02    1.479742e-03
  2.179552e-02    1.551747e-03
  2.209445e-02    1.619874e-03
  2.239338e-02    1.688097e-03
  2.269231e-02    1.760599e-03
  2.299124e-02    1.844168e-03
  2.329017e-02    1.923379e-03
  2.358910e-02    1.991364e-03
  2.388803e-02    2.055790e-03
  2.418696e-02    2.117875e-03
  2.448589e-02    2.178911e-03
  2.478482e-02    2.233706e-03
  2.508375e-02    2.268842e-03
  2.538268e-02    2.292759e-03
  2.568161e-02    2.312376e-03
  2.598054e-02    2.322935e-03
  2.627947e-02    2.318319e-03
  2.657840e-02    2.297543e-03
  2.687733e-02    2.267582e-03
  2.717626e-02    2.229021e-03
  2.747519e-02    2.185003e-03
  2.777412e-02    2.125086e-03
  2.807305e-02    2.060487e-03
  2.837198e-02    1.994086e-03
  2.867092e-02    1.917061e-03
  2.896985e-02    1.836955e-03
  2.926878e-02    1.760310e-03
  2.956771e-02    1.685650e-03
  2.986664e-02    1.611156e-03
  3.016557e-02    1.536649e-03
  3.046450e-02    1.458606e-03
  3.076343e-02    1.392635e-03
  3.106236e-02    1.329509e-03
  3.136129e-02    1.264651e-03
  3.166022e-02    1.207723e-03
  3.195915e-02    1.152405e-03
  3.225808e-02    1.099707e-03
  3.255701e-02    1.052475e-03
  3.285594e-02    1.004187e-03
  3.315487e-02    9.643625e-04
  3.345380e-02    9.261397e-04
  3.375273e-02    8.863899e-04
  3.405166e-02    8.542439e-04
  3.435059e-02    8.183849e-04
  3.464952e-02    7.892728e-04
  3.494845e-02    7.641900e-04
  3.524738e-02    7.366156e-04
  3.554631e-02    7.120991e-04
  3.584524e-02    6.924894e-04
  3.614417e-02    6.723057e-04
  3.644310e-02    6.533269e-04
  3.674204e-02    6.372225e-04
  3.704097e-02    6.212243e-04
  3.733990e-02    6.035111e-04
  3.763883e-02    5.862463e-04
  3.793776e-02    5.716817e-04
  3.823669e-02    5.591372e-04
  3.853562e-02    5.474170e-04
  3.883455e-02    5.363572e-04
  3.913348e-02    5.257888e-04
  3.943241e-02    5.146195e-04
  3.973134e-02    5.041257e-04
  4.003027e-02    4.947737e-04
  4.032920e-02    4.875002e-04
  4.062813e-02    4.811758e-04
  4.092706e-02    4.734960e-04
  4.122599e-02    4.652019e-04
  4.152492e-02    4.593961e-04
  4.182385e-02    4.522056e-04
  4.212278e-02    4.467764e-04
  4.242171e-02    4.392204e-04
  4.272064e-02    4.322850e-04
  4.301957e-02    4.264510e-04
  4.331850e-02    4.223034e-04
  4.361743e-02    4.181715e-04
  4.391636e-02    4.133125e-04
  4.421529e-02    4.080487e-04
  4.451423e-02    4.035059e-04
  4.481316e-02    3.995150e-04
  4.511209e-02    3.932984e-04
  4.541102e-02    3.888006e-04
  4.570995e-02    3.851700e-04
  4.600888e-02    3.794232e-04
  4.630781e-02    3.740065e-04
  4.660674e-02    3.699087e-04
  4.690567e-02    3.656590e-04
  4.720460e-02    3.600153e-04
  4.750353e-02    3.548137e-04
  4.780246e-02    3.491587e-04
  4.810139e-02    3.441449e-04
  4.840032e-02    3.394897e-04
  4.869925e-02    3.338059e-04
  4.899818e-02    3.278628e-04
  4.929711e-02    3.215630e-04
  4.959604e-02    3.171904e-04
  4.989497e-02    3.126732e-04
  5.019390e-02    3.062322e-04
  5.049283e-02    3.008940e-04
  5.079176e-02    2.942644e-04
  5.109069e-02    2.879706e-04
  5.138962e-02    2.838574e-04
  5.168855e-02    2.779893e-04
  5.198748e-02    2.714542e-04
  5.228642e-02    2.651313e-04
  5.258535e-02    2.587264e-04
  5.288428e-02    2.529323e-04
  5.318321e-02    2.472300e-04
  5.348214e-02    2.399712e-04
  5.378107e-02    2.339132e-04
  5.408000e-02    2.281469e-04
  5.437893e-02    2.228430e-04
  5.467786e-02    2.174088e-04
  5.497679e-02    2.111605e-04
  5.527572e-02    2.050235e-04
  5.557465e-02    1.998838e-04
  5.587358e-02    1.941942e-04
  5.617251e-02    1.890599e-04
  5.647144e-02    1.840530e-04
  5.677037e-02    1.787654e-04
  5.706930e-02    1.738383e-04
  5.736823e-02    1.690174e-04
  5.766716e-02    1.648614e-04
  5.796609e-02    1.606434e-04
  5.826502e-02    1.564477e-04
  5.856395e-02    1.522313e-04
  5.886288e-02    1.481223e-04
  5.916181e-02    1.437475e-04
  5.946074e-02    1.399525e-04
  5.975967e-02    1.372819e-04
  6.005861e-02    1.333800e-04
  6.035754e-02    1.301402e-04
  6.065647e-02    1.274798e-04
  6.095540e-02    1.241460e-04
  6.125433e-02    1.212728e-04
  6.155326e-02    1.181701e-04
  6.185219e-02    1.149398e-04
  6.215112e-02    1.118790e-04
  6.245005e-02    1.093696e-04
  6.274898e-02    1.067835e-04
  6.304791e-02    1.041661e-04
  6.334684e-02    1.021391e-04
  6.364577e-02    1.001680e-04
  6.394470e-02    9.852078e-05
  6.424363e-02    9.658837e-05
  6.454256e-02    9.413617e-05
  6.484149e-02    9.197758e-05
  6.514042e-02    9.044426e-05
  6.543935e-02    8.868695e-05
  6.573828e-02    8.720567e-05
  6.603721e-02    8.586823e-05
  6.633614e-02    8.433728e-05
  6.663507e-02    8.233840e-05
  6.693400e-02    8.106601e-05
  6.723293e-02    7.979156e-05
  6.753186e-02    7.843866e-05
  6.783080e-02    7.687905e-05
  6.812973e-02    7.599461e-05
  6.842866e-02    7.491247e-05
  6.872759e-02    7.377279e-05
  6.902652e-02    7.275050e-05
  6.932545e-02    7.142156e-05
  6.962438e-02    7.093380e-05
  6.992331e-02    7.003525e-05
  7.022224e-02    6.851253e-05
  7.052117e-02    6.772919e-05
  7.082010e-02    6.727186e-05
  7.111903e-02    6.685997e-05
  7.141796e-02    6.551238e-05
  7.171689e-02    6.491235e-05
  7.201582e-02    6.456580e-05
  7.231475e-02    6.360012e-05
  7.261368e-02    6.248728e-05
  7.291261e-02    6.215195e-05
  7.321154e-02    6.159965e-05
  7.351047e-02    6.133784e-05
  7.380940e-02    6.097493e-05
  7.410833e-02    6.015421e-05
  7.440726e-02    6.017177e-05
  7.470619e-02    6.024869e-05
  7.500512e-02    5.920062e-05
  7.530405e-02    5.917680e-05
  7.560299e-02    5.892931e-05
  7.590192e-02    5.811864e-05
  7.620085e-02    5.756290e-05
  7.649978e-02    5.738002e-05
  7.679871e-02    5.759536e-05
  7.709764e-02    5.744649e-05
  7.739657e-02    5.746384e-05
  7.769550e-02    5.691046e-05
  7.799443e-02    5.639904e-05
  7.829336e-02    5.606223e-05
  7.859229e-02    5.597488e-05
  7.889122e-02    5.611944e-05
  7.919015e-02    5.597504e-05
  7.948908e-02    5.591678e-05
  7.978801e-02    5.582056e-05
  8.008694e-02    5.575056e-05
  8.038587e-02    5.554754e-05
  8.068480e-02    5.545236e-05
  8.098373e-02    5.585304e-05
  8.128266e-02    5.564540e-05
  8.158159e-02    5.552346e-05
  8.188052e-02    5.549901e-05
  8.217945e-02    5.579483e-05
  8.247838e-02    5.574037e-05
  8.277731e-02    5.561822e-05
  8.307624e-02    5.570196e-05
  8.337518e-02    5.559445e-05
  8.367411e-02    5.555277e-05
  8.397304e-02    5.561873e-05
  8.427197e-02    5.536182e-05
  8.457090e-02    5.554659e-05
  8.486983e-02    5.526180e-05
  8.516876e-02    5.552918e-05
  8.546769e-02    5.603657e-05
  8.576662e-02    5.627767e-05
  8.606555e-02    5.618206e-05
  8.636448e-02    5.618212e-05
  8.666341e-02    5.617723e-05
  8.696234e-02    5.637102e-05
  8.726127e-02    5.676700e-05
  8.756020e-02    5.650504e-05
  8.785913e-02    5.642066e-05
  8.815806e-02    5.688107e-05
  8.845699e-02    5.700483e-05
  8.875592e-02    5.711802e-05
  8.905485e-02    5.718128e-05
  8.935378e-02    5.700902e-05
  8.965271e-02    5.688836e-05
  8.995164e-02    5.671664e-05
  9.025057e-02    5.699652e-05
  9.054950e-02    5.723780e-05
  9.084843e-02    5.750783e-05
  9.114737e-02    5.752952e-05
  9.144630e-02    5.753450e-05
  9.174523e-02    5.818607e-05
  9.204416e-02    5.797182e-05
  9.234309e-02    5.792879e-05
  9.264202e-02    5.792756e-05
  9.294095e-02    5.812463e-05
  9.323988e-02    5.806334e-05
  9.353881e-02    5.839776e-05
  9.383774e-02    5.847521e-05
  9.413667e-02    5.839913e-05
  9.443560e-02    5.836489e-05
  9.473453e-02    5.855746e-05
  9.503346e-02    5.871230e-05
  9.533239e-02    5.858613e-05
  9.563132e-02    5.870291e-05
  9.593025e-02    5.859079e-05
  9.622918e-02    5.871196e-05
  9.652811e-02    5.898413e-05
  9.682704e-02    5.918964e-05
  9.712597e-02    5.912636e-05
  9.742490e-02    5.897882e-05
  9.772383e-02    5.899845e-05
  9.802276e-02    5.896194e-05
  9.832169e-02    5.930157e-05
  9.862062e-02    5.939521e-05
  9.891956e-02    5.915616e-05
  9.921849e-02    5.917596e-05
  9.951742e-02    5.929852e-05
  9.981635e-02    5.938835e-05
  1.001153e-01    5.871096e-05
  1.004142e-01    5.873074e-05
  1.007131e-01    5.907552e-05
  1.010121e-01    5.860444e-05
  1.013110e-01    5.864400e-05
  1.016099e-01    5.874679e-05
  1.019089e-01    5.877331e-05
  1.022078e-01    5.857678e-05
  1.025067e-01    5.824813e-05
  1.028057e-01    5.835589e-05
  1.031046e-01    5.847458e-05
  1.034035e-01    5.816105e-05
  1.037024e-01    5.822498e-05
  1.040014e-01    5.800396e-05
  1.043003e-01    5.792403e-05
  1.045992e-01    5.823376e-05
  1.048982e-01    5.806376e-05
  1.051971e-01    5.798218e-05
  1.054960e-01    5.765085e-05
  1.057950e-01    5.770217e-05
  1.060939e-01    5.778257e-05
  1.063928e-01    5.782157e-05
  1.066917e-01    5.799935e-05
  1.069907e-01    5.781638e-05
  1.072896e-01    5.757834e-05
  1.075885e-01    5.754374e-05
  1.078875e-01    5.762019e-05
  1.081864e-01    5.717457e-05
  1.084853e-01    5.709444e-05
  1.087843e-01    5.708851e-05
  1.090832e-01    5.708336e-05
  1.093821e-01    5.731090e-05
  1.096810e-01    5.721137e-05
  1.099800e-01    5.715902e-05
  1.102789e-01    5.724937e-05
  1.105778e-01    5.627561e-05
  1.108768e-01    5.611163e-05
  1.111757e-01    5.607429e-05
  1.114746e-01    5.541913e-05
  1.117736e-01    5.551377e-05
  1.120725e-01    5.508966e-05
  1.123714e-01    5.451772e-05
  1.126704e-01    5.300194e-05
  1.129693e-01    5.224058e-05
  1.132682e-01    5.184365e-05
  1.135671e-01    5.052791e-05
  1.138661e-01    4.915187e-05
  1.141650e-01    4.900685e-05
  1.144639e-01    4.793375e-05
  1.147629e-01    4.677163e-05
  1.150618e-01    4.715315e-05
  1.153607e-01    4.693220e-05
  1.156597e-01    4.584111e-05
  1.159586e-01    4.539285e-05
  1.162575e-01    4.514623e-05
  1.165564e-01    4.506065e-05
  1.168554e-01    4.492356e-05
  1.171543e-01    4.492908e-05
  1.174532e-01    4.497875e-05
  1.177522e-01    4.530159e-05
  1.180511e-01    4.549850e-05
  1.183500e-01    4.539455e-05
  1.186490e-01    4.506962e-05
  1.189479e-01    4.441473e-05
  1.192468e-01    4.470177e-05
  1.195458e-01    4.478348e-05
  1.198447e-01    4.423769e-05
  1.201436e-01    4.413194e-05
  1.204425e-01    4.191462e-05
  1.207415e-01    3.892571e-05
  1.210404e-01    3.889392e-05
  1.213393e-01    0.000000e+00
  1.216383e-01    0.000000e+00
  1.219372e-01    0.000000e+00
  1.222361e-01    0.000000e+00
  1.225351e-01    0.000000e+00
  1.228340e-01    0.000000e+00
  1.231329e-01    0.000000e+00
  1.234318e-01    0.000000e+00
  1.237308e-01    0.000000e+00
  1.240297e-01    0.000000e+00
  1.243286e-01    0.000000e+00
  1.246276e-01    0.000000e+00
  1.249265e-01    0.000000e+00
  1.252254e-01    0.000000e+00
  1.255244e-01    0.000000e+00
  1.258233e-01    0.000000e+00
  1.261222e-01    0.000000e+00
  1.264212e-01    0.000000e+00
  1.267201e-01    0.000000e+00
  1.270190e-01    0.000000e+00
  1.273179e-01    0.000000e+00
  1.276169e-01    0.000000e+00
  1.279158e-01    0.000000e+00
  1.282147e-01    0.000000e+00
  1.285137e-01    0.000000e+00
  1.288126e-01    0.000000e+00
  1.291115e-01    0.000000e+00
  1.294105e-01    0.000000e+00
  1.297094e-01    0.000000e+00
  1.300083e-01    0.000000e+00
  1.303072e-01    0.000000e+00
  1.306062e-01    0.000000e+00
  1.309051e-01    0.000000e+00
  1.312040e-01    0.000000e+00
  1.315030e-01    0.000000e+00
  1.318019e-01    0.000000e+00
  1.321008e-01    0.000000e+00
  1.323998e-01    0.000000e+00
  1.326987e-01    0.000000e+00
  1.329976e-01    0.000000e+00
  1.332965e-01    0.000000e+00
  1.335955e-01    0.000000e+00
  1.338944e-01    0.000000e+00
  1.341933e-01    0.000000e+00
  1.344923e-01    0.000000e+00
  1.347912e-01    0.000000e+00
  1.350901e-01    0.000000e+00
  1.353891e-01    0.000000e+00
  1.356880e-01    0.000000e+00
  1.359869e-01    0.000000e+00
  1.362859e-01    0.000000e+00
  1.365848e-01    0.000000e+00
  1.368837e-01    0.000000e+00
  1.371826e-01    0.000000e+00
  1.374816e-01    0.000000e+00
  1.377805e-01    0.000000e+00
  1.380794e-01    0.000000e+00
  1.383784e-01    0.000000e+00
  1.386773e-01    0.000000e+00
  1.389762e-01    0.000000e+00
  1.392752e-01    0.000000e+00
  1.395741e-01    0.000000e+00
  1.398730e-01    0.000000e+00
  1.401719e-01    0.000000e+00
  1.404709e-01    0.000000e+00
  1.407698e-01    0.000000e+00
  1.410687e-01    0.000000e+00
  1.413677e-01    0.000000e+00
  1.416666e-01    0.000000e+00
  1.419655e-01    0.000000e+00
  1.422645e-01    0.000000e+00
  1.425634e-01    0.000000e+00
  1.428623e-01    0.000000e+00
  1.431613e-01    0.000000e+00
  1.434602e-01    0.000000e+00
  1.437591e-01    0.000000e+00
  1.440580e-01    0.000000e+00
  1.443570e-01    0.000000e+00
  1.446559e-01    0.000000e+00
  1.449548e-01    0.000000e+00
  1.452538e-01    0.000000e+00
  1.455527e-01    0.000000e+00
  1.458516e-01    0.000000e+00
  1.461506e-01    0.000000e+00
  1.464495e-01    0.000000e+00
  1.467484e-01    0.000000e+00
  1.470473e-01    0.000000e+00
  1.473463e-01    0.000000e+00
  1.476452e-01    0.000000e+00
  1.479441e-01    0.000000e+00
  1.482431e-01    0.000000e+00
  1.485420e-01    0.000000e+00
  1.488409e-01    0.000000e+00
  1.491399e-01    0.000000e+00
  1.494388e-01    0.000000e+00
  1.497377e-01    0.000000e+00
  1.500367e-01    0.000000e+00
  1.503356e-01    0.000000e+00
  1.506345e-01    0.000000e+00
  1.509334e-01    0.000000e+00
  1.512324e-01    0.000000e+00
  1.515313e-01    0.000000e+00
  1.518302e-01    0.000000e+00
  1.521292e-01    0.000000e+00
  1.524281e-01    0.000000e+00
  1.527270e-01    0.000000e+00
  1.530260e-01    0.000000e+00
  1.533249e-01    0.000000e+00
  1.536238e-01    0.000000e+00
