# == pyFAI calibration ==
# Distance Sample to Detector: 2.266 m
# PONI: 5.659e-02, 4.293e-02 m
# Rotations: 0.000000 0.000000 0.000000 rad
# 
# == Fit2d calibration ==
# Distance Sample-beamCenter: 2266.000 mm
# Center: x=249.594, y=329.012 pix
# Tilt: 0.000 deg  TiltPlanRot: 0.000 deg
# 
# Detector Pilatus 300k	 PixelSize= 1.720e-04, 1.720e-04 m
#    Detector has a mask: True 
#    Detector has a dark current: False 
#    detector has a flat field: False 
# 
# Wavelength: 1.27818e-10 m
# Mask applied: user provided
# Dark current applied: False
# Flat field applied: False
# Polarization factor: None
# Normalization factor: 18467893.200000003
# --> AL_F127_220228_389c7d5d-ee7b-437a-a95a-09af3fe05338_0_r1d.csv
#        q_A^-1             I 
  4.457554e-03    1.181903e-03
  4.756484e-03    9.336192e-04
  5.055415e-03    6.670241e-04
  5.354345e-03    4.611749e-04
  5.653276e-03    3.505418e-04
  5.952206e-03    5.592488e-04
  6.251136e-03    5.104737e-04
  6.550067e-03    4.439979e-04
  6.848997e-03    3.781884e-04
  7.147927e-03    3.193901e-04
  7.446858e-03    2.723392e-04
  7.745788e-03    2.337525e-04
  8.044719e-03    2.012494e-04
  8.343649e-03    1.757964e-04
  8.642579e-03    1.533404e-04
  8.941510e-03    1.348561e-04
  9.240440e-03    1.197196e-04
  9.539371e-03    1.064740e-04
  9.838301e-03    9.482084e-05
  1.013723e-02    8.491443e-05
  1.043616e-02    7.628398e-05
  1.073509e-02    6.854643e-05
  1.103402e-02    6.210464e-05
  1.133295e-02    5.648016e-05
  1.163188e-02    5.149345e-05
  1.193081e-02    4.708444e-05
  1.222974e-02    4.310115e-05
  1.252867e-02    3.950845e-05
  1.282760e-02    3.643558e-05
  1.312654e-02    3.364170e-05
  1.342547e-02    3.121645e-05
  1.372440e-02    2.890190e-05
  1.402333e-02    2.679326e-05
  1.432226e-02    2.488692e-05
  1.462119e-02    2.324977e-05
  1.492012e-02    2.175091e-05
  1.521905e-02    2.040177e-05
  1.551798e-02    1.913966e-05
  1.581691e-02    1.799472e-05
  1.611584e-02    1.697537e-05
  1.641477e-02    1.595900e-05
  1.671370e-02    1.511864e-05
  1.701263e-02    1.428768e-05
  1.731156e-02    1.350601e-05
  1.761049e-02    1.287804e-05
  1.790942e-02    1.226322e-05
  1.820835e-02    1.167392e-05
  1.850728e-02    1.116811e-05
  1.880621e-02    1.070325e-05
  1.910514e-02    1.027702e-05
  1.940407e-02    9.896710e-06
  1.970300e-02    9.472972e-06
  2.000193e-02    9.073689e-06
  2.030086e-02    8.779978e-06
  2.059979e-02    8.476242e-06
  2.089873e-02    8.202506e-06
  2.119766e-02    7.924986e-06
  2.149659e-02    7.710206e-06
  2.179552e-02    7.444973e-06
  2.209445e-02    7.171299e-06
  2.239338e-02    6.935917e-06
  2.269231e-02    6.747112e-06
  2.299124e-02    6.597433e-06
  2.329017e-02    6.442155e-06
  2.358910e-02    6.297641e-06
  2.388803e-02    6.161441e-06
  2.418696e-02    6.011972e-06
  2.448589e-02    5.878672e-06
  2.478482e-02    5.760311e-06
  2.508375e-02    5.626572e-06
  2.538268e-02    5.535434e-06
  2.568161e-02    5.462293e-06
  2.598054e-02    5.374475e-06
  2.627947e-02    5.293363e-06
  2.657840e-02    5.167287e-06
  2.687733e-02    5.084223e-06
  2.717626e-02    5.004138e-06
  2.747519e-02    4.928293e-06
  2.777412e-02    4.850071e-06
  2.807305e-02    4.779401e-06
  2.837198e-02    4.743528e-06
  2.867092e-02    4.665895e-06
  2.896985e-02    4.601134e-06
  2.926878e-02    4.529978e-06
  2.956771e-02    4.512172e-06
  2.986664e-02    4.459305e-06
  3.016557e-02    4.382330e-06
  3.046450e-02    4.343563e-06
  3.076343e-02    4.336805e-06
  3.106236e-02    4.302296e-06
  3.136129e-02    4.240932e-06
  3.166022e-02    4.198541e-06
  3.195915e-02    4.151408e-06
  3.225808e-02    4.091725e-06
  3.255701e-02    4.060455e-06
  3.285594e-02    4.050256e-06
  3.315487e-02    4.011473e-06
  3.345380e-02    3.940734e-06
  3.375273e-02    3.919602e-06
  3.405166e-02    3.915135e-06
  3.435059e-02    3.868187e-06
  3.464952e-02    3.832570e-06
  3.494845e-02    3.802776e-06
  3.524738e-02    3.770484e-06
  3.554631e-02    3.739653e-06
  3.584524e-02    3.708062e-06
  3.614417e-02    3.680966e-06
  3.644310e-02    3.627734e-06
  3.674204e-02    3.601182e-06
  3.704097e-02    3.559445e-06
  3.733990e-02    3.530615e-06
  3.763883e-02    3.516521e-06
  3.793776e-02    3.487663e-06
  3.823669e-02    3.467997e-06
  3.853562e-02    3.452684e-06
  3.883455e-02    3.422470e-06
  3.913348e-02    3.391634e-06
  3.943241e-02    3.397953e-06
  3.973134e-02    3.366092e-06
  4.003027e-02    3.333396e-06
  4.032920e-02    3.340675e-06
  4.062813e-02    3.321067e-06
  4.092706e-02    3.289359e-06
  4.122599e-02    3.291434e-06
  4.152492e-02    3.293454e-06
  4.182385e-02    3.248582e-06
  4.212278e-02    3.226174e-06
  4.242171e-02    3.210526e-06
  4.272064e-02    3.195271e-06
  4.301957e-02    3.197103e-06
  4.331850e-02    3.200149e-06
  4.361743e-02    3.176485e-06
  4.391636e-02    3.181594e-06
  4.421529e-02    3.173770e-06
  4.451423e-02    3.183757e-06
  4.481316e-02    3.170584e-06
  4.511209e-02    3.159602e-06
  4.541102e-02    3.117909e-06
  4.570995e-02    3.115708e-06
  4.600888e-02    3.129312e-06
  4.630781e-02    3.106593e-06
  4.660674e-02    3.123833e-06
  4.690567e-02    3.121956e-06
  4.720460e-02    3.122851e-06
  4.750353e-02    3.123798e-06
  4.780246e-02    3.112552e-06
  4.810139e-02    3.105790e-06
  4.840032e-02    3.113069e-06
  4.869925e-02    3.105427e-06
  4.899818e-02    3.126882e-06
  4.929711e-02    3.110448e-06
  4.959604e-02    3.088425e-06
  4.989497e-02    3.092529e-06
  5.019390e-02    3.095910e-06
  5.049283e-02    3.101638e-06
  5.079176e-02    3.116781e-06
  5.109069e-02    3.129741e-06
  5.138962e-02    3.143686e-06
  5.168855e-02    3.236150e-06
  5.198748e-02    3.276944e-06
  5.228642e-02    3.227590e-06
  5.258535e-02    3.133960e-06
  5.288428e-02    3.101268e-06
  5.318321e-02    3.112902e-06
  5.348214e-02    3.084210e-06
  5.378107e-02    3.079014e-06
  5.408000e-02    3.091470e-06
  5.437893e-02    3.099389e-06
  5.467786e-02    3.082191e-06
  5.497679e-02    3.087325e-06
  5.527572e-02    3.084875e-06
  5.557465e-02    3.081368e-06
  5.587358e-02    3.066673e-06
  5.617251e-02    3.093214e-06
  5.647144e-02    3.094817e-06
  5.677037e-02    3.083996e-06
  5.706930e-02    3.091768e-06
  5.736823e-02    3.095764e-06
  5.766716e-02    3.098904e-06
  5.796609e-02    3.089514e-06
  5.826502e-02    3.100081e-06
  5.856395e-02    3.114041e-06
  5.886288e-02    3.106337e-06
  5.916181e-02    3.110685e-06
  5.946074e-02    3.133747e-06
  5.975967e-02    3.133280e-06
  6.005861e-02    3.127544e-06
  6.035754e-02    3.145983e-06
  6.065647e-02    3.154719e-06
  6.095540e-02    3.186872e-06
  6.125433e-02    3.244645e-06
  6.155326e-02    3.243713e-06
  6.185219e-02    3.194133e-06
  6.215112e-02    3.171686e-06
  6.245005e-02    3.135587e-06
  6.274898e-02    3.141496e-06
  6.304791e-02    3.177776e-06
  6.334684e-02    3.171438e-06
  6.364577e-02    3.160796e-06
  6.394470e-02    3.173114e-06
  6.424363e-02    3.170991e-06
  6.454256e-02    3.179338e-06
  6.484149e-02    3.187807e-06
  6.514042e-02    3.198710e-06
  6.543935e-02    3.211497e-06
  6.573828e-02    3.206244e-06
  6.603721e-02    3.192328e-06
  6.633614e-02    3.217584e-06
  6.663507e-02    3.231722e-06
  6.693400e-02    3.233287e-06
  6.723293e-02    3.227695e-06
  6.753186e-02    3.217427e-06
  6.783080e-02    3.227664e-06
  6.812973e-02    3.249724e-06
  6.842866e-02    3.257900e-06
  6.872759e-02    3.265376e-06
  6.902652e-02    3.256981e-06
  6.932545e-02    3.251329e-06
  6.962438e-02    3.275557e-06
  6.992331e-02    3.278596e-06
  7.022224e-02    3.282415e-06
  7.052117e-02    3.287764e-06
  7.082010e-02    3.280724e-06
  7.111903e-02    3.283973e-06
  7.141796e-02    3.279729e-06
  7.171689e-02    3.299674e-06
  7.201582e-02    3.300058e-06
  7.231475e-02    3.298261e-06
  7.261368e-02    3.305254e-06
  7.291261e-02    3.301981e-06
  7.321154e-02    3.319575e-06
  7.351047e-02    3.328662e-06
  7.380940e-02    3.324419e-06
  7.410833e-02    3.307715e-06
  7.440726e-02    3.306275e-06
  7.470619e-02    3.301470e-06
  7.500512e-02    3.307860e-06
  7.530405e-02    3.312403e-06
  7.560299e-02    3.301524e-06
  7.590192e-02    3.288622e-06
  7.620085e-02    3.309968e-06
  7.649978e-02    3.314262e-06
  7.679871e-02    3.311780e-06
  7.709764e-02    3.321264e-06
  7.739657e-02    3.318242e-06
  7.769550e-02    3.325187e-06
  7.799443e-02    3.328011e-06
  7.829336e-02    3.319577e-06
  7.859229e-02    3.319686e-06
  7.889122e-02    3.317179e-06
  7.919015e-02    3.308403e-06
  7.948908e-02    3.311708e-06
  7.978801e-02    3.301352e-06
  8.008694e-02    3.290209e-06
  8.038587e-02    3.289605e-06
  8.068480e-02    3.282082e-06
  8.098373e-02    3.264489e-06
  8.128266e-02    3.263685e-06
  8.158159e-02    3.283089e-06
  8.188052e-02    3.280901e-06
  8.217945e-02    3.269073e-06
  8.247838e-02    3.253389e-06
  8.277731e-02    3.250064e-06
  8.307624e-02    3.262998e-06
  8.337518e-02    3.273646e-06
  8.367411e-02    3.263671e-06
  8.397304e-02    3.254429e-06
  8.427197e-02    3.238805e-06
  8.457090e-02    3.245418e-06
  8.486983e-02    3.242267e-06
  8.516876e-02    3.229877e-06
  8.546769e-02    3.224437e-06
  8.576662e-02    3.233212e-06
  8.606555e-02    3.231145e-06
  8.636448e-02    3.227831e-06
  8.666341e-02    3.218333e-06
  8.696234e-02    3.216738e-06
  8.726127e-02    3.217531e-06
  8.756020e-02    3.207205e-06
  8.785913e-02    3.183381e-06
  8.815806e-02    3.174016e-06
  8.845699e-02    3.190981e-06
  8.875592e-02    3.188301e-06
  8.905485e-02    3.163086e-06
  8.935378e-02    3.147304e-06
  8.965271e-02    3.169527e-06
  8.995164e-02    3.162439e-06
  9.025057e-02    3.134811e-06
  9.054950e-02    3.122001e-06
  9.084843e-02    3.129139e-06
  9.114737e-02    3.128231e-06
  9.144630e-02    3.118495e-06
  9.174523e-02    3.108730e-06
  9.204416e-02    3.106124e-06
  9.234309e-02    3.088672e-06
  9.264202e-02    3.090375e-06
  9.294095e-02    3.093128e-06
  9.323988e-02    3.084132e-06
  9.353881e-02    3.079377e-06
  9.383774e-02    3.071833e-06
  9.413667e-02    3.070166e-06
  9.443560e-02    3.072968e-06
  9.473453e-02    3.076396e-06
  9.503346e-02    3.071803e-06
  9.533239e-02    3.061967e-06
  9.563132e-02    3.047201e-06
  9.593025e-02    3.047122e-06
  9.622918e-02    3.056680e-06
  9.652811e-02    3.051444e-06
  9.682704e-02    3.062981e-06
  9.712597e-02    3.067584e-06
  9.742490e-02    3.056855e-06
  9.772383e-02    3.052158e-06
  9.802276e-02    3.038472e-06
  9.832169e-02    3.014294e-06
  9.862062e-02    2.991263e-06
  9.891956e-02    2.976129e-06
  9.921849e-02    2.958696e-06
  9.951742e-02    2.953915e-06
  9.981635e-02    2.958832e-06
  1.001153e-01    2.974760e-06
  1.004142e-01    2.964694e-06
  1.007131e-01    2.946248e-06
  1.010121e-01    2.941566e-06
  1.013110e-01    2.941479e-06
  1.016099e-01    2.937121e-06
  1.019089e-01    2.929267e-06
  1.022078e-01    2.917565e-06
  1.025067e-01    2.918679e-06
  1.028057e-01    2.902732e-06
  1.031046e-01    2.887027e-06
  1.034035e-01    2.899648e-06
  1.037024e-01    2.912828e-06
  1.040014e-01    2.897619e-06
  1.043003e-01    2.891159e-06
  1.045992e-01    2.885819e-06
  1.048982e-01    2.869589e-06
  1.051971e-01    2.871874e-06
  1.054960e-01    2.871541e-06
  1.057950e-01    2.859178e-06
  1.060939e-01    2.860472e-06
  1.063928e-01    2.858950e-06
  1.066917e-01    2.858241e-06
  1.069907e-01    2.850737e-06
  1.072896e-01    2.839529e-06
  1.075885e-01    2.833803e-06
  1.078875e-01    2.821064e-06
  1.081864e-01    2.816678e-06
  1.084853e-01    2.814561e-06
  1.087843e-01    2.808502e-06
  1.090832e-01    2.808151e-06
  1.093821e-01    2.809802e-06
  1.096810e-01    2.800394e-06
  1.099800e-01    2.787573e-06
  1.102789e-01    2.772856e-06
  1.105778e-01    2.784398e-06
  1.108768e-01    2.771023e-06
  1.111757e-01    2.739660e-06
  1.114746e-01    2.736487e-06
  1.117736e-01    2.739603e-06
  1.120725e-01    2.727394e-06
  1.123714e-01    2.725159e-06
  1.126704e-01    2.713105e-06
  1.129693e-01    2.707059e-06
  1.132682e-01    2.679751e-06
  1.135671e-01    2.662119e-06
  1.138661e-01    2.656971e-06
  1.141650e-01    2.662118e-06
  1.144639e-01    2.680386e-06
  1.147629e-01    2.685694e-06
  1.150618e-01    2.690433e-06
  1.153607e-01    2.701569e-06
  1.156597e-01    2.690022e-06
  1.159586e-01    2.670672e-06
  1.162575e-01    2.658025e-06
  1.165564e-01    2.639747e-06
  1.168554e-01    2.647272e-06
  1.171543e-01    2.654223e-06
  1.174532e-01    2.626763e-06
  1.177522e-01    2.616820e-06
  1.180511e-01    2.634343e-06
  1.183500e-01    2.669002e-06
  1.186490e-01    2.652006e-06
  1.189479e-01    2.637902e-06
  1.192468e-01    2.626818e-06
  1.195458e-01    2.616262e-06
  1.198447e-01    2.634767e-06
  1.201436e-01    2.617460e-06
  1.204425e-01    2.525356e-06
  1.207415e-01    2.486581e-06
  1.210404e-01    2.493065e-06
  1.213393e-01    0.000000e+00
  1.216383e-01    0.000000e+00
  1.219372e-01    0.000000e+00
  1.222361e-01    0.000000e+00
  1.225351e-01    0.000000e+00
  1.228340e-01    0.000000e+00
  1.231329e-01    0.000000e+00
  1.234318e-01    0.000000e+00
  1.237308e-01    0.000000e+00
  1.240297e-01    0.000000e+00
  1.243286e-01    0.000000e+00
  1.246276e-01    0.000000e+00
  1.249265e-01    0.000000e+00
  1.252254e-01    0.000000e+00
  1.255244e-01    0.000000e+00
  1.258233e-01    0.000000e+00
  1.261222e-01    0.000000e+00
  1.264212e-01    0.000000e+00
  1.267201e-01    0.000000e+00
  1.270190e-01    0.000000e+00
  1.273179e-01    0.000000e+00
  1.276169e-01    0.000000e+00
  1.279158e-01    0.000000e+00
  1.282147e-01    0.000000e+00
  1.285137e-01    0.000000e+00
  1.288126e-01    0.000000e+00
  1.291115e-01    0.000000e+00
  1.294105e-01    0.000000e+00
  1.297094e-01    0.000000e+00
  1.300083e-01    0.000000e+00
  1.303072e-01    0.000000e+00
  1.306062e-01    0.000000e+00
  1.309051e-01    0.000000e+00
  1.312040e-01    0.000000e+00
  1.315030e-01    0.000000e+00
  1.318019e-01    0.000000e+00
  1.321008e-01    0.000000e+00
  1.323998e-01    0.000000e+00
  1.326987e-01    0.000000e+00
  1.329976e-01    0.000000e+00
  1.332965e-01    0.000000e+00
  1.335955e-01    0.000000e+00
  1.338944e-01    0.000000e+00
  1.341933e-01    0.000000e+00
  1.344923e-01    0.000000e+00
  1.347912e-01    0.000000e+00
  1.350901e-01    0.000000e+00
  1.353891e-01    0.000000e+00
  1.356880e-01    0.000000e+00
  1.359869e-01    0.000000e+00
  1.362859e-01    0.000000e+00
  1.365848e-01    0.000000e+00
  1.368837e-01    0.000000e+00
  1.371826e-01    0.000000e+00
  1.374816e-01    0.000000e+00
  1.377805e-01    0.000000e+00
  1.380794e-01    0.000000e+00
  1.383784e-01    0.000000e+00
  1.386773e-01    0.000000e+00
  1.389762e-01    0.000000e+00
  1.392752e-01    0.000000e+00
  1.395741e-01    0.000000e+00
  1.398730e-01    0.000000e+00
  1.401719e-01    0.000000e+00
  1.404709e-01    0.000000e+00
  1.407698e-01    0.000000e+00
  1.410687e-01    0.000000e+00
  1.413677e-01    0.000000e+00
  1.416666e-01    0.000000e+00
  1.419655e-01    0.000000e+00
  1.422645e-01    0.000000e+00
  1.425634e-01    0.000000e+00
  1.428623e-01    0.000000e+00
  1.431613e-01    0.000000e+00
  1.434602e-01    0.000000e+00
  1.437591e-01    0.000000e+00
  1.440580e-01    0.000000e+00
  1.443570e-01    0.000000e+00
  1.446559e-01    0.000000e+00
  1.449548e-01    0.000000e+00
  1.452538e-01    0.000000e+00
  1.455527e-01    0.000000e+00
  1.458516e-01    0.000000e+00
  1.461506e-01    0.000000e+00
  1.464495e-01    0.000000e+00
  1.467484e-01    0.000000e+00
  1.470473e-01    0.000000e+00
  1.473463e-01    0.000000e+00
  1.476452e-01    0.000000e+00
  1.479441e-01    0.000000e+00
  1.482431e-01    0.000000e+00
  1.485420e-01    0.000000e+00
  1.488409e-01    0.000000e+00
  1.491399e-01    0.000000e+00
  1.494388e-01    0.000000e+00
  1.497377e-01    0.000000e+00
  1.500367e-01    0.000000e+00
  1.503356e-01    0.000000e+00
  1.506345e-01    0.000000e+00
  1.509334e-01    0.000000e+00
  1.512324e-01    0.000000e+00
  1.515313e-01    0.000000e+00
  1.518302e-01    0.000000e+00
  1.521292e-01    0.000000e+00
  1.524281e-01    0.000000e+00
  1.527270e-01    0.000000e+00
  1.530260e-01    0.000000e+00
  1.533249e-01    0.000000e+00
  1.536238e-01    0.000000e+00
