# == pyFAI calibration ==
# Distance Sample to Detector: 2.266 m
# PONI: 5.659e-02, 4.293e-02 m
# Rotations: 0.000000 0.000000 0.000000 rad
# 
# == Fit2d calibration ==
# Distance Sample-beamCenter: 2266.000 mm
# Center: x=249.594, y=329.012 pix
# Tilt: 0.000 deg  TiltPlanRot: 0.000 deg
# 
# Detector Pilatus 300k	 PixelSize= 1.720e-04, 1.720e-04 m
#    Detector has a mask: True 
#    Detector has a dark current: False 
#    detector has a flat field: False 
# 
# Wavelength: 1.27818e-10 m
# Mask applied: user provided
# Dark current applied: False
# Flat field applied: False
# Polarization factor: None
# Normalization factor: 3296354.0
# --> AL_F127_220301_d49c2890-4af5-493b-9a5b-bfbf7899fbea_2_r1d.csv
#        q_A^-1             I 
  4.457554e-03    2.115926e-03
  4.756484e-03    1.671877e-03
  5.055415e-03    1.222641e-03
  5.354345e-03    8.745112e-04
  5.653276e-03    6.825650e-04
  5.952206e-03    1.091360e-03
  6.251136e-03    1.016028e-03
  6.550067e-03    8.858550e-04
  6.848997e-03    7.552566e-04
  7.147927e-03    6.412909e-04
  7.446858e-03    5.524840e-04
  7.745788e-03    4.776089e-04
  8.044719e-03    4.166371e-04
  8.343649e-03    3.692763e-04
  8.642579e-03    3.271905e-04
  8.941510e-03    2.923528e-04
  9.240440e-03    2.634062e-04
  9.539371e-03    2.386881e-04
  9.838301e-03    2.182342e-04
  1.013723e-02    1.999003e-04
  1.043616e-02    1.836476e-04
  1.073509e-02    1.704400e-04
  1.103402e-02    1.601519e-04
  1.133295e-02    1.500904e-04
  1.163188e-02    1.411479e-04
  1.193081e-02    1.335190e-04
  1.222974e-02    1.270776e-04
  1.252867e-02    1.218700e-04
  1.282760e-02    1.173675e-04
  1.312654e-02    1.131637e-04
  1.342547e-02    1.091724e-04
  1.372440e-02    1.059618e-04
  1.402333e-02    1.034992e-04
  1.432226e-02    1.021199e-04
  1.462119e-02    1.003427e-04
  1.492012e-02    9.879764e-05
  1.521905e-02    9.767315e-05
  1.551798e-02    9.712931e-05
  1.581691e-02    9.717143e-05
  1.611584e-02    9.771773e-05
  1.641477e-02    9.814942e-05
  1.671370e-02    9.950747e-05
  1.701263e-02    1.010948e-04
  1.731156e-02    1.030020e-04
  1.761049e-02    1.055392e-04
  1.790942e-02    1.086864e-04
  1.820835e-02    1.118890e-04
  1.850728e-02    1.153233e-04
  1.880621e-02    1.197254e-04
  1.910514e-02    1.242433e-04
  1.940407e-02    1.294169e-04
  1.970300e-02    1.348183e-04
  2.000193e-02    1.413662e-04
  2.030086e-02    1.487964e-04
  2.059979e-02    1.558511e-04
  2.089873e-02    1.626748e-04
  2.119766e-02    1.709439e-04
  2.149659e-02    1.799255e-04
  2.179552e-02    1.884192e-04
  2.209445e-02    1.972217e-04
  2.239338e-02    2.071525e-04
  2.269231e-02    2.166649e-04
  2.299124e-02    2.255060e-04
  2.329017e-02    2.342082e-04
  2.358910e-02    2.420425e-04
  2.388803e-02    2.487495e-04
  2.418696e-02    2.549017e-04
  2.448589e-02    2.605529e-04
  2.478482e-02    2.650182e-04
  2.508375e-02    2.673616e-04
  2.538268e-02    2.681427e-04
  2.568161e-02    2.677006e-04
  2.598054e-02    2.657758e-04
  2.627947e-02    2.628824e-04
  2.657840e-02    2.590639e-04
  2.687733e-02    2.536712e-04
  2.717626e-02    2.472032e-04
  2.747519e-02    2.395414e-04
  2.777412e-02    2.309874e-04
  2.807305e-02    2.236076e-04
  2.837198e-02    2.152576e-04
  2.867092e-02    2.059293e-04
  2.896985e-02    1.970590e-04
  2.926878e-02    1.888643e-04
  2.956771e-02    1.812180e-04
  2.986664e-02    1.736913e-04
  3.016557e-02    1.655758e-04
  3.046450e-02    1.582603e-04
  3.076343e-02    1.514846e-04
  3.106236e-02    1.453365e-04
  3.136129e-02    1.396583e-04
  3.166022e-02    1.338255e-04
  3.195915e-02    1.292028e-04
  3.225808e-02    1.245114e-04
  3.255701e-02    1.201998e-04
  3.285594e-02    1.163603e-04
  3.315487e-02    1.123234e-04
  3.345380e-02    1.086914e-04
  3.375273e-02    1.052003e-04
  3.405166e-02    1.020986e-04
  3.435059e-02    9.960288e-05
  3.464952e-02    9.698505e-05
  3.494845e-02    9.467469e-05
  3.524738e-02    9.236387e-05
  3.554631e-02    9.023767e-05
  3.584524e-02    8.830609e-05
  3.614417e-02    8.647481e-05
  3.644310e-02    8.487927e-05
  3.674204e-02    8.352660e-05
  3.704097e-02    8.203142e-05
  3.733990e-02    8.063331e-05
  3.763883e-02    7.946418e-05
  3.793776e-02    7.821812e-05
  3.823669e-02    7.718916e-05
  3.853562e-02    7.597993e-05
  3.883455e-02    7.511857e-05
  3.913348e-02    7.458700e-05
  3.943241e-02    7.367900e-05
  3.973134e-02    7.277601e-05
  4.003027e-02    7.201892e-05
  4.032920e-02    7.164591e-05
  4.062813e-02    7.087050e-05
  4.092706e-02    7.021460e-05
  4.122599e-02    6.971283e-05
  4.152492e-02    6.926697e-05
  4.182385e-02    6.856643e-05
  4.212278e-02    6.800215e-05
  4.242171e-02    6.740856e-05
  4.272064e-02    6.723922e-05
  4.301957e-02    6.687931e-05
  4.331850e-02    6.618864e-05
  4.361743e-02    6.564936e-05
  4.391636e-02    6.497182e-05
  4.421529e-02    6.453731e-05
  4.451423e-02    6.427615e-05
  4.481316e-02    6.346204e-05
  4.511209e-02    6.297534e-05
  4.541102e-02    6.230835e-05
  4.570995e-02    6.165534e-05
  4.600888e-02    6.115218e-05
  4.630781e-02    6.045397e-05
  4.660674e-02    5.977563e-05
  4.690567e-02    5.897622e-05
  4.720460e-02    5.832550e-05
  4.750353e-02    5.753311e-05
  4.780246e-02    5.676511e-05
  4.810139e-02    5.601504e-05
  4.840032e-02    5.520762e-05
  4.869925e-02    5.430775e-05
  4.899818e-02    5.333480e-05
  4.929711e-02    5.232637e-05
  4.959604e-02    5.140709e-05
  4.989497e-02    5.060914e-05
  5.019390e-02    4.967736e-05
  5.049283e-02    4.877515e-05
  5.079176e-02    4.789389e-05
  5.109069e-02    4.662173e-05
  5.138962e-02    4.557616e-05
  5.168855e-02    4.494507e-05
  5.198748e-02    4.407755e-05
  5.228642e-02    4.294847e-05
  5.258535e-02    4.183830e-05
  5.288428e-02    4.076140e-05
  5.318321e-02    3.986745e-05
  5.348214e-02    3.896600e-05
  5.378107e-02    3.791905e-05
  5.408000e-02    3.684198e-05
  5.437893e-02    3.614005e-05
  5.467786e-02    3.526080e-05
  5.497679e-02    3.431759e-05
  5.527572e-02    3.345372e-05
  5.557465e-02    3.271308e-05
  5.587358e-02    3.186376e-05
  5.617251e-02    3.108723e-05
  5.647144e-02    3.034788e-05
  5.677037e-02    2.959890e-05
  5.706930e-02    2.876325e-05
  5.736823e-02    2.806045e-05
  5.766716e-02    2.742004e-05
  5.796609e-02    2.679704e-05
  5.826502e-02    2.622506e-05
  5.856395e-02    2.555777e-05
  5.886288e-02    2.498169e-05
  5.916181e-02    2.443947e-05
  5.946074e-02    2.382560e-05
  5.975967e-02    2.322114e-05
  6.005861e-02    2.274993e-05
  6.035754e-02    2.238514e-05
  6.065647e-02    2.192504e-05
  6.095540e-02    2.147257e-05
  6.125433e-02    2.109449e-05
  6.155326e-02    2.056123e-05
  6.185219e-02    2.013735e-05
  6.215112e-02    1.971568e-05
  6.245005e-02    1.926520e-05
  6.274898e-02    1.893280e-05
  6.304791e-02    1.856652e-05
  6.334684e-02    1.830256e-05
  6.364577e-02    1.805279e-05
  6.394470e-02    1.772363e-05
  6.424363e-02    1.737486e-05
  6.454256e-02    1.701807e-05
  6.484149e-02    1.676620e-05
  6.514042e-02    1.653791e-05
  6.543935e-02    1.625770e-05
  6.573828e-02    1.605486e-05
  6.603721e-02    1.580670e-05
  6.633614e-02    1.552150e-05
  6.663507e-02    1.526718e-05
  6.693400e-02    1.514097e-05
  6.723293e-02    1.490823e-05
  6.753186e-02    1.472430e-05
  6.783080e-02    1.458658e-05
  6.812973e-02    1.435497e-05
  6.842866e-02    1.412813e-05
  6.872759e-02    1.391488e-05
  6.902652e-02    1.379036e-05
  6.932545e-02    1.365498e-05
  6.962438e-02    1.350835e-05
  6.992331e-02    1.331138e-05
  7.022224e-02    1.312211e-05
  7.052117e-02    1.296947e-05
  7.082010e-02    1.280719e-05
  7.111903e-02    1.269572e-05
  7.141796e-02    1.259776e-05
  7.171689e-02    1.245495e-05
  7.201582e-02    1.236225e-05
  7.231475e-02    1.226886e-05
  7.261368e-02    1.217936e-05
  7.291261e-02    1.208298e-05
  7.321154e-02    1.192040e-05
  7.351047e-02    1.183252e-05
  7.380940e-02    1.173552e-05
  7.410833e-02    1.162267e-05
  7.440726e-02    1.156163e-05
  7.470619e-02    1.159921e-05
  7.500512e-02    1.155572e-05
  7.530405e-02    1.144711e-05
  7.560299e-02    1.135446e-05
  7.590192e-02    1.126867e-05
  7.620085e-02    1.124850e-05
  7.649978e-02    1.119221e-05
  7.679871e-02    1.113833e-05
  7.709764e-02    1.110095e-05
  7.739657e-02    1.103996e-05
  7.769550e-02    1.101527e-05
  7.799443e-02    1.101340e-05
  7.829336e-02    1.099564e-05
  7.859229e-02    1.089968e-05
  7.889122e-02    1.087111e-05
  7.919015e-02    1.087411e-05
  7.948908e-02    1.085034e-05
  7.978801e-02    1.081010e-05
  8.008694e-02    1.078719e-05
  8.038587e-02    1.083332e-05
  8.068480e-02    1.077479e-05
  8.098373e-02    1.069465e-05
  8.128266e-02    1.064932e-05
  8.158159e-02    1.071670e-05
  8.188052e-02    1.070962e-05
  8.217945e-02    1.061115e-05
  8.247838e-02    1.059343e-05
  8.277731e-02    1.065039e-05
  8.307624e-02    1.078432e-05
  8.337518e-02    1.075700e-05
  8.367411e-02    1.071357e-05
  8.397304e-02    1.072135e-05
  8.427197e-02    1.066439e-05
  8.457090e-02    1.070822e-05
  8.486983e-02    1.072142e-05
  8.516876e-02    1.073857e-05
  8.546769e-02    1.072567e-05
  8.576662e-02    1.072633e-05
  8.606555e-02    1.071666e-05
  8.636448e-02    1.074105e-05
  8.666341e-02    1.070532e-05
  8.696234e-02    1.072470e-05
  8.726127e-02    1.078074e-05
  8.756020e-02    1.083124e-05
  8.785913e-02    1.076370e-05
  8.815806e-02    1.069515e-05
  8.845699e-02    1.077751e-05
  8.875592e-02    1.084042e-05
  8.905485e-02    1.083346e-05
  8.935378e-02    1.081935e-05
  8.965271e-02    1.084560e-05
  8.995164e-02    1.091086e-05
  9.025057e-02    1.089153e-05
  9.054950e-02    1.085717e-05
  9.084843e-02    1.085290e-05
  9.114737e-02    1.084436e-05
  9.144630e-02    1.093024e-05
  9.174523e-02    1.097815e-05
  9.204416e-02    1.097166e-05
  9.234309e-02    1.099646e-05
  9.264202e-02    1.100310e-05
  9.294095e-02    1.096325e-05
  9.323988e-02    1.099196e-05
  9.353881e-02    1.103769e-05
  9.383774e-02    1.099302e-05
  9.413667e-02    1.106783e-05
  9.443560e-02    1.107494e-05
  9.473453e-02    1.098617e-05
  9.503346e-02    1.099186e-05
  9.533239e-02    1.099231e-05
  9.563132e-02    1.102508e-05
  9.593025e-02    1.111752e-05
  9.622918e-02    1.104613e-05
  9.652811e-02    1.098072e-05
  9.682704e-02    1.100574e-05
  9.712597e-02    1.097928e-05
  9.742490e-02    1.100816e-05
  9.772383e-02    1.114648e-05
  9.802276e-02    1.114513e-05
  9.832169e-02    1.109957e-05
  9.862062e-02    1.105850e-05
  9.891956e-02    1.104130e-05
  9.921849e-02    1.106319e-05
  9.951742e-02    1.107125e-05
  9.981635e-02    1.110857e-05
  1.001153e-01    1.104938e-05
  1.004142e-01    1.106557e-05
  1.007131e-01    1.105757e-05
  1.010121e-01    1.103758e-05
  1.013110e-01    1.104244e-05
  1.016099e-01    1.102068e-05
  1.019089e-01    1.099796e-05
  1.022078e-01    1.096102e-05
  1.025067e-01    1.100751e-05
  1.028057e-01    1.102467e-05
  1.031046e-01    1.105284e-05
  1.034035e-01    1.104596e-05
  1.037024e-01    1.097856e-05
  1.040014e-01    1.098505e-05
  1.043003e-01    1.108474e-05
  1.045992e-01    1.099762e-05
  1.048982e-01    1.090265e-05
  1.051971e-01    1.089362e-05
  1.054960e-01    1.089028e-05
  1.057950e-01    1.087965e-05
  1.060939e-01    1.082343e-05
  1.063928e-01    1.087634e-05
  1.066917e-01    1.092094e-05
  1.069907e-01    1.096296e-05
  1.072896e-01    1.091375e-05
  1.075885e-01    1.086235e-05
  1.078875e-01    1.094304e-05
  1.081864e-01    1.092872e-05
  1.084853e-01    1.084134e-05
  1.087843e-01    1.084302e-05
  1.090832e-01    1.086288e-05
  1.093821e-01    1.095253e-05
  1.096810e-01    1.093312e-05
  1.099800e-01    1.088386e-05
  1.102789e-01    1.089545e-05
  1.105778e-01    1.093011e-05
  1.108768e-01    1.085682e-05
  1.111757e-01    1.073623e-05
  1.114746e-01    1.066904e-05
  1.117736e-01    1.063836e-05
  1.120725e-01    1.045903e-05
  1.123714e-01    1.034350e-05
  1.126704e-01    1.015154e-05
  1.129693e-01    9.941118e-06
  1.132682e-01    9.732520e-06
  1.135671e-01    9.510656e-06
  1.138661e-01    9.417170e-06
  1.141650e-01    9.196467e-06
  1.144639e-01    9.052494e-06
  1.147629e-01    8.961953e-06
  1.150618e-01    8.845516e-06
  1.153607e-01    8.814462e-06
  1.156597e-01    8.821995e-06
  1.159586e-01    8.747281e-06
  1.162575e-01    8.728735e-06
  1.165564e-01    8.650547e-06
  1.168554e-01    8.709126e-06
  1.171543e-01    8.672462e-06
  1.174532e-01    8.553767e-06
  1.177522e-01    8.579290e-06
  1.180511e-01    8.523744e-06
  1.183500e-01    8.524295e-06
  1.186490e-01    8.616283e-06
  1.189479e-01    8.584238e-06
  1.192468e-01    8.567909e-06
  1.195458e-01    8.592435e-06
  1.198447e-01    8.356644e-06
  1.201436e-01    8.439176e-06
  1.204425e-01    8.562261e-06
  1.207415e-01    8.039827e-06
  1.210404e-01    8.501927e-06
  1.213393e-01    0.000000e+00
  1.216383e-01    0.000000e+00
  1.219372e-01    0.000000e+00
  1.222361e-01    0.000000e+00
  1.225351e-01    0.000000e+00
  1.228340e-01    0.000000e+00
  1.231329e-01    0.000000e+00
  1.234318e-01    0.000000e+00
  1.237308e-01    0.000000e+00
  1.240297e-01    0.000000e+00
  1.243286e-01    0.000000e+00
  1.246276e-01    0.000000e+00
  1.249265e-01    0.000000e+00
  1.252254e-01    0.000000e+00
  1.255244e-01    0.000000e+00
  1.258233e-01    0.000000e+00
  1.261222e-01    0.000000e+00
  1.264212e-01    0.000000e+00
  1.267201e-01    0.000000e+00
  1.270190e-01    0.000000e+00
  1.273179e-01    0.000000e+00
  1.276169e-01    0.000000e+00
  1.279158e-01    0.000000e+00
  1.282147e-01    0.000000e+00
  1.285137e-01    0.000000e+00
  1.288126e-01    0.000000e+00
  1.291115e-01    0.000000e+00
  1.294105e-01    0.000000e+00
  1.297094e-01    0.000000e+00
  1.300083e-01    0.000000e+00
  1.303072e-01    0.000000e+00
  1.306062e-01    0.000000e+00
  1.309051e-01    0.000000e+00
  1.312040e-01    0.000000e+00
  1.315030e-01    0.000000e+00
  1.318019e-01    0.000000e+00
  1.321008e-01    0.000000e+00
  1.323998e-01    0.000000e+00
  1.326987e-01    0.000000e+00
  1.329976e-01    0.000000e+00
  1.332965e-01    0.000000e+00
  1.335955e-01    0.000000e+00
  1.338944e-01    0.000000e+00
  1.341933e-01    0.000000e+00
  1.344923e-01    0.000000e+00
  1.347912e-01    0.000000e+00
  1.350901e-01    0.000000e+00
  1.353891e-01    0.000000e+00
  1.356880e-01    0.000000e+00
  1.359869e-01    0.000000e+00
  1.362859e-01    0.000000e+00
  1.365848e-01    0.000000e+00
  1.368837e-01    0.000000e+00
  1.371826e-01    0.000000e+00
  1.374816e-01    0.000000e+00
  1.377805e-01    0.000000e+00
  1.380794e-01    0.000000e+00
  1.383784e-01    0.000000e+00
  1.386773e-01    0.000000e+00
  1.389762e-01    0.000000e+00
  1.392752e-01    0.000000e+00
  1.395741e-01    0.000000e+00
  1.398730e-01    0.000000e+00
  1.401719e-01    0.000000e+00
  1.404709e-01    0.000000e+00
  1.407698e-01    0.000000e+00
  1.410687e-01    0.000000e+00
  1.413677e-01    0.000000e+00
  1.416666e-01    0.000000e+00
  1.419655e-01    0.000000e+00
  1.422645e-01    0.000000e+00
  1.425634e-01    0.000000e+00
  1.428623e-01    0.000000e+00
  1.431613e-01    0.000000e+00
  1.434602e-01    0.000000e+00
  1.437591e-01    0.000000e+00
  1.440580e-01    0.000000e+00
  1.443570e-01    0.000000e+00
  1.446559e-01    0.000000e+00
  1.449548e-01    0.000000e+00
  1.452538e-01    0.000000e+00
  1.455527e-01    0.000000e+00
  1.458516e-01    0.000000e+00
  1.461506e-01    0.000000e+00
  1.464495e-01    0.000000e+00
  1.467484e-01    0.000000e+00
  1.470473e-01    0.000000e+00
  1.473463e-01    0.000000e+00
  1.476452e-01    0.000000e+00
  1.479441e-01    0.000000e+00
  1.482431e-01    0.000000e+00
  1.485420e-01    0.000000e+00
  1.488409e-01    0.000000e+00
  1.491399e-01    0.000000e+00
  1.494388e-01    0.000000e+00
  1.497377e-01    0.000000e+00
  1.500367e-01    0.000000e+00
  1.503356e-01    0.000000e+00
  1.506345e-01    0.000000e+00
  1.509334e-01    0.000000e+00
  1.512324e-01    0.000000e+00
  1.515313e-01    0.000000e+00
  1.518302e-01    0.000000e+00
  1.521292e-01    0.000000e+00
  1.524281e-01    0.000000e+00
  1.527270e-01    0.000000e+00
  1.530260e-01    0.000000e+00
  1.533249e-01    0.000000e+00
  1.536238e-01    0.000000e+00
