# == pyFAI calibration ==
# Distance Sample to Detector: 2.266 m
# PONI: 5.659e-02, 4.293e-02 m
# Rotations: 0.000000 0.000000 0.000000 rad
# 
# == Fit2d calibration ==
# Distance Sample-beamCenter: 2266.000 mm
# Center: x=249.594, y=329.012 pix
# Tilt: 0.000 deg  TiltPlanRot: 0.000 deg
# 
# Detector Pilatus 300k	 PixelSize= 1.720e-04, 1.720e-04 m
#    Detector has a mask: True 
#    Detector has a dark current: False 
#    detector has a flat field: False 
# 
# Wavelength: 1.27818e-10 m
# Mask applied: user provided
# Dark current applied: False
# Flat field applied: False
# Polarization factor: None
# Normalization factor: 17131750.400000002
# --> AL_F127_220225_8918b8e9-e007-4729-a9d8-a2ac137169c0_0_r1d.csv
#        q_A^-1             I 
  4.457554e-03    1.978763e-04
  4.756484e-03    1.589252e-04
  5.055415e-03    1.128629e-04
  5.354345e-03    7.728893e-05
  5.653276e-03    5.759368e-05
  5.952206e-03    9.065888e-05
  6.251136e-03    8.274636e-05
  6.550067e-03    7.226493e-05
  6.848997e-03    6.147688e-05
  7.147927e-03    5.182134e-05
  7.446858e-03    4.425952e-05
  7.745788e-03    3.828615e-05
  8.044719e-03    3.308658e-05
  8.343649e-03    2.889541e-05
  8.642579e-03    2.530241e-05
  8.941510e-03    2.237084e-05
  9.240440e-03    1.980934e-05
  9.539371e-03    1.761983e-05
  9.838301e-03    1.569382e-05
  1.013723e-02    1.411813e-05
  1.043616e-02    1.287520e-05
  1.073509e-02    1.167382e-05
  1.103402e-02    1.063046e-05
  1.133295e-02    9.659645e-06
  1.163188e-02    8.824009e-06
  1.193081e-02    8.128854e-06
  1.222974e-02    7.485333e-06
  1.252867e-02    6.923756e-06
  1.282760e-02    6.448400e-06
  1.312654e-02    5.983597e-06
  1.342547e-02    5.550711e-06
  1.372440e-02    5.166999e-06
  1.402333e-02    4.843148e-06
  1.432226e-02    4.576107e-06
  1.462119e-02    4.312190e-06
  1.492012e-02    4.032672e-06
  1.521905e-02    3.808653e-06
  1.551798e-02    3.582695e-06
  1.581691e-02    3.368272e-06
  1.611584e-02    3.235982e-06
  1.641477e-02    3.074726e-06
  1.671370e-02    2.925201e-06
  1.701263e-02    2.823039e-06
  1.731156e-02    2.711647e-06
  1.761049e-02    2.597636e-06
  1.790942e-02    2.489054e-06
  1.820835e-02    2.393604e-06
  1.850728e-02    2.332788e-06
  1.880621e-02    2.237735e-06
  1.910514e-02    2.144568e-06
  1.940407e-02    2.076874e-06
  1.970300e-02    2.020270e-06
  2.000193e-02    1.940052e-06
  2.030086e-02    1.876820e-06
  2.059979e-02    1.851127e-06
  2.089873e-02    1.833079e-06
  2.119766e-02    1.785977e-06
  2.149659e-02    1.739565e-06
  2.179552e-02    1.694720e-06
  2.209445e-02    1.653664e-06
  2.239338e-02    1.616919e-06
  2.269231e-02    1.567074e-06
  2.299124e-02    1.541845e-06
  2.329017e-02    1.522246e-06
  2.358910e-02    1.495870e-06
  2.388803e-02    1.465513e-06
  2.418696e-02    1.416369e-06
  2.448589e-02    1.386997e-06
  2.478482e-02    1.365130e-06
  2.508375e-02    1.348971e-06
  2.538268e-02    1.340797e-06
  2.568161e-02    1.305816e-06
  2.598054e-02    1.284666e-06
  2.627947e-02    1.275781e-06
  2.657840e-02    1.263827e-06
  2.687733e-02    1.258491e-06
  2.717626e-02    1.231652e-06
  2.747519e-02    1.207714e-06
  2.777412e-02    1.194337e-06
  2.807305e-02    1.178671e-06
  2.837198e-02    1.166081e-06
  2.867092e-02    1.149857e-06
  2.896985e-02    1.137677e-06
  2.926878e-02    1.118886e-06
  2.956771e-02    1.109229e-06
  2.986664e-02    1.094150e-06
  3.016557e-02    1.076741e-06
  3.046450e-02    1.078088e-06
  3.076343e-02    1.061328e-06
  3.106236e-02    1.048556e-06
  3.136129e-02    1.039176e-06
  3.166022e-02    1.034133e-06
  3.195915e-02    1.019280e-06
  3.225808e-02    1.000253e-06
  3.255701e-02    9.975678e-07
  3.285594e-02    9.746492e-07
  3.315487e-02    9.715081e-07
  3.345380e-02    9.713156e-07
  3.375273e-02    9.592926e-07
  3.405166e-02    9.544352e-07
  3.435059e-02    9.490918e-07
  3.464952e-02    9.478786e-07
  3.494845e-02    9.382839e-07
  3.524738e-02    9.298755e-07
  3.554631e-02    9.267655e-07
  3.584524e-02    9.084068e-07
  3.614417e-02    9.109061e-07
  3.644310e-02    9.136513e-07
  3.674204e-02    9.147910e-07
  3.704097e-02    8.926008e-07
  3.733990e-02    8.763258e-07
  3.763883e-02    8.808570e-07
  3.793776e-02    8.861913e-07
  3.823669e-02    8.726919e-07
  3.853562e-02    8.634707e-07
  3.883455e-02    8.603504e-07
  3.913348e-02    8.529668e-07
  3.943241e-02    8.479034e-07
  3.973134e-02    8.486086e-07
  4.003027e-02    8.420053e-07
  4.032920e-02    8.480773e-07
  4.062813e-02    8.497374e-07
  4.092706e-02    8.450781e-07
  4.122599e-02    8.358893e-07
  4.152492e-02    8.300076e-07
  4.182385e-02    8.215496e-07
  4.212278e-02    8.195228e-07
  4.242171e-02    8.172573e-07
  4.272064e-02    8.090457e-07
  4.301957e-02    8.035483e-07
  4.331850e-02    8.122700e-07
  4.361743e-02    8.214947e-07
  4.391636e-02    8.060064e-07
  4.421529e-02    8.024206e-07
  4.451423e-02    7.946089e-07
  4.481316e-02    7.942562e-07
  4.511209e-02    8.052297e-07
  4.541102e-02    8.036465e-07
  4.570995e-02    7.969401e-07
  4.600888e-02    7.878783e-07
  4.630781e-02    7.895136e-07
  4.660674e-02    7.895890e-07
  4.690567e-02    7.927731e-07
  4.720460e-02    7.946368e-07
  4.750353e-02    7.927745e-07
  4.780246e-02    7.911624e-07
  4.810139e-02    7.832880e-07
  4.840032e-02    7.754101e-07
  4.869925e-02    7.792686e-07
  4.899818e-02    7.761883e-07
  4.929711e-02    7.696677e-07
  4.959604e-02    7.638780e-07
  4.989497e-02    7.757671e-07
  5.019390e-02    7.753572e-07
  5.049283e-02    7.634835e-07
  5.079176e-02    7.743395e-07
  5.109069e-02    7.733337e-07
  5.138962e-02    7.825406e-07
  5.168855e-02    7.931020e-07
  5.198748e-02    7.953111e-07
  5.228642e-02    7.895870e-07
  5.258535e-02    7.774390e-07
  5.288428e-02    7.767490e-07
  5.318321e-02    7.844821e-07
  5.348214e-02    7.809058e-07
  5.378107e-02    7.730892e-07
  5.408000e-02    7.626733e-07
  5.437893e-02    7.721429e-07
  5.467786e-02    7.732444e-07
  5.497679e-02    7.668348e-07
  5.527572e-02    7.574802e-07
  5.557465e-02    7.639080e-07
  5.587358e-02    7.665994e-07
  5.617251e-02    7.547487e-07
  5.647144e-02    7.594490e-07
  5.677037e-02    7.668852e-07
  5.706930e-02    7.738137e-07
  5.736823e-02    7.695054e-07
  5.766716e-02    7.696132e-07
  5.796609e-02    7.666634e-07
  5.826502e-02    7.652196e-07
  5.856395e-02    7.716650e-07
  5.886288e-02    7.738850e-07
  5.916181e-02    7.666396e-07
  5.946074e-02    7.671427e-07
  5.975967e-02    7.753435e-07
  6.005861e-02    7.742785e-07
  6.035754e-02    7.749578e-07
  6.065647e-02    7.754203e-07
  6.095540e-02    7.788890e-07
  6.125433e-02    7.839996e-07
  6.155326e-02    7.787160e-07
  6.185219e-02    7.766218e-07
  6.215112e-02    7.705851e-07
  6.245005e-02    7.693353e-07
  6.274898e-02    7.764274e-07
  6.304791e-02    7.756024e-07
  6.334684e-02    7.713101e-07
  6.364577e-02    7.688337e-07
  6.394470e-02    7.747054e-07
  6.424363e-02    7.801831e-07
  6.454256e-02    7.752031e-07
  6.484149e-02    7.750742e-07
  6.514042e-02    7.792351e-07
  6.543935e-02    7.787866e-07
  6.573828e-02    7.846673e-07
  6.603721e-02    7.803935e-07
  6.633614e-02    7.834304e-07
  6.663507e-02    7.778174e-07
  6.693400e-02    7.687503e-07
  6.723293e-02    7.731186e-07
  6.753186e-02    7.812203e-07
  6.783080e-02    7.792462e-07
  6.812973e-02    7.792747e-07
  6.842866e-02    7.800032e-07
  6.872759e-02    7.835673e-07
  6.902652e-02    7.862392e-07
  6.932545e-02    7.934707e-07
  6.962438e-02    7.975954e-07
  6.992331e-02    7.875980e-07
  7.022224e-02    7.964698e-07
  7.052117e-02    7.954504e-07
  7.082010e-02    7.950105e-07
  7.111903e-02    7.953710e-07
  7.141796e-02    7.831824e-07
  7.171689e-02    7.819363e-07
  7.201582e-02    7.836161e-07
  7.231475e-02    7.836207e-07
  7.261368e-02    7.936451e-07
  7.291261e-02    7.933820e-07
  7.321154e-02    7.818978e-07
  7.351047e-02    7.863339e-07
  7.380940e-02    7.912810e-07
  7.410833e-02    7.864620e-07
  7.440726e-02    7.849932e-07
  7.470619e-02    7.927234e-07
  7.500512e-02    7.993297e-07
  7.530405e-02    7.961227e-07
  7.560299e-02    7.956972e-07
  7.590192e-02    8.009556e-07
  7.620085e-02    8.049749e-07
  7.649978e-02    7.996904e-07
  7.679871e-02    7.854314e-07
  7.709764e-02    7.878442e-07
  7.739657e-02    7.968449e-07
  7.769550e-02    7.967390e-07
  7.799443e-02    7.949491e-07
  7.829336e-02    7.969374e-07
  7.859229e-02    7.884105e-07
  7.889122e-02    7.928496e-07
  7.919015e-02    7.947958e-07
  7.948908e-02    7.963381e-07
  7.978801e-02    8.001496e-07
  8.008694e-02    7.845218e-07
  8.038587e-02    7.736339e-07
  8.068480e-02    7.821003e-07
  8.098373e-02    7.898839e-07
  8.128266e-02    7.919668e-07
  8.158159e-02    7.908710e-07
  8.188052e-02    7.917901e-07
  8.217945e-02    7.901043e-07
  8.247838e-02    7.879942e-07
  8.277731e-02    7.840089e-07
  8.307624e-02    7.967377e-07
  8.337518e-02    7.834254e-07
  8.367411e-02    7.731659e-07
  8.397304e-02    7.809649e-07
  8.427197e-02    7.799226e-07
  8.457090e-02    7.773261e-07
  8.486983e-02    7.809586e-07
  8.516876e-02    7.808146e-07
  8.546769e-02    7.809437e-07
  8.576662e-02    7.773888e-07
  8.606555e-02    7.770314e-07
  8.636448e-02    7.803520e-07
  8.666341e-02    7.766942e-07
  8.696234e-02    7.828928e-07
  8.726127e-02    7.847560e-07
  8.756020e-02    7.826274e-07
  8.785913e-02    7.796838e-07
  8.815806e-02    7.853437e-07
  8.845699e-02    7.819223e-07
  8.875592e-02    7.798092e-07
  8.905485e-02    7.749928e-07
  8.935378e-02    7.746913e-07
  8.965271e-02    7.743224e-07
  8.995164e-02    7.690073e-07
  9.025057e-02    7.666355e-07
  9.054950e-02    7.640778e-07
  9.084843e-02    7.676129e-07
  9.114737e-02    7.730438e-07
  9.144630e-02    7.756358e-07
  9.174523e-02    7.757951e-07
  9.204416e-02    7.760294e-07
  9.234309e-02    7.732971e-07
  9.264202e-02    7.643603e-07
  9.294095e-02    7.736698e-07
  9.323988e-02    7.759629e-07
  9.353881e-02    7.747636e-07
  9.383774e-02    7.732648e-07
  9.413667e-02    7.689640e-07
  9.443560e-02    7.745847e-07
  9.473453e-02    7.795706e-07
  9.503346e-02    7.748330e-07
  9.533239e-02    7.781305e-07
  9.563132e-02    7.764390e-07
  9.593025e-02    7.728555e-07
  9.622918e-02    7.726909e-07
  9.652811e-02    7.761068e-07
  9.682704e-02    7.784308e-07
  9.712597e-02    7.761573e-07
  9.742490e-02    7.742655e-07
  9.772383e-02    7.783582e-07
  9.802276e-02    7.772604e-07
  9.832169e-02    7.694411e-07
  9.862062e-02    7.682241e-07
  9.891956e-02    7.624436e-07
  9.921849e-02    7.564780e-07
  9.951742e-02    7.658156e-07
  9.981635e-02    7.698866e-07
  1.001153e-01    7.649509e-07
  1.004142e-01    7.657688e-07
  1.007131e-01    7.764480e-07
  1.010121e-01    7.753897e-07
  1.013110e-01    7.694140e-07
  1.016099e-01    7.715083e-07
  1.019089e-01    7.719452e-07
  1.022078e-01    7.663558e-07
  1.025067e-01    7.610971e-07
  1.028057e-01    7.606038e-07
  1.031046e-01    7.544134e-07
  1.034035e-01    7.569233e-07
  1.037024e-01    7.634889e-07
  1.040014e-01    7.568601e-07
  1.043003e-01    7.549446e-07
  1.045992e-01    7.565610e-07
  1.048982e-01    7.636527e-07
  1.051971e-01    7.645863e-07
  1.054960e-01    7.610892e-07
  1.057950e-01    7.480589e-07
  1.060939e-01    7.478525e-07
  1.063928e-01    7.566724e-07
  1.066917e-01    7.549805e-07
  1.069907e-01    7.530652e-07
  1.072896e-01    7.607883e-07
  1.075885e-01    7.612767e-07
  1.078875e-01    7.630234e-07
  1.081864e-01    7.673744e-07
  1.084853e-01    7.701717e-07
  1.087843e-01    7.682607e-07
  1.090832e-01    7.609804e-07
  1.093821e-01    7.576247e-07
  1.096810e-01    7.607886e-07
  1.099800e-01    7.570011e-07
  1.102789e-01    7.532135e-07
  1.105778e-01    7.456474e-07
  1.108768e-01    7.406183e-07
  1.111757e-01    7.458627e-07
  1.114746e-01    7.451281e-07
  1.117736e-01    7.447464e-07
  1.120725e-01    7.445645e-07
  1.123714e-01    7.369102e-07
  1.126704e-01    7.249878e-07
  1.129693e-01    7.203414e-07
  1.132682e-01    7.120877e-07
  1.135671e-01    6.929115e-07
  1.138661e-01    6.934542e-07
  1.141650e-01    6.948795e-07
  1.144639e-01    6.849861e-07
  1.147629e-01    6.804160e-07
  1.150618e-01    6.858993e-07
  1.153607e-01    6.851954e-07
  1.156597e-01    6.940549e-07
  1.159586e-01    6.949685e-07
  1.162575e-01    6.829379e-07
  1.165564e-01    6.788527e-07
  1.168554e-01    6.860364e-07
  1.171543e-01    6.961649e-07
  1.174532e-01    6.866476e-07
  1.177522e-01    6.764309e-07
  1.180511e-01    6.843053e-07
  1.183500e-01    6.866968e-07
  1.186490e-01    6.708325e-07
  1.189479e-01    6.682638e-07
  1.192468e-01    6.822170e-07
  1.195458e-01    6.774127e-07
  1.198447e-01    7.012424e-07
  1.201436e-01    7.158797e-07
  1.204425e-01    6.748634e-07
  1.207415e-01    6.684335e-07
  1.210404e-01    5.258162e-07
  1.213393e-01    0.000000e+00
  1.216383e-01    0.000000e+00
  1.219372e-01    0.000000e+00
  1.222361e-01    0.000000e+00
  1.225351e-01    0.000000e+00
  1.228340e-01    0.000000e+00
  1.231329e-01    0.000000e+00
  1.234318e-01    0.000000e+00
  1.237308e-01    0.000000e+00
  1.240297e-01    0.000000e+00
  1.243286e-01    0.000000e+00
  1.246276e-01    0.000000e+00
  1.249265e-01    0.000000e+00
  1.252254e-01    0.000000e+00
  1.255244e-01    0.000000e+00
  1.258233e-01    0.000000e+00
  1.261222e-01    0.000000e+00
  1.264212e-01    0.000000e+00
  1.267201e-01    0.000000e+00
  1.270190e-01    0.000000e+00
  1.273179e-01    0.000000e+00
  1.276169e-01    0.000000e+00
  1.279158e-01    0.000000e+00
  1.282147e-01    0.000000e+00
  1.285137e-01    0.000000e+00
  1.288126e-01    0.000000e+00
  1.291115e-01    0.000000e+00
  1.294105e-01    0.000000e+00
  1.297094e-01    0.000000e+00
  1.300083e-01    0.000000e+00
  1.303072e-01    0.000000e+00
  1.306062e-01    0.000000e+00
  1.309051e-01    0.000000e+00
  1.312040e-01    0.000000e+00
  1.315030e-01    0.000000e+00
  1.318019e-01    0.000000e+00
  1.321008e-01    0.000000e+00
  1.323998e-01    0.000000e+00
  1.326987e-01    0.000000e+00
  1.329976e-01    0.000000e+00
  1.332965e-01    0.000000e+00
  1.335955e-01    0.000000e+00
  1.338944e-01    0.000000e+00
  1.341933e-01    0.000000e+00
  1.344923e-01    0.000000e+00
  1.347912e-01    0.000000e+00
  1.350901e-01    0.000000e+00
  1.353891e-01    0.000000e+00
  1.356880e-01    0.000000e+00
  1.359869e-01    0.000000e+00
  1.362859e-01    0.000000e+00
  1.365848e-01    0.000000e+00
  1.368837e-01    0.000000e+00
  1.371826e-01    0.000000e+00
  1.374816e-01    0.000000e+00
  1.377805e-01    0.000000e+00
  1.380794e-01    0.000000e+00
  1.383784e-01    0.000000e+00
  1.386773e-01    0.000000e+00
  1.389762e-01    0.000000e+00
  1.392752e-01    0.000000e+00
  1.395741e-01    0.000000e+00
  1.398730e-01    0.000000e+00
  1.401719e-01    0.000000e+00
  1.404709e-01    0.000000e+00
  1.407698e-01    0.000000e+00
  1.410687e-01    0.000000e+00
  1.413677e-01    0.000000e+00
  1.416666e-01    0.000000e+00
  1.419655e-01    0.000000e+00
  1.422645e-01    0.000000e+00
  1.425634e-01    0.000000e+00
  1.428623e-01    0.000000e+00
  1.431613e-01    0.000000e+00
  1.434602e-01    0.000000e+00
  1.437591e-01    0.000000e+00
  1.440580e-01    0.000000e+00
  1.443570e-01    0.000000e+00
  1.446559e-01    0.000000e+00
  1.449548e-01    0.000000e+00
  1.452538e-01    0.000000e+00
  1.455527e-01    0.000000e+00
  1.458516e-01    0.000000e+00
  1.461506e-01    0.000000e+00
  1.464495e-01    0.000000e+00
  1.467484e-01    0.000000e+00
  1.470473e-01    0.000000e+00
  1.473463e-01    0.000000e+00
  1.476452e-01    0.000000e+00
  1.479441e-01    0.000000e+00
  1.482431e-01    0.000000e+00
  1.485420e-01    0.000000e+00
  1.488409e-01    0.000000e+00
  1.491399e-01    0.000000e+00
  1.494388e-01    0.000000e+00
  1.497377e-01    0.000000e+00
  1.500367e-01    0.000000e+00
  1.503356e-01    0.000000e+00
  1.506345e-01    0.000000e+00
  1.509334e-01    0.000000e+00
  1.512324e-01    0.000000e+00
  1.515313e-01    0.000000e+00
  1.518302e-01    0.000000e+00
  1.521292e-01    0.000000e+00
  1.524281e-01    0.000000e+00
  1.527270e-01    0.000000e+00
  1.530260e-01    0.000000e+00
  1.533249e-01    0.000000e+00
  1.536238e-01    0.000000e+00
