# == pyFAI calibration ==
# Distance Sample to Detector: 2.266 m
# PONI: 5.659e-02, 4.293e-02 m
# Rotations: 0.000000 0.000000 0.000000 rad
# 
# == Fit2d calibration ==
# Distance Sample-beamCenter: 2266.000 mm
# Center: x=249.594, y=329.012 pix
# Tilt: 0.000 deg  TiltPlanRot: 0.000 deg
# 
# Detector Pilatus 300k	 PixelSize= 1.720e-04, 1.720e-04 m
#    Detector has a mask: True 
#    Detector has a dark current: False 
#    detector has a flat field: False 
# 
# Wavelength: 1.27818e-10 m
# Mask applied: user provided
# Dark current applied: False
# Flat field applied: False
# Polarization factor: None
# Normalization factor: 4763557.8
# --> AL_F127_220226_a6a92155-79e4-4252-ad1b-c821d09bfebb_0_r1d.csv
#        q_A^-1             I 
  4.457554e-03    5.017316e-03
  4.756484e-03    3.928842e-03
  5.055415e-03    2.795553e-03
  5.354345e-03    1.951694e-03
  5.653276e-03    1.495794e-03
  5.952206e-03    2.440600e-03
  6.251136e-03    2.227829e-03
  6.550067e-03    1.933456e-03
  6.848997e-03    1.643436e-03
  7.147927e-03    1.387600e-03
  7.446858e-03    1.183643e-03
  7.745788e-03    1.014949e-03
  8.044719e-03    8.737162e-04
  8.343649e-03    7.611792e-04
  8.642579e-03    6.644828e-04
  8.941510e-03    5.861036e-04
  9.240440e-03    5.198861e-04
  9.539371e-03    4.607828e-04
  9.838301e-03    4.100923e-04
  1.013723e-02    3.681864e-04
  1.043616e-02    3.317287e-04
  1.073509e-02    2.977522e-04
  1.103402e-02    2.690289e-04
  1.133295e-02    2.440425e-04
  1.163188e-02    2.223153e-04
  1.193081e-02    2.039618e-04
  1.222974e-02    1.868163e-04
  1.252867e-02    1.717973e-04
  1.282760e-02    1.586916e-04
  1.312654e-02    1.463276e-04
  1.342547e-02    1.354710e-04
  1.372440e-02    1.253944e-04
  1.402333e-02    1.169144e-04
  1.432226e-02    1.087709e-04
  1.462119e-02    1.015439e-04
  1.492012e-02    9.559469e-05
  1.521905e-02    8.993553e-05
  1.551798e-02    8.463971e-05
  1.581691e-02    7.972740e-05
  1.611584e-02    7.502484e-05
  1.641477e-02    7.101072e-05
  1.671370e-02    6.725928e-05
  1.701263e-02    6.414896e-05
  1.731156e-02    6.132233e-05
  1.761049e-02    5.847378e-05
  1.790942e-02    5.595911e-05
  1.820835e-02    5.346713e-05
  1.850728e-02    5.136342e-05
  1.880621e-02    4.953458e-05
  1.910514e-02    4.793264e-05
  1.940407e-02    4.652673e-05
  1.970300e-02    4.509319e-05
  2.000193e-02    4.402047e-05
  2.030086e-02    4.280658e-05
  2.059979e-02    4.159120e-05
  2.089873e-02    4.068680e-05
  2.119766e-02    4.010987e-05
  2.149659e-02    3.948317e-05
  2.179552e-02    3.888837e-05
  2.209445e-02    3.821150e-05
  2.239338e-02    3.788791e-05
  2.269231e-02    3.738725e-05
  2.299124e-02    3.715829e-05
  2.329017e-02    3.709417e-05
  2.358910e-02    3.687834e-05
  2.388803e-02    3.665497e-05
  2.418696e-02    3.635167e-05
  2.448589e-02    3.604302e-05
  2.478482e-02    3.596782e-05
  2.508375e-02    3.585797e-05
  2.538268e-02    3.566072e-05
  2.568161e-02    3.534230e-05
  2.598054e-02    3.474234e-05
  2.627947e-02    3.437974e-05
  2.657840e-02    3.386843e-05
  2.687733e-02    3.321256e-05
  2.717626e-02    3.261729e-05
  2.747519e-02    3.226891e-05
  2.777412e-02    3.168009e-05
  2.807305e-02    3.092624e-05
  2.837198e-02    3.009968e-05
  2.867092e-02    2.950097e-05
  2.896985e-02    2.886516e-05
  2.926878e-02    2.818993e-05
  2.956771e-02    2.756770e-05
  2.986664e-02    2.686139e-05
  3.016557e-02    2.639752e-05
  3.046450e-02    2.574364e-05
  3.076343e-02    2.520987e-05
  3.106236e-02    2.477434e-05
  3.136129e-02    2.424921e-05
  3.166022e-02    2.394031e-05
  3.195915e-02    2.340716e-05
  3.225808e-02    2.289403e-05
  3.255701e-02    2.251943e-05
  3.285594e-02    2.214463e-05
  3.315487e-02    2.179547e-05
  3.345380e-02    2.140814e-05
  3.375273e-02    2.105013e-05
  3.405166e-02    2.075397e-05
  3.435059e-02    2.044982e-05
  3.464952e-02    2.026328e-05
  3.494845e-02    1.994468e-05
  3.524738e-02    1.963010e-05
  3.554631e-02    1.945639e-05
  3.584524e-02    1.926262e-05
  3.614417e-02    1.903948e-05
  3.644310e-02    1.884465e-05
  3.674204e-02    1.863444e-05
  3.704097e-02    1.845631e-05
  3.733990e-02    1.828427e-05
  3.763883e-02    1.820611e-05
  3.793776e-02    1.806813e-05
  3.823669e-02    1.787340e-05
  3.853562e-02    1.767952e-05
  3.883455e-02    1.758839e-05
  3.913348e-02    1.747228e-05
  3.943241e-02    1.730446e-05
  3.973134e-02    1.718563e-05
  4.003027e-02    1.709315e-05
  4.032920e-02    1.691492e-05
  4.062813e-02    1.685129e-05
  4.092706e-02    1.678910e-05
  4.122599e-02    1.677282e-05
  4.152492e-02    1.668856e-05
  4.182385e-02    1.660415e-05
  4.212278e-02    1.651215e-05
  4.242171e-02    1.640667e-05
  4.272064e-02    1.639342e-05
  4.301957e-02    1.630583e-05
  4.331850e-02    1.621588e-05
  4.361743e-02    1.622623e-05
  4.391636e-02    1.618769e-05
  4.421529e-02    1.610626e-05
  4.451423e-02    1.602905e-05
  4.481316e-02    1.599859e-05
  4.511209e-02    1.592541e-05
  4.541102e-02    1.594237e-05
  4.570995e-02    1.593516e-05
  4.600888e-02    1.584729e-05
  4.630781e-02    1.575901e-05
  4.660674e-02    1.576158e-05
  4.690567e-02    1.570391e-05
  4.720460e-02    1.569048e-05
  4.750353e-02    1.566389e-05
  4.780246e-02    1.561260e-05
  4.810139e-02    1.554007e-05
  4.840032e-02    1.554130e-05
  4.869925e-02    1.540671e-05
  4.899818e-02    1.540575e-05
  4.929711e-02    1.544729e-05
  4.959604e-02    1.542904e-05
  4.989497e-02    1.535810e-05
  5.019390e-02    1.523055e-05
  5.049283e-02    1.517225e-05
  5.079176e-02    1.519888e-05
  5.109069e-02    1.527379e-05
  5.138962e-02    1.538219e-05
  5.168855e-02    1.560130e-05
  5.198748e-02    1.578059e-05
  5.228642e-02    1.561295e-05
  5.258535e-02    1.517563e-05
  5.288428e-02    1.493682e-05
  5.318321e-02    1.484970e-05
  5.348214e-02    1.476961e-05
  5.378107e-02    1.473210e-05
  5.408000e-02    1.472950e-05
  5.437893e-02    1.467021e-05
  5.467786e-02    1.466309e-05
  5.497679e-02    1.457594e-05
  5.527572e-02    1.449030e-05
  5.557465e-02    1.453164e-05
  5.587358e-02    1.460167e-05
  5.617251e-02    1.457320e-05
  5.647144e-02    1.449809e-05
  5.677037e-02    1.446247e-05
  5.706930e-02    1.440643e-05
  5.736823e-02    1.441621e-05
  5.766716e-02    1.439611e-05
  5.796609e-02    1.439197e-05
  5.826502e-02    1.437129e-05
  5.856395e-02    1.427812e-05
  5.886288e-02    1.436261e-05
  5.916181e-02    1.431757e-05
  5.946074e-02    1.435173e-05
  5.975967e-02    1.434373e-05
  6.005861e-02    1.425480e-05
  6.035754e-02    1.430570e-05
  6.065647e-02    1.431603e-05
  6.095540e-02    1.442264e-05
  6.125433e-02    1.462117e-05
  6.155326e-02    1.465213e-05
  6.185219e-02    1.454888e-05
  6.215112e-02    1.441743e-05
  6.245005e-02    1.433533e-05
  6.274898e-02    1.428945e-05
  6.304791e-02    1.431021e-05
  6.334684e-02    1.436815e-05
  6.364577e-02    1.434914e-05
  6.394470e-02    1.425609e-05
  6.424363e-02    1.433228e-05
  6.454256e-02    1.441593e-05
  6.484149e-02    1.435632e-05
  6.514042e-02    1.434066e-05
  6.543935e-02    1.440409e-05
  6.573828e-02    1.443279e-05
  6.603721e-02    1.440693e-05
  6.633614e-02    1.443170e-05
  6.663507e-02    1.446088e-05
  6.693400e-02    1.447123e-05
  6.723293e-02    1.443007e-05
  6.753186e-02    1.448124e-05
  6.783080e-02    1.443965e-05
  6.812973e-02    1.449834e-05
  6.842866e-02    1.446907e-05
  6.872759e-02    1.447089e-05
  6.902652e-02    1.446309e-05
  6.932545e-02    1.447830e-05
  6.962438e-02    1.454446e-05
  6.992331e-02    1.450693e-05
  7.022224e-02    1.447408e-05
  7.052117e-02    1.451959e-05
  7.082010e-02    1.455652e-05
  7.111903e-02    1.456037e-05
  7.141796e-02    1.449518e-05
  7.171689e-02    1.449011e-05
  7.201582e-02    1.456396e-05
  7.231475e-02    1.460698e-05
  7.261368e-02    1.457161e-05
  7.291261e-02    1.466215e-05
  7.321154e-02    1.462400e-05
  7.351047e-02    1.457212e-05
  7.380940e-02    1.459993e-05
  7.410833e-02    1.459171e-05
  7.440726e-02    1.461709e-05
  7.470619e-02    1.464890e-05
  7.500512e-02    1.457716e-05
  7.530405e-02    1.455791e-05
  7.560299e-02    1.451755e-05
  7.590192e-02    1.451008e-05
  7.620085e-02    1.454966e-05
  7.649978e-02    1.457836e-05
  7.679871e-02    1.452580e-05
  7.709764e-02    1.454486e-05
  7.739657e-02    1.456163e-05
  7.769550e-02    1.451045e-05
  7.799443e-02    1.447595e-05
  7.829336e-02    1.449925e-05
  7.859229e-02    1.448652e-05
  7.889122e-02    1.449269e-05
  7.919015e-02    1.453502e-05
  7.948908e-02    1.454616e-05
  7.978801e-02    1.446107e-05
  8.008694e-02    1.438475e-05
  8.038587e-02    1.441862e-05
  8.068480e-02    1.444066e-05
  8.098373e-02    1.443422e-05
  8.128266e-02    1.438109e-05
  8.158159e-02    1.432878e-05
  8.188052e-02    1.431012e-05
  8.217945e-02    1.432169e-05
  8.247838e-02    1.435656e-05
  8.277731e-02    1.434119e-05
  8.307624e-02    1.429034e-05
  8.337518e-02    1.428074e-05
  8.367411e-02    1.427019e-05
  8.397304e-02    1.424515e-05
  8.427197e-02    1.421508e-05
  8.457090e-02    1.416356e-05
  8.486983e-02    1.415190e-05
  8.516876e-02    1.414894e-05
  8.546769e-02    1.413613e-05
  8.576662e-02    1.413452e-05
  8.606555e-02    1.408575e-05
  8.636448e-02    1.406319e-05
  8.666341e-02    1.412362e-05
  8.696234e-02    1.409237e-05
  8.726127e-02    1.399947e-05
  8.756020e-02    1.393900e-05
  8.785913e-02    1.390623e-05
  8.815806e-02    1.390213e-05
  8.845699e-02    1.388935e-05
  8.875592e-02    1.387086e-05
  8.905485e-02    1.384270e-05
  8.935378e-02    1.384792e-05
  8.965271e-02    1.383118e-05
  8.995164e-02    1.379719e-05
  9.025057e-02    1.375967e-05
  9.054950e-02    1.375985e-05
  9.084843e-02    1.372463e-05
  9.114737e-02    1.371228e-05
  9.144630e-02    1.363128e-05
  9.174523e-02    1.358953e-05
  9.204416e-02    1.356222e-05
  9.234309e-02    1.359577e-05
  9.264202e-02    1.360399e-05
  9.294095e-02    1.354905e-05
  9.323988e-02    1.348203e-05
  9.353881e-02    1.343628e-05
  9.383774e-02    1.348404e-05
  9.413667e-02    1.347157e-05
  9.443560e-02    1.343309e-05
  9.473453e-02    1.336394e-05
  9.503346e-02    1.335038e-05
  9.533239e-02    1.336982e-05
  9.563132e-02    1.335515e-05
  9.593025e-02    1.335871e-05
  9.622918e-02    1.332570e-05
  9.652811e-02    1.335178e-05
  9.682704e-02    1.337927e-05
  9.712597e-02    1.338671e-05
  9.742490e-02    1.341184e-05
  9.772383e-02    1.331033e-05
  9.802276e-02    1.321158e-05
  9.832169e-02    1.310596e-05
  9.862062e-02    1.303583e-05
  9.891956e-02    1.300351e-05
  9.921849e-02    1.301091e-05
  9.951742e-02    1.301854e-05
  9.981635e-02    1.295259e-05
  1.001153e-01    1.298865e-05
  1.004142e-01    1.295016e-05
  1.007131e-01    1.295274e-05
  1.010121e-01    1.296376e-05
  1.013110e-01    1.291962e-05
  1.016099e-01    1.286540e-05
  1.019089e-01    1.278296e-05
  1.022078e-01    1.283988e-05
  1.025067e-01    1.283607e-05
  1.028057e-01    1.276274e-05
  1.031046e-01    1.278039e-05
  1.034035e-01    1.270764e-05
  1.037024e-01    1.270107e-05
  1.040014e-01    1.272822e-05
  1.043003e-01    1.264437e-05
  1.045992e-01    1.264456e-05
  1.048982e-01    1.257405e-05
  1.051971e-01    1.254739e-05
  1.054960e-01    1.253192e-05
  1.057950e-01    1.254862e-05
  1.060939e-01    1.250740e-05
  1.063928e-01    1.251102e-05
  1.066917e-01    1.254870e-05
  1.069907e-01    1.250583e-05
  1.072896e-01    1.248748e-05
  1.075885e-01    1.246429e-05
  1.078875e-01    1.246390e-05
  1.081864e-01    1.242237e-05
  1.084853e-01    1.239198e-05
  1.087843e-01    1.241092e-05
  1.090832e-01    1.238618e-05
  1.093821e-01    1.238991e-05
  1.096810e-01    1.235157e-05
  1.099800e-01    1.231554e-05
  1.102789e-01    1.227159e-05
  1.105778e-01    1.218368e-05
  1.108768e-01    1.205738e-05
  1.111757e-01    1.202736e-05
  1.114746e-01    1.205589e-05
  1.117736e-01    1.212977e-05
  1.120725e-01    1.212747e-05
  1.123714e-01    1.204152e-05
  1.126704e-01    1.201875e-05
  1.129693e-01    1.187693e-05
  1.132682e-01    1.170460e-05
  1.135671e-01    1.168895e-05
  1.138661e-01    1.172058e-05
  1.141650e-01    1.182165e-05
  1.144639e-01    1.168698e-05
  1.147629e-01    1.147890e-05
  1.150618e-01    1.144401e-05
  1.153607e-01    1.152151e-05
  1.156597e-01    1.149704e-05
  1.159586e-01    1.133774e-05
  1.162575e-01    1.141881e-05
  1.165564e-01    1.149011e-05
  1.168554e-01    1.154939e-05
  1.171543e-01    1.166163e-05
  1.174532e-01    1.164380e-05
  1.177522e-01    1.155044e-05
  1.180511e-01    1.127772e-05
  1.183500e-01    1.122727e-05
  1.186490e-01    1.130870e-05
  1.189479e-01    1.142490e-05
  1.192468e-01    1.143627e-05
  1.195458e-01    1.141340e-05
  1.198447e-01    1.148548e-05
  1.201436e-01    1.138536e-05
  1.204425e-01    1.105939e-05
  1.207415e-01    1.085117e-05
  1.210404e-01    9.875512e-06
  1.213393e-01    0.000000e+00
  1.216383e-01    0.000000e+00
  1.219372e-01    0.000000e+00
  1.222361e-01    0.000000e+00
  1.225351e-01    0.000000e+00
  1.228340e-01    0.000000e+00
  1.231329e-01    0.000000e+00
  1.234318e-01    0.000000e+00
  1.237308e-01    0.000000e+00
  1.240297e-01    0.000000e+00
  1.243286e-01    0.000000e+00
  1.246276e-01    0.000000e+00
  1.249265e-01    0.000000e+00
  1.252254e-01    0.000000e+00
  1.255244e-01    0.000000e+00
  1.258233e-01    0.000000e+00
  1.261222e-01    0.000000e+00
  1.264212e-01    0.000000e+00
  1.267201e-01    0.000000e+00
  1.270190e-01    0.000000e+00
  1.273179e-01    0.000000e+00
  1.276169e-01    0.000000e+00
  1.279158e-01    0.000000e+00
  1.282147e-01    0.000000e+00
  1.285137e-01    0.000000e+00
  1.288126e-01    0.000000e+00
  1.291115e-01    0.000000e+00
  1.294105e-01    0.000000e+00
  1.297094e-01    0.000000e+00
  1.300083e-01    0.000000e+00
  1.303072e-01    0.000000e+00
  1.306062e-01    0.000000e+00
  1.309051e-01    0.000000e+00
  1.312040e-01    0.000000e+00
  1.315030e-01    0.000000e+00
  1.318019e-01    0.000000e+00
  1.321008e-01    0.000000e+00
  1.323998e-01    0.000000e+00
  1.326987e-01    0.000000e+00
  1.329976e-01    0.000000e+00
  1.332965e-01    0.000000e+00
  1.335955e-01    0.000000e+00
  1.338944e-01    0.000000e+00
  1.341933e-01    0.000000e+00
  1.344923e-01    0.000000e+00
  1.347912e-01    0.000000e+00
  1.350901e-01    0.000000e+00
  1.353891e-01    0.000000e+00
  1.356880e-01    0.000000e+00
  1.359869e-01    0.000000e+00
  1.362859e-01    0.000000e+00
  1.365848e-01    0.000000e+00
  1.368837e-01    0.000000e+00
  1.371826e-01    0.000000e+00
  1.374816e-01    0.000000e+00
  1.377805e-01    0.000000e+00
  1.380794e-01    0.000000e+00
  1.383784e-01    0.000000e+00
  1.386773e-01    0.000000e+00
  1.389762e-01    0.000000e+00
  1.392752e-01    0.000000e+00
  1.395741e-01    0.000000e+00
  1.398730e-01    0.000000e+00
  1.401719e-01    0.000000e+00
  1.404709e-01    0.000000e+00
  1.407698e-01    0.000000e+00
  1.410687e-01    0.000000e+00
  1.413677e-01    0.000000e+00
  1.416666e-01    0.000000e+00
  1.419655e-01    0.000000e+00
  1.422645e-01    0.000000e+00
  1.425634e-01    0.000000e+00
  1.428623e-01    0.000000e+00
  1.431613e-01    0.000000e+00
  1.434602e-01    0.000000e+00
  1.437591e-01    0.000000e+00
  1.440580e-01    0.000000e+00
  1.443570e-01    0.000000e+00
  1.446559e-01    0.000000e+00
  1.449548e-01    0.000000e+00
  1.452538e-01    0.000000e+00
  1.455527e-01    0.000000e+00
  1.458516e-01    0.000000e+00
  1.461506e-01    0.000000e+00
  1.464495e-01    0.000000e+00
  1.467484e-01    0.000000e+00
  1.470473e-01    0.000000e+00
  1.473463e-01    0.000000e+00
  1.476452e-01    0.000000e+00
  1.479441e-01    0.000000e+00
  1.482431e-01    0.000000e+00
  1.485420e-01    0.000000e+00
  1.488409e-01    0.000000e+00
  1.491399e-01    0.000000e+00
  1.494388e-01    0.000000e+00
  1.497377e-01    0.000000e+00
  1.500367e-01    0.000000e+00
  1.503356e-01    0.000000e+00
  1.506345e-01    0.000000e+00
  1.509334e-01    0.000000e+00
  1.512324e-01    0.000000e+00
  1.515313e-01    0.000000e+00
  1.518302e-01    0.000000e+00
  1.521292e-01    0.000000e+00
  1.524281e-01    0.000000e+00
  1.527270e-01    0.000000e+00
  1.530260e-01    0.000000e+00
  1.533249e-01    0.000000e+00
  1.536238e-01    0.000000e+00
