# == pyFAI calibration ==
# Distance Sample to Detector: 2.266 m
# PONI: 5.659e-02, 4.293e-02 m
# Rotations: 0.000000 0.000000 0.000000 rad
# 
# == Fit2d calibration ==
# Distance Sample-beamCenter: 2266.000 mm
# Center: x=249.594, y=329.012 pix
# Tilt: 0.000 deg  TiltPlanRot: 0.000 deg
# 
# Detector Pilatus 300k	 PixelSize= 1.720e-04, 1.720e-04 m
#    Detector has a mask: True 
#    Detector has a dark current: False 
#    detector has a flat field: False 
# 
# Wavelength: 1.27818e-10 m
# Mask applied: user provided
# Dark current applied: False
# Flat field applied: False
# Polarization factor: None
# Normalization factor: 1785668.6
# --> AL_F127_220301_00482563-006d-4c5d-8eba-a98a032fecea_2_r1d.csv
#        q_A^-1             I 
  4.457554e-03    2.266974e-03
  4.756484e-03    1.807748e-03
  5.055415e-03    1.264147e-03
  5.354345e-03    8.363962e-04
  5.653276e-03    6.092158e-04
  5.952206e-03    9.285624e-04
  6.251136e-03    8.507639e-04
  6.550067e-03    7.383057e-04
  6.848997e-03    6.290318e-04
  7.147927e-03    5.352718e-04
  7.446858e-03    4.551626e-04
  7.745788e-03    3.903351e-04
  8.044719e-03    3.371123e-04
  8.343649e-03    2.938851e-04
  8.642579e-03    2.584409e-04
  8.941510e-03    2.287196e-04
  9.240440e-03    2.021902e-04
  9.539371e-03    1.784587e-04
  9.838301e-03    1.595431e-04
  1.013723e-02    1.444192e-04
  1.043616e-02    1.314041e-04
  1.073509e-02    1.190028e-04
  1.103402e-02    1.085768e-04
  1.133295e-02    9.915150e-05
  1.163188e-02    9.093143e-05
  1.193081e-02    8.352209e-05
  1.222974e-02    7.668584e-05
  1.252867e-02    7.169481e-05
  1.282760e-02    6.657501e-05
  1.312654e-02    6.177189e-05
  1.342547e-02    5.818237e-05
  1.372440e-02    5.480737e-05
  1.402333e-02    5.197907e-05
  1.432226e-02    4.863213e-05
  1.462119e-02    4.554166e-05
  1.492012e-02    4.342762e-05
  1.521905e-02    4.167359e-05
  1.551798e-02    3.998011e-05
  1.581691e-02    3.818101e-05
  1.611584e-02    3.676984e-05
  1.641477e-02    3.566442e-05
  1.671370e-02    3.437055e-05
  1.701263e-02    3.344795e-05
  1.731156e-02    3.318731e-05
  1.761049e-02    3.247175e-05
  1.790942e-02    3.190558e-05
  1.820835e-02    3.174375e-05
  1.850728e-02    3.169901e-05
  1.880621e-02    3.155918e-05
  1.910514e-02    3.158051e-05
  1.940407e-02    3.200534e-05
  1.970300e-02    3.215797e-05
  2.000193e-02    3.254798e-05
  2.030086e-02    3.343226e-05
  2.059979e-02    3.421141e-05
  2.089873e-02    3.475715e-05
  2.119766e-02    3.563389e-05
  2.149659e-02    3.685454e-05
  2.179552e-02    3.817015e-05
  2.209445e-02    3.939257e-05
  2.239338e-02    4.088571e-05
  2.269231e-02    4.200350e-05
  2.299124e-02    4.307118e-05
  2.329017e-02    4.457907e-05
  2.358910e-02    4.527591e-05
  2.388803e-02    4.631669e-05
  2.418696e-02    4.726143e-05
  2.448589e-02    4.795898e-05
  2.478482e-02    4.829575e-05
  2.508375e-02    4.879606e-05
  2.538268e-02    4.902029e-05
  2.568161e-02    4.907214e-05
  2.598054e-02    4.882346e-05
  2.627947e-02    4.856889e-05
  2.657840e-02    4.834482e-05
  2.687733e-02    4.811393e-05
  2.717626e-02    4.736434e-05
  2.747519e-02    4.638075e-05
  2.777412e-02    4.567306e-05
  2.807305e-02    4.497205e-05
  2.837198e-02    4.431866e-05
  2.867092e-02    4.335965e-05
  2.896985e-02    4.227159e-05
  2.926878e-02    4.133495e-05
  2.956771e-02    4.055192e-05
  2.986664e-02    3.971092e-05
  3.016557e-02    3.893876e-05
  3.046450e-02    3.814786e-05
  3.076343e-02    3.740450e-05
  3.106236e-02    3.659178e-05
  3.136129e-02    3.602367e-05
  3.166022e-02    3.564110e-05
  3.195915e-02    3.512143e-05
  3.225808e-02    3.447652e-05
  3.255701e-02    3.412025e-05
  3.285594e-02    3.384465e-05
  3.315487e-02    3.346235e-05
  3.345380e-02    3.287046e-05
  3.375273e-02    3.272640e-05
  3.405166e-02    3.233896e-05
  3.435059e-02    3.223168e-05
  3.464952e-02    3.187282e-05
  3.494845e-02    3.176038e-05
  3.524738e-02    3.152607e-05
  3.554631e-02    3.129400e-05
  3.584524e-02    3.117524e-05
  3.614417e-02    3.103713e-05
  3.644310e-02    3.083046e-05
  3.674204e-02    3.080745e-05
  3.704097e-02    3.085649e-05
  3.733990e-02    3.051835e-05
  3.763883e-02    3.051619e-05
  3.793776e-02    3.055706e-05
  3.823669e-02    3.055604e-05
  3.853562e-02    3.056588e-05
  3.883455e-02    3.063603e-05
  3.913348e-02    3.057312e-05
  3.943241e-02    3.042978e-05
  3.973134e-02    3.052783e-05
  4.003027e-02    3.066153e-05
  4.032920e-02    3.057115e-05
  4.062813e-02    3.052970e-05
  4.092706e-02    3.080978e-05
  4.122599e-02    3.075619e-05
  4.152492e-02    3.073178e-05
  4.182385e-02    3.085899e-05
  4.212278e-02    3.078457e-05
  4.242171e-02    3.087069e-05
  4.272064e-02    3.093879e-05
  4.301957e-02    3.072769e-05
  4.331850e-02    3.051773e-05
  4.361743e-02    3.074406e-05
  4.391636e-02    3.061198e-05
  4.421529e-02    3.065185e-05
  4.451423e-02    3.064266e-05
  4.481316e-02    3.045686e-05
  4.511209e-02    3.005840e-05
  4.541102e-02    3.001987e-05
  4.570995e-02    2.998665e-05
  4.600888e-02    2.985814e-05
  4.630781e-02    2.975730e-05
  4.660674e-02    2.958969e-05
  4.690567e-02    2.936616e-05
  4.720460e-02    2.898657e-05
  4.750353e-02    2.897994e-05
  4.780246e-02    2.860059e-05
  4.810139e-02    2.827513e-05
  4.840032e-02    2.799729e-05
  4.869925e-02    2.754279e-05
  4.899818e-02    2.715601e-05
  4.929711e-02    2.706793e-05
  4.959604e-02    2.656278e-05
  4.989497e-02    2.634035e-05
  5.019390e-02    2.577661e-05
  5.049283e-02    2.534127e-05
  5.079176e-02    2.505837e-05
  5.109069e-02    2.474623e-05
  5.138962e-02    2.450187e-05
  5.168855e-02    2.406852e-05
  5.198748e-02    2.373472e-05
  5.228642e-02    2.329298e-05
  5.258535e-02    2.283607e-05
  5.288428e-02    2.237763e-05
  5.318321e-02    2.178596e-05
  5.348214e-02    2.138208e-05
  5.378107e-02    2.110792e-05
  5.408000e-02    2.067938e-05
  5.437893e-02    2.024843e-05
  5.467786e-02    1.991153e-05
  5.497679e-02    1.953361e-05
  5.527572e-02    1.920550e-05
  5.557465e-02    1.899107e-05
  5.587358e-02    1.868993e-05
  5.617251e-02    1.827026e-05
  5.647144e-02    1.792012e-05
  5.677037e-02    1.775662e-05
  5.706930e-02    1.742620e-05
  5.736823e-02    1.709368e-05
  5.766716e-02    1.679847e-05
  5.796609e-02    1.653143e-05
  5.826502e-02    1.618924e-05
  5.856395e-02    1.586807e-05
  5.886288e-02    1.566498e-05
  5.916181e-02    1.554360e-05
  5.946074e-02    1.534205e-05
  5.975967e-02    1.508094e-05
  6.005861e-02    1.481369e-05
  6.035754e-02    1.460042e-05
  6.065647e-02    1.426114e-05
  6.095540e-02    1.411073e-05
  6.125433e-02    1.406824e-05
  6.155326e-02    1.389984e-05
  6.185219e-02    1.365539e-05
  6.215112e-02    1.345313e-05
  6.245005e-02    1.321166e-05
  6.274898e-02    1.299434e-05
  6.304791e-02    1.285336e-05
  6.334684e-02    1.278670e-05
  6.364577e-02    1.256154e-05
  6.394470e-02    1.244777e-05
  6.424363e-02    1.227825e-05
  6.454256e-02    1.211195e-05
  6.484149e-02    1.189166e-05
  6.514042e-02    1.189910e-05
  6.543935e-02    1.172481e-05
  6.573828e-02    1.155790e-05
  6.603721e-02    1.143178e-05
  6.633614e-02    1.132360e-05
  6.663507e-02    1.120140e-05
  6.693400e-02    1.116307e-05
  6.723293e-02    1.101839e-05
  6.753186e-02    1.094168e-05
  6.783080e-02    1.083161e-05
  6.812973e-02    1.087219e-05
  6.842866e-02    1.067139e-05
  6.872759e-02    1.061139e-05
  6.902652e-02    1.041409e-05
  6.932545e-02    1.033445e-05
  6.962438e-02    1.021066e-05
  6.992331e-02    1.009991e-05
  7.022224e-02    1.006785e-05
  7.052117e-02    9.991587e-06
  7.082010e-02    9.891714e-06
  7.111903e-02    9.838493e-06
  7.141796e-02    9.707159e-06
  7.171689e-02    9.670990e-06
  7.201582e-02    9.643458e-06
  7.231475e-02    9.571210e-06
  7.261368e-02    9.471595e-06
  7.291261e-02    9.402734e-06
  7.321154e-02    9.287058e-06
  7.351047e-02    9.206929e-06
  7.380940e-02    9.178778e-06
  7.410833e-02    9.149247e-06
  7.440726e-02    9.111529e-06
  7.470619e-02    8.986070e-06
  7.500512e-02    8.966360e-06
  7.530405e-02    9.015478e-06
  7.560299e-02    8.903133e-06
  7.590192e-02    8.855901e-06
  7.620085e-02    8.878335e-06
  7.649978e-02    8.821792e-06
  7.679871e-02    8.684036e-06
  7.709764e-02    8.621034e-06
  7.739657e-02    8.624050e-06
  7.769550e-02    8.617982e-06
  7.799443e-02    8.597803e-06
  7.829336e-02    8.479930e-06
  7.859229e-02    8.542177e-06
  7.889122e-02    8.487766e-06
  7.919015e-02    8.427437e-06
  7.948908e-02    8.364740e-06
  7.978801e-02    8.360071e-06
  8.008694e-02    8.378026e-06
  8.038587e-02    8.367142e-06
  8.068480e-02    8.357175e-06
  8.098373e-02    8.323445e-06
  8.128266e-02    8.218128e-06
  8.158159e-02    8.260213e-06
  8.188052e-02    8.197841e-06
  8.217945e-02    8.137356e-06
  8.247838e-02    8.099526e-06
  8.277731e-02    8.149503e-06
  8.307624e-02    8.261130e-06
  8.337518e-02    8.218590e-06
  8.367411e-02    8.138891e-06
  8.397304e-02    7.978516e-06
  8.427197e-02    8.026715e-06
  8.457090e-02    8.127094e-06
  8.486983e-02    8.117877e-06
  8.516876e-02    8.069393e-06
  8.546769e-02    8.070551e-06
  8.576662e-02    8.011016e-06
  8.606555e-02    8.039987e-06
  8.636448e-02    8.036948e-06
  8.666341e-02    8.043461e-06
  8.696234e-02    7.995103e-06
  8.726127e-02    8.020512e-06
  8.756020e-02    7.965304e-06
  8.785913e-02    7.862787e-06
  8.815806e-02    7.845178e-06
  8.845699e-02    7.865142e-06
  8.875592e-02    7.928191e-06
  8.905485e-02    7.982243e-06
  8.935378e-02    7.965095e-06
  8.965271e-02    7.942404e-06
  8.995164e-02    7.904601e-06
  9.025057e-02    7.842954e-06
  9.054950e-02    7.948383e-06
  9.084843e-02    7.940363e-06
  9.114737e-02    7.841303e-06
  9.144630e-02    7.899184e-06
  9.174523e-02    7.865990e-06
  9.204416e-02    7.844552e-06
  9.234309e-02    7.850555e-06
  9.264202e-02    7.811396e-06
  9.294095e-02    7.860124e-06
  9.323988e-02    7.882705e-06
  9.353881e-02    7.866776e-06
  9.383774e-02    7.847442e-06
  9.413667e-02    7.844239e-06
  9.443560e-02    7.735366e-06
  9.473453e-02    7.822831e-06
  9.503346e-02    7.922637e-06
  9.533239e-02    7.865790e-06
  9.563132e-02    7.884003e-06
  9.593025e-02    7.895301e-06
  9.622918e-02    7.895314e-06
  9.652811e-02    7.794202e-06
  9.682704e-02    7.873567e-06
  9.712597e-02    7.899417e-06
  9.742490e-02    7.929539e-06
  9.772383e-02    7.958629e-06
  9.802276e-02    7.848294e-06
  9.832169e-02    7.767268e-06
  9.862062e-02    7.814996e-06
  9.891956e-02    7.839376e-06
  9.921849e-02    7.807393e-06
  9.951742e-02    7.789310e-06
  9.981635e-02    7.836155e-06
  1.001153e-01    7.781208e-06
  1.004142e-01    7.793789e-06
  1.007131e-01    7.870763e-06
  1.010121e-01    7.818764e-06
  1.013110e-01    7.870827e-06
  1.016099e-01    7.853162e-06
  1.019089e-01    7.840286e-06
  1.022078e-01    7.855664e-06
  1.025067e-01    7.829768e-06
  1.028057e-01    7.811972e-06
  1.031046e-01    7.770046e-06
  1.034035e-01    7.839948e-06
  1.037024e-01    7.785146e-06
  1.040014e-01    7.723768e-06
  1.043003e-01    7.737869e-06
  1.045992e-01    7.736441e-06
  1.048982e-01    7.743665e-06
  1.051971e-01    7.737644e-06
  1.054960e-01    7.738128e-06
  1.057950e-01    7.761592e-06
  1.060939e-01    7.760184e-06
  1.063928e-01    7.760104e-06
  1.066917e-01    7.780550e-06
  1.069907e-01    7.688848e-06
  1.072896e-01    7.694855e-06
  1.075885e-01    7.736101e-06
  1.078875e-01    7.759151e-06
  1.081864e-01    7.730782e-06
  1.084853e-01    7.829210e-06
  1.087843e-01    7.733554e-06
  1.090832e-01    7.688859e-06
  1.093821e-01    7.789975e-06
  1.096810e-01    7.799190e-06
  1.099800e-01    7.711735e-06
  1.102789e-01    7.714311e-06
  1.105778e-01    7.686249e-06
  1.108768e-01    7.627252e-06
  1.111757e-01    7.580526e-06
  1.114746e-01    7.544965e-06
  1.117736e-01    7.549942e-06
  1.120725e-01    7.457868e-06
  1.123714e-01    7.428690e-06
  1.126704e-01    7.478440e-06
  1.129693e-01    7.370199e-06
  1.132682e-01    7.192868e-06
  1.135671e-01    7.114369e-06
  1.138661e-01    7.058532e-06
  1.141650e-01    6.919450e-06
  1.144639e-01    6.875605e-06
  1.147629e-01    6.840035e-06
  1.150618e-01    6.791381e-06
  1.153607e-01    6.800874e-06
  1.156597e-01    6.903362e-06
  1.159586e-01    6.923082e-06
  1.162575e-01    6.852752e-06
  1.165564e-01    6.763462e-06
  1.168554e-01    6.673460e-06
  1.171543e-01    6.802049e-06
  1.174532e-01    6.753340e-06
  1.177522e-01    6.759774e-06
  1.180511e-01    6.966080e-06
  1.183500e-01    6.903678e-06
  1.186490e-01    6.958446e-06
  1.189479e-01    7.094760e-06
  1.192468e-01    6.988611e-06
  1.195458e-01    6.867071e-06
  1.198447e-01    6.919045e-06
  1.201436e-01    7.143496e-06
  1.204425e-01    7.344881e-06
  1.207415e-01    6.928204e-06
  1.210404e-01    6.726259e-06
  1.213393e-01    0.000000e+00
  1.216383e-01    0.000000e+00
  1.219372e-01    0.000000e+00
  1.222361e-01    0.000000e+00
  1.225351e-01    0.000000e+00
  1.228340e-01    0.000000e+00
  1.231329e-01    0.000000e+00
  1.234318e-01    0.000000e+00
  1.237308e-01    0.000000e+00
  1.240297e-01    0.000000e+00
  1.243286e-01    0.000000e+00
  1.246276e-01    0.000000e+00
  1.249265e-01    0.000000e+00
  1.252254e-01    0.000000e+00
  1.255244e-01    0.000000e+00
  1.258233e-01    0.000000e+00
  1.261222e-01    0.000000e+00
  1.264212e-01    0.000000e+00
  1.267201e-01    0.000000e+00
  1.270190e-01    0.000000e+00
  1.273179e-01    0.000000e+00
  1.276169e-01    0.000000e+00
  1.279158e-01    0.000000e+00
  1.282147e-01    0.000000e+00
  1.285137e-01    0.000000e+00
  1.288126e-01    0.000000e+00
  1.291115e-01    0.000000e+00
  1.294105e-01    0.000000e+00
  1.297094e-01    0.000000e+00
  1.300083e-01    0.000000e+00
  1.303072e-01    0.000000e+00
  1.306062e-01    0.000000e+00
  1.309051e-01    0.000000e+00
  1.312040e-01    0.000000e+00
  1.315030e-01    0.000000e+00
  1.318019e-01    0.000000e+00
  1.321008e-01    0.000000e+00
  1.323998e-01    0.000000e+00
  1.326987e-01    0.000000e+00
  1.329976e-01    0.000000e+00
  1.332965e-01    0.000000e+00
  1.335955e-01    0.000000e+00
  1.338944e-01    0.000000e+00
  1.341933e-01    0.000000e+00
  1.344923e-01    0.000000e+00
  1.347912e-01    0.000000e+00
  1.350901e-01    0.000000e+00
  1.353891e-01    0.000000e+00
  1.356880e-01    0.000000e+00
  1.359869e-01    0.000000e+00
  1.362859e-01    0.000000e+00
  1.365848e-01    0.000000e+00
  1.368837e-01    0.000000e+00
  1.371826e-01    0.000000e+00
  1.374816e-01    0.000000e+00
  1.377805e-01    0.000000e+00
  1.380794e-01    0.000000e+00
  1.383784e-01    0.000000e+00
  1.386773e-01    0.000000e+00
  1.389762e-01    0.000000e+00
  1.392752e-01    0.000000e+00
  1.395741e-01    0.000000e+00
  1.398730e-01    0.000000e+00
  1.401719e-01    0.000000e+00
  1.404709e-01    0.000000e+00
  1.407698e-01    0.000000e+00
  1.410687e-01    0.000000e+00
  1.413677e-01    0.000000e+00
  1.416666e-01    0.000000e+00
  1.419655e-01    0.000000e+00
  1.422645e-01    0.000000e+00
  1.425634e-01    0.000000e+00
  1.428623e-01    0.000000e+00
  1.431613e-01    0.000000e+00
  1.434602e-01    0.000000e+00
  1.437591e-01    0.000000e+00
  1.440580e-01    0.000000e+00
  1.443570e-01    0.000000e+00
  1.446559e-01    0.000000e+00
  1.449548e-01    0.000000e+00
  1.452538e-01    0.000000e+00
  1.455527e-01    0.000000e+00
  1.458516e-01    0.000000e+00
  1.461506e-01    0.000000e+00
  1.464495e-01    0.000000e+00
  1.467484e-01    0.000000e+00
  1.470473e-01    0.000000e+00
  1.473463e-01    0.000000e+00
  1.476452e-01    0.000000e+00
  1.479441e-01    0.000000e+00
  1.482431e-01    0.000000e+00
  1.485420e-01    0.000000e+00
  1.488409e-01    0.000000e+00
  1.491399e-01    0.000000e+00
  1.494388e-01    0.000000e+00
  1.497377e-01    0.000000e+00
  1.500367e-01    0.000000e+00
  1.503356e-01    0.000000e+00
  1.506345e-01    0.000000e+00
  1.509334e-01    0.000000e+00
  1.512324e-01    0.000000e+00
  1.515313e-01    0.000000e+00
  1.518302e-01    0.000000e+00
  1.521292e-01    0.000000e+00
  1.524281e-01    0.000000e+00
  1.527270e-01    0.000000e+00
  1.530260e-01    0.000000e+00
  1.533249e-01    0.000000e+00
  1.536238e-01    0.000000e+00
