# == pyFAI calibration ==
# Distance Sample to Detector: 2.266 m
# PONI: 5.659e-02, 4.293e-02 m
# Rotations: 0.000000 0.000000 0.000000 rad
# 
# == Fit2d calibration ==
# Distance Sample-beamCenter: 2266.000 mm
# Center: x=249.594, y=329.012 pix
# Tilt: 0.000 deg  TiltPlanRot: 0.000 deg
# 
# Detector Pilatus 300k	 PixelSize= 1.720e-04, 1.720e-04 m
#    Detector has a mask: True 
#    Detector has a dark current: False 
#    detector has a flat field: False 
# 
# Wavelength: 1.27818e-10 m
# Mask applied: user provided
# Dark current applied: False
# Flat field applied: False
# Polarization factor: None
# Normalization factor: 4610424.2
# --> AL_F127_220301_bdbaeaef-2f82-44ec-b99b-efe1136d292b_0_r1d.csv
#        q_A^-1             I 
  4.457554e-03    1.547729e-03
  4.756484e-03    1.223343e-03
  5.055415e-03    8.789464e-04
  5.354345e-03    6.177520e-04
  5.653276e-03    4.823140e-04
  5.952206e-03    7.635474e-04
  6.251136e-03    6.941531e-04
  6.550067e-03    5.995975e-04
  6.848997e-03    5.052359e-04
  7.147927e-03    4.267012e-04
  7.446858e-03    3.654792e-04
  7.745788e-03    3.153041e-04
  8.044719e-03    2.742203e-04
  8.343649e-03    2.410635e-04
  8.642579e-03    2.116608e-04
  8.941510e-03    1.868937e-04
  9.240440e-03    1.671560e-04
  9.539371e-03    1.497042e-04
  9.838301e-03    1.341230e-04
  1.013723e-02    1.220986e-04
  1.043616e-02    1.114397e-04
  1.073509e-02    1.017581e-04
  1.103402e-02    9.314489e-05
  1.133295e-02    8.576725e-05
  1.163188e-02    7.944679e-05
  1.193081e-02    7.349974e-05
  1.222974e-02    6.879186e-05
  1.252867e-02    6.436618e-05
  1.282760e-02    6.015672e-05
  1.312654e-02    5.659435e-05
  1.342547e-02    5.399815e-05
  1.372440e-02    5.119147e-05
  1.402333e-02    4.903396e-05
  1.432226e-02    4.716060e-05
  1.462119e-02    4.520603e-05
  1.492012e-02    4.395132e-05
  1.521905e-02    4.266688e-05
  1.551798e-02    4.133071e-05
  1.581691e-02    4.047380e-05
  1.611584e-02    3.985632e-05
  1.641477e-02    3.931941e-05
  1.671370e-02    3.889997e-05
  1.701263e-02    3.881767e-05
  1.731156e-02    3.879103e-05
  1.761049e-02    3.884931e-05
  1.790942e-02    3.903625e-05
  1.820835e-02    3.968196e-05
  1.850728e-02    4.018201e-05
  1.880621e-02    4.103091e-05
  1.910514e-02    4.195947e-05
  1.940407e-02    4.287156e-05
  1.970300e-02    4.399370e-05
  2.000193e-02    4.540689e-05
  2.030086e-02    4.647139e-05
  2.059979e-02    4.801509e-05
  2.089873e-02    4.974268e-05
  2.119766e-02    5.143958e-05
  2.149659e-02    5.312628e-05
  2.179552e-02    5.503180e-05
  2.209445e-02    5.681542e-05
  2.239338e-02    5.847895e-05
  2.269231e-02    6.055299e-05
  2.299124e-02    6.279103e-05
  2.329017e-02    6.468222e-05
  2.358910e-02    6.653895e-05
  2.388803e-02    6.789425e-05
  2.418696e-02    6.942845e-05
  2.448589e-02    7.123012e-05
  2.478482e-02    7.245504e-05
  2.508375e-02    7.300845e-05
  2.538268e-02    7.341180e-05
  2.568161e-02    7.355406e-05
  2.598054e-02    7.290152e-05
  2.627947e-02    7.222496e-05
  2.657840e-02    7.135917e-05
  2.687733e-02    6.998086e-05
  2.717626e-02    6.848670e-05
  2.747519e-02    6.649648e-05
  2.777412e-02    6.472013e-05
  2.807305e-02    6.309710e-05
  2.837198e-02    6.102074e-05
  2.867092e-02    5.884692e-05
  2.896985e-02    5.669252e-05
  2.926878e-02    5.477105e-05
  2.956771e-02    5.297119e-05
  2.986664e-02    5.111866e-05
  3.016557e-02    4.956269e-05
  3.046450e-02    4.823526e-05
  3.076343e-02    4.689335e-05
  3.106236e-02    4.577062e-05
  3.136129e-02    4.461968e-05
  3.166022e-02    4.360079e-05
  3.195915e-02    4.264927e-05
  3.225808e-02    4.170609e-05
  3.255701e-02    4.082707e-05
  3.285594e-02    3.997172e-05
  3.315487e-02    3.931802e-05
  3.345380e-02    3.900926e-05
  3.375273e-02    3.853553e-05
  3.405166e-02    3.785158e-05
  3.435059e-02    3.735385e-05
  3.464952e-02    3.706054e-05
  3.494845e-02    3.679221e-05
  3.524738e-02    3.634033e-05
  3.554631e-02    3.594969e-05
  3.584524e-02    3.573548e-05
  3.614417e-02    3.555058e-05
  3.644310e-02    3.535359e-05
  3.674204e-02    3.519161e-05
  3.704097e-02    3.491947e-05
  3.733990e-02    3.481467e-05
  3.763883e-02    3.465453e-05
  3.793776e-02    3.457938e-05
  3.823669e-02    3.450049e-05
  3.853562e-02    3.453160e-05
  3.883455e-02    3.448769e-05
  3.913348e-02    3.442225e-05
  3.943241e-02    3.444701e-05
  3.973134e-02    3.425957e-05
  4.003027e-02    3.413842e-05
  4.032920e-02    3.428588e-05
  4.062813e-02    3.428925e-05
  4.092706e-02    3.423846e-05
  4.122599e-02    3.426506e-05
  4.152492e-02    3.412451e-05
  4.182385e-02    3.391164e-05
  4.212278e-02    3.397922e-05
  4.242171e-02    3.390682e-05
  4.272064e-02    3.390049e-05
  4.301957e-02    3.389927e-05
  4.331850e-02    3.369713e-05
  4.361743e-02    3.348187e-05
  4.391636e-02    3.343705e-05
  4.421529e-02    3.342331e-05
  4.451423e-02    3.314321e-05
  4.481316e-02    3.282376e-05
  4.511209e-02    3.274472e-05
  4.541102e-02    3.254376e-05
  4.570995e-02    3.215487e-05
  4.600888e-02    3.198653e-05
  4.630781e-02    3.168634e-05
  4.660674e-02    3.130610e-05
  4.690567e-02    3.115048e-05
  4.720460e-02    3.071724e-05
  4.750353e-02    3.034748e-05
  4.780246e-02    2.995776e-05
  4.810139e-02    2.948075e-05
  4.840032e-02    2.903156e-05
  4.869925e-02    2.858513e-05
  4.899818e-02    2.806233e-05
  4.929711e-02    2.761165e-05
  4.959604e-02    2.707854e-05
  4.989497e-02    2.657024e-05
  5.019390e-02    2.612555e-05
  5.049283e-02    2.570874e-05
  5.079176e-02    2.528091e-05
  5.109069e-02    2.483452e-05
  5.138962e-02    2.441474e-05
  5.168855e-02    2.388826e-05
  5.198748e-02    2.348422e-05
  5.228642e-02    2.277990e-05
  5.258535e-02    2.215193e-05
  5.288428e-02    2.163360e-05
  5.318321e-02    2.131428e-05
  5.348214e-02    2.080308e-05
  5.378107e-02    2.026363e-05
  5.408000e-02    1.984793e-05
  5.437893e-02    1.948053e-05
  5.467786e-02    1.900629e-05
  5.497679e-02    1.857350e-05
  5.527572e-02    1.835434e-05
  5.557465e-02    1.795330e-05
  5.587358e-02    1.753454e-05
  5.617251e-02    1.714655e-05
  5.647144e-02    1.686035e-05
  5.677037e-02    1.651289e-05
  5.706930e-02    1.612983e-05
  5.736823e-02    1.575293e-05
  5.766716e-02    1.549021e-05
  5.796609e-02    1.528406e-05
  5.826502e-02    1.491387e-05
  5.856395e-02    1.459545e-05
  5.886288e-02    1.436179e-05
  5.916181e-02    1.412484e-05
  5.946074e-02    1.393622e-05
  5.975967e-02    1.375248e-05
  6.005861e-02    1.353745e-05
  6.035754e-02    1.324710e-05
  6.065647e-02    1.298251e-05
  6.095540e-02    1.282891e-05
  6.125433e-02    1.267041e-05
  6.155326e-02    1.248771e-05
  6.185219e-02    1.229327e-05
  6.215112e-02    1.207018e-05
  6.245005e-02    1.186698e-05
  6.274898e-02    1.163963e-05
  6.304791e-02    1.150002e-05
  6.334684e-02    1.138674e-05
  6.364577e-02    1.124781e-05
  6.394470e-02    1.112163e-05
  6.424363e-02    1.096007e-05
  6.454256e-02    1.084106e-05
  6.484149e-02    1.070465e-05
  6.514042e-02    1.056076e-05
  6.543935e-02    1.041514e-05
  6.573828e-02    1.024316e-05
  6.603721e-02    1.016604e-05
  6.633614e-02    1.007137e-05
  6.663507e-02    9.947789e-06
  6.693400e-02    9.839163e-06
  6.723293e-02    9.739340e-06
  6.753186e-02    9.616780e-06
  6.783080e-02    9.453646e-06
  6.812973e-02    9.388225e-06
  6.842866e-02    9.305504e-06
  6.872759e-02    9.178243e-06
  6.902652e-02    9.101633e-06
  6.932545e-02    9.038025e-06
  6.962438e-02    8.992421e-06
  6.992331e-02    8.884146e-06
  7.022224e-02    8.800708e-06
  7.052117e-02    8.686232e-06
  7.082010e-02    8.628293e-06
  7.111903e-02    8.593895e-06
  7.141796e-02    8.482577e-06
  7.171689e-02    8.421835e-06
  7.201582e-02    8.398139e-06
  7.231475e-02    8.310013e-06
  7.261368e-02    8.234106e-06
  7.291261e-02    8.199958e-06
  7.321154e-02    8.164468e-06
  7.351047e-02    8.188713e-06
  7.380940e-02    8.066922e-06
  7.410833e-02    8.008915e-06
  7.440726e-02    7.948879e-06
  7.470619e-02    7.929750e-06
  7.500512e-02    7.924062e-06
  7.530405e-02    7.910765e-06
  7.560299e-02    7.865717e-06
  7.590192e-02    7.819196e-06
  7.620085e-02    7.755782e-06
  7.649978e-02    7.696761e-06
  7.679871e-02    7.676293e-06
  7.709764e-02    7.644798e-06
  7.739657e-02    7.606600e-06
  7.769550e-02    7.603838e-06
  7.799443e-02    7.627240e-06
  7.829336e-02    7.553866e-06
  7.859229e-02    7.573320e-06
  7.889122e-02    7.550961e-06
  7.919015e-02    7.501533e-06
  7.948908e-02    7.472261e-06
  7.978801e-02    7.459759e-06
  8.008694e-02    7.450114e-06
  8.038587e-02    7.449678e-06
  8.068480e-02    7.420494e-06
  8.098373e-02    7.449659e-06
  8.128266e-02    7.431732e-06
  8.158159e-02    7.411898e-06
  8.188052e-02    7.476291e-06
  8.217945e-02    7.452483e-06
  8.247838e-02    7.426991e-06
  8.277731e-02    7.355336e-06
  8.307624e-02    7.341458e-06
  8.337518e-02    7.378636e-06
  8.367411e-02    7.354915e-06
  8.397304e-02    7.331425e-06
  8.427197e-02    7.330495e-06
  8.457090e-02    7.335483e-06
  8.486983e-02    7.333385e-06
  8.516876e-02    7.331326e-06
  8.546769e-02    7.320978e-06
  8.576662e-02    7.290467e-06
  8.606555e-02    7.287073e-06
  8.636448e-02    7.308975e-06
  8.666341e-02    7.292962e-06
  8.696234e-02    7.252812e-06
  8.726127e-02    7.273790e-06
  8.756020e-02    7.315866e-06
  8.785913e-02    7.317960e-06
  8.815806e-02    7.260897e-06
  8.845699e-02    7.253203e-06
  8.875592e-02    7.298156e-06
  8.905485e-02    7.322207e-06
  8.935378e-02    7.304295e-06
  8.965271e-02    7.309723e-06
  8.995164e-02    7.305222e-06
  9.025057e-02    7.312181e-06
  9.054950e-02    7.315951e-06
  9.084843e-02    7.286800e-06
  9.114737e-02    7.320124e-06
  9.144630e-02    7.290775e-06
  9.174523e-02    7.277294e-06
  9.204416e-02    7.271221e-06
  9.234309e-02    7.258208e-06
  9.264202e-02    7.297373e-06
  9.294095e-02    7.288290e-06
  9.323988e-02    7.298357e-06
  9.353881e-02    7.319901e-06
  9.383774e-02    7.304034e-06
  9.413667e-02    7.277773e-06
  9.443560e-02    7.287035e-06
  9.473453e-02    7.368916e-06
  9.503346e-02    7.342287e-06
  9.533239e-02    7.320047e-06
  9.563132e-02    7.310810e-06
  9.593025e-02    7.300464e-06
  9.622918e-02    7.280090e-06
  9.652811e-02    7.339694e-06
  9.682704e-02    7.328626e-06
  9.712597e-02    7.304097e-06
  9.742490e-02    7.332493e-06
  9.772383e-02    7.335560e-06
  9.802276e-02    7.286144e-06
  9.832169e-02    7.249448e-06
  9.862062e-02    7.283830e-06
  9.891956e-02    7.304947e-06
  9.921849e-02    7.317872e-06
  9.951742e-02    7.265398e-06
  9.981635e-02    7.264739e-06
  1.001153e-01    7.286273e-06
  1.004142e-01    7.252755e-06
  1.007131e-01    7.259433e-06
  1.010121e-01    7.224613e-06
  1.013110e-01    7.250299e-06
  1.016099e-01    7.274244e-06
  1.019089e-01    7.235902e-06
  1.022078e-01    7.192618e-06
  1.025067e-01    7.227114e-06
  1.028057e-01    7.250402e-06
  1.031046e-01    7.207968e-06
  1.034035e-01    7.199230e-06
  1.037024e-01    7.262330e-06
  1.040014e-01    7.240762e-06
  1.043003e-01    7.152014e-06
  1.045992e-01    7.159274e-06
  1.048982e-01    7.195199e-06
  1.051971e-01    7.204848e-06
  1.054960e-01    7.160257e-06
  1.057950e-01    7.160509e-06
  1.060939e-01    7.132991e-06
  1.063928e-01    7.131827e-06
  1.066917e-01    7.117551e-06
  1.069907e-01    7.172351e-06
  1.072896e-01    7.225854e-06
  1.075885e-01    7.225306e-06
  1.078875e-01    7.178583e-06
  1.081864e-01    7.194250e-06
  1.084853e-01    7.197545e-06
  1.087843e-01    7.155356e-06
  1.090832e-01    7.168882e-06
  1.093821e-01    7.165138e-06
  1.096810e-01    7.222279e-06
  1.099800e-01    7.153300e-06
  1.102789e-01    7.111304e-06
  1.105778e-01    7.119419e-06
  1.108768e-01    7.071703e-06
  1.111757e-01    7.056417e-06
  1.114746e-01    7.046300e-06
  1.117736e-01    6.998678e-06
  1.120725e-01    6.940071e-06
  1.123714e-01    6.935630e-06
  1.126704e-01    6.904637e-06
  1.129693e-01    6.895015e-06
  1.132682e-01    6.811442e-06
  1.135671e-01    6.671930e-06
  1.138661e-01    6.730753e-06
  1.141650e-01    6.723350e-06
  1.144639e-01    6.663582e-06
  1.147629e-01    6.662844e-06
  1.150618e-01    6.571276e-06
  1.153607e-01    6.521518e-06
  1.156597e-01    6.518834e-06
  1.159586e-01    6.534231e-06
  1.162575e-01    6.478765e-06
  1.165564e-01    6.438800e-06
  1.168554e-01    6.535584e-06
  1.171543e-01    6.528859e-06
  1.174532e-01    6.472050e-06
  1.177522e-01    6.491673e-06
  1.180511e-01    6.452772e-06
  1.183500e-01    6.463320e-06
  1.186490e-01    6.412342e-06
  1.189479e-01    6.384900e-06
  1.192468e-01    6.398114e-06
  1.195458e-01    6.428583e-06
  1.198447e-01    6.617769e-06
  1.201436e-01    6.668247e-06
  1.204425e-01    6.642524e-06
  1.207415e-01    6.639997e-06
  1.210404e-01    6.295792e-06
  1.213393e-01    0.000000e+00
  1.216383e-01    0.000000e+00
  1.219372e-01    0.000000e+00
  1.222361e-01    0.000000e+00
  1.225351e-01    0.000000e+00
  1.228340e-01    0.000000e+00
  1.231329e-01    0.000000e+00
  1.234318e-01    0.000000e+00
  1.237308e-01    0.000000e+00
  1.240297e-01    0.000000e+00
  1.243286e-01    0.000000e+00
  1.246276e-01    0.000000e+00
  1.249265e-01    0.000000e+00
  1.252254e-01    0.000000e+00
  1.255244e-01    0.000000e+00
  1.258233e-01    0.000000e+00
  1.261222e-01    0.000000e+00
  1.264212e-01    0.000000e+00
  1.267201e-01    0.000000e+00
  1.270190e-01    0.000000e+00
  1.273179e-01    0.000000e+00
  1.276169e-01    0.000000e+00
  1.279158e-01    0.000000e+00
  1.282147e-01    0.000000e+00
  1.285137e-01    0.000000e+00
  1.288126e-01    0.000000e+00
  1.291115e-01    0.000000e+00
  1.294105e-01    0.000000e+00
  1.297094e-01    0.000000e+00
  1.300083e-01    0.000000e+00
  1.303072e-01    0.000000e+00
  1.306062e-01    0.000000e+00
  1.309051e-01    0.000000e+00
  1.312040e-01    0.000000e+00
  1.315030e-01    0.000000e+00
  1.318019e-01    0.000000e+00
  1.321008e-01    0.000000e+00
  1.323998e-01    0.000000e+00
  1.326987e-01    0.000000e+00
  1.329976e-01    0.000000e+00
  1.332965e-01    0.000000e+00
  1.335955e-01    0.000000e+00
  1.338944e-01    0.000000e+00
  1.341933e-01    0.000000e+00
  1.344923e-01    0.000000e+00
  1.347912e-01    0.000000e+00
  1.350901e-01    0.000000e+00
  1.353891e-01    0.000000e+00
  1.356880e-01    0.000000e+00
  1.359869e-01    0.000000e+00
  1.362859e-01    0.000000e+00
  1.365848e-01    0.000000e+00
  1.368837e-01    0.000000e+00
  1.371826e-01    0.000000e+00
  1.374816e-01    0.000000e+00
  1.377805e-01    0.000000e+00
  1.380794e-01    0.000000e+00
  1.383784e-01    0.000000e+00
  1.386773e-01    0.000000e+00
  1.389762e-01    0.000000e+00
  1.392752e-01    0.000000e+00
  1.395741e-01    0.000000e+00
  1.398730e-01    0.000000e+00
  1.401719e-01    0.000000e+00
  1.404709e-01    0.000000e+00
  1.407698e-01    0.000000e+00
  1.410687e-01    0.000000e+00
  1.413677e-01    0.000000e+00
  1.416666e-01    0.000000e+00
  1.419655e-01    0.000000e+00
  1.422645e-01    0.000000e+00
  1.425634e-01    0.000000e+00
  1.428623e-01    0.000000e+00
  1.431613e-01    0.000000e+00
  1.434602e-01    0.000000e+00
  1.437591e-01    0.000000e+00
  1.440580e-01    0.000000e+00
  1.443570e-01    0.000000e+00
  1.446559e-01    0.000000e+00
  1.449548e-01    0.000000e+00
  1.452538e-01    0.000000e+00
  1.455527e-01    0.000000e+00
  1.458516e-01    0.000000e+00
  1.461506e-01    0.000000e+00
  1.464495e-01    0.000000e+00
  1.467484e-01    0.000000e+00
  1.470473e-01    0.000000e+00
  1.473463e-01    0.000000e+00
  1.476452e-01    0.000000e+00
  1.479441e-01    0.000000e+00
  1.482431e-01    0.000000e+00
  1.485420e-01    0.000000e+00
  1.488409e-01    0.000000e+00
  1.491399e-01    0.000000e+00
  1.494388e-01    0.000000e+00
  1.497377e-01    0.000000e+00
  1.500367e-01    0.000000e+00
  1.503356e-01    0.000000e+00
  1.506345e-01    0.000000e+00
  1.509334e-01    0.000000e+00
  1.512324e-01    0.000000e+00
  1.515313e-01    0.000000e+00
  1.518302e-01    0.000000e+00
  1.521292e-01    0.000000e+00
  1.524281e-01    0.000000e+00
  1.527270e-01    0.000000e+00
  1.530260e-01    0.000000e+00
  1.533249e-01    0.000000e+00
  1.536238e-01    0.000000e+00
