# == pyFAI calibration ==
# Distance Sample to Detector: 2.266 m
# PONI: 5.659e-02, 4.293e-02 m
# Rotations: 0.000000 0.000000 0.000000 rad
# 
# == Fit2d calibration ==
# Distance Sample-beamCenter: 2266.000 mm
# Center: x=249.594, y=329.012 pix
# Tilt: 0.000 deg  TiltPlanRot: 0.000 deg
# 
# Detector Pilatus 300k	 PixelSize= 1.720e-04, 1.720e-04 m
#    Detector has a mask: True 
#    Detector has a dark current: False 
#    detector has a flat field: False 
# 
# Wavelength: 1.27818e-10 m
# Mask applied: user provided
# Dark current applied: False
# Flat field applied: False
# Polarization factor: None
# Normalization factor: 19823327.8
# --> AL_F127_220228_3d2e583e-0833-47f5-9181-9a803e6eb033_2_r1d.csv
#        q_A^-1             I 
  4.457554e-03    1.700821e-03
  4.756484e-03    1.329055e-03
  5.055415e-03    9.457807e-04
  5.354345e-03    6.628803e-04
  5.653276e-03    5.153705e-04
  5.952206e-03    8.516521e-04
  6.251136e-03    7.766593e-04
  6.550067e-03    6.709284e-04
  6.848997e-03    5.684277e-04
  7.147927e-03    4.794735e-04
  7.446858e-03    4.087504e-04
  7.745788e-03    3.503247e-04
  8.044719e-03    3.014330e-04
  8.343649e-03    2.633109e-04
  8.642579e-03    2.305167e-04
  8.941510e-03    2.026016e-04
  9.240440e-03    1.795182e-04
  9.539371e-03    1.598608e-04
  9.838301e-03    1.426951e-04
  1.013723e-02    1.278482e-04
  1.043616e-02    1.149545e-04
  1.073509e-02    1.033719e-04
  1.103402e-02    9.388016e-05
  1.133295e-02    8.551643e-05
  1.163188e-02    7.802957e-05
  1.193081e-02    7.119711e-05
  1.222974e-02    6.547704e-05
  1.252867e-02    6.034821e-05
  1.282760e-02    5.546255e-05
  1.312654e-02    5.127015e-05
  1.342547e-02    4.764535e-05
  1.372440e-02    4.428944e-05
  1.402333e-02    4.109231e-05
  1.432226e-02    3.838721e-05
  1.462119e-02    3.590132e-05
  1.492012e-02    3.360067e-05
  1.521905e-02    3.143585e-05
  1.551798e-02    2.965986e-05
  1.581691e-02    2.792563e-05
  1.611584e-02    2.632164e-05
  1.641477e-02    2.485187e-05
  1.671370e-02    2.353284e-05
  1.701263e-02    2.238467e-05
  1.731156e-02    2.127079e-05
  1.761049e-02    2.025528e-05
  1.790942e-02    1.922183e-05
  1.820835e-02    1.835257e-05
  1.850728e-02    1.758723e-05
  1.880621e-02    1.687685e-05
  1.910514e-02    1.613384e-05
  1.940407e-02    1.544644e-05
  1.970300e-02    1.489830e-05
  2.000193e-02    1.434925e-05
  2.030086e-02    1.389220e-05
  2.059979e-02    1.348798e-05
  2.089873e-02    1.296629e-05
  2.119766e-02    1.249574e-05
  2.149659e-02    1.210646e-05
  2.179552e-02    1.173525e-05
  2.209445e-02    1.143519e-05
  2.239338e-02    1.112064e-05
  2.269231e-02    1.077149e-05
  2.299124e-02    1.050108e-05
  2.329017e-02    1.024790e-05
  2.358910e-02    9.966046e-06
  2.388803e-02    9.772499e-06
  2.418696e-02    9.544056e-06
  2.448589e-02    9.306155e-06
  2.478482e-02    9.125409e-06
  2.508375e-02    8.974494e-06
  2.538268e-02    8.807175e-06
  2.568161e-02    8.662068e-06
  2.598054e-02    8.492862e-06
  2.627947e-02    8.324811e-06
  2.657840e-02    8.233547e-06
  2.687733e-02    8.128354e-06
  2.717626e-02    7.969333e-06
  2.747519e-02    7.853509e-06
  2.777412e-02    7.773733e-06
  2.807305e-02    7.641585e-06
  2.837198e-02    7.495847e-06
  2.867092e-02    7.419597e-06
  2.896985e-02    7.341412e-06
  2.926878e-02    7.243314e-06
  2.956771e-02    7.154193e-06
  2.986664e-02    7.079964e-06
  3.016557e-02    6.992027e-06
  3.046450e-02    6.899753e-06
  3.076343e-02    6.846609e-06
  3.106236e-02    6.781491e-06
  3.136129e-02    6.689569e-06
  3.166022e-02    6.666255e-06
  3.195915e-02    6.619189e-06
  3.225808e-02    6.543781e-06
  3.255701e-02    6.485121e-06
  3.285594e-02    6.396230e-06
  3.315487e-02    6.339534e-06
  3.345380e-02    6.288021e-06
  3.375273e-02    6.228654e-06
  3.405166e-02    6.157790e-06
  3.435059e-02    6.125496e-06
  3.464952e-02    6.068513e-06
  3.494845e-02    6.028155e-06
  3.524738e-02    5.990109e-06
  3.554631e-02    5.939439e-06
  3.584524e-02    5.912649e-06
  3.614417e-02    5.868800e-06
  3.644310e-02    5.785516e-06
  3.674204e-02    5.757437e-06
  3.704097e-02    5.735037e-06
  3.733990e-02    5.653601e-06
  3.763883e-02    5.607432e-06
  3.793776e-02    5.572997e-06
  3.823669e-02    5.526856e-06
  3.853562e-02    5.507745e-06
  3.883455e-02    5.469646e-06
  3.913348e-02    5.443267e-06
  3.943241e-02    5.402555e-06
  3.973134e-02    5.371842e-06
  4.003027e-02    5.364119e-06
  4.032920e-02    5.324046e-06
  4.062813e-02    5.323816e-06
  4.092706e-02    5.332480e-06
  4.122599e-02    5.300364e-06
  4.152492e-02    5.271507e-06
  4.182385e-02    5.244092e-06
  4.212278e-02    5.219457e-06
  4.242171e-02    5.198388e-06
  4.272064e-02    5.187223e-06
  4.301957e-02    5.188872e-06
  4.331850e-02    5.175934e-06
  4.361743e-02    5.140754e-06
  4.391636e-02    5.093184e-06
  4.421529e-02    5.089345e-06
  4.451423e-02    5.119356e-06
  4.481316e-02    5.115739e-06
  4.511209e-02    5.085615e-06
  4.541102e-02    5.075568e-06
  4.570995e-02    5.069831e-06
  4.600888e-02    5.058899e-06
  4.630781e-02    5.065318e-06
  4.660674e-02    5.049757e-06
  4.690567e-02    5.031279e-06
  4.720460e-02    5.057901e-06
  4.750353e-02    5.072644e-06
  4.780246e-02    5.055371e-06
  4.810139e-02    5.028212e-06
  4.840032e-02    5.028491e-06
  4.869925e-02    5.042865e-06
  4.899818e-02    5.031069e-06
  4.929711e-02    5.025042e-06
  4.959604e-02    5.007123e-06
  4.989497e-02    5.017056e-06
  5.019390e-02    5.019725e-06
  5.049283e-02    4.992925e-06
  5.079176e-02    5.022053e-06
  5.109069e-02    5.056698e-06
  5.138962e-02    5.078641e-06
  5.168855e-02    5.157999e-06
  5.198748e-02    5.234584e-06
  5.228642e-02    5.185641e-06
  5.258535e-02    5.053948e-06
  5.288428e-02    4.996577e-06
  5.318321e-02    4.998561e-06
  5.348214e-02    5.001634e-06
  5.378107e-02    4.998453e-06
  5.408000e-02    5.002522e-06
  5.437893e-02    5.022331e-06
  5.467786e-02    5.033438e-06
  5.497679e-02    5.037508e-06
  5.527572e-02    5.029036e-06
  5.557465e-02    5.021836e-06
  5.587358e-02    5.030644e-06
  5.617251e-02    5.019981e-06
  5.647144e-02    5.020893e-06
  5.677037e-02    5.034092e-06
  5.706930e-02    5.049144e-06
  5.736823e-02    5.071643e-06
  5.766716e-02    5.075240e-06
  5.796609e-02    5.053636e-06
  5.826502e-02    5.069403e-06
  5.856395e-02    5.082336e-06
  5.886288e-02    5.083050e-06
  5.916181e-02    5.075920e-06
  5.946074e-02    5.097866e-06
  5.975967e-02    5.111560e-06
  6.005861e-02    5.127287e-06
  6.035754e-02    5.140471e-06
  6.065647e-02    5.153805e-06
  6.095540e-02    5.177739e-06
  6.125433e-02    5.242414e-06
  6.155326e-02    5.257129e-06
  6.185219e-02    5.184470e-06
  6.215112e-02    5.159725e-06
  6.245005e-02    5.175005e-06
  6.274898e-02    5.173887e-06
  6.304791e-02    5.171278e-06
  6.334684e-02    5.199478e-06
  6.364577e-02    5.195378e-06
  6.394470e-02    5.181038e-06
  6.424363e-02    5.194071e-06
  6.454256e-02    5.223644e-06
  6.484149e-02    5.215328e-06
  6.514042e-02    5.213931e-06
  6.543935e-02    5.221505e-06
  6.573828e-02    5.247574e-06
  6.603721e-02    5.235187e-06
  6.633614e-02    5.264179e-06
  6.663507e-02    5.280045e-06
  6.693400e-02    5.270916e-06
  6.723293e-02    5.288110e-06
  6.753186e-02    5.290087e-06
  6.783080e-02    5.298321e-06
  6.812973e-02    5.324097e-06
  6.842866e-02    5.325335e-06
  6.872759e-02    5.328987e-06
  6.902652e-02    5.343821e-06
  6.932545e-02    5.357476e-06
  6.962438e-02    5.359004e-06
  6.992331e-02    5.356680e-06
  7.022224e-02    5.350127e-06
  7.052117e-02    5.374275e-06
  7.082010e-02    5.380546e-06
  7.111903e-02    5.392891e-06
  7.141796e-02    5.408300e-06
  7.171689e-02    5.420194e-06
  7.201582e-02    5.420421e-06
  7.231475e-02    5.426162e-06
  7.261368e-02    5.417005e-06
  7.291261e-02    5.408202e-06
  7.321154e-02    5.438090e-06
  7.351047e-02    5.463369e-06
  7.380940e-02    5.448989e-06
  7.410833e-02    5.456150e-06
  7.440726e-02    5.452910e-06
  7.470619e-02    5.426932e-06
  7.500512e-02    5.427077e-06
  7.530405e-02    5.444753e-06
  7.560299e-02    5.444602e-06
  7.590192e-02    5.446427e-06
  7.620085e-02    5.430556e-06
  7.649978e-02    5.422746e-06
  7.679871e-02    5.427887e-06
  7.709764e-02    5.414451e-06
  7.739657e-02    5.420256e-06
  7.769550e-02    5.438343e-06
  7.799443e-02    5.456418e-06
  7.829336e-02    5.454785e-06
  7.859229e-02    5.445738e-06
  7.889122e-02    5.450806e-06
  7.919015e-02    5.455455e-06
  7.948908e-02    5.446313e-06
  7.978801e-02    5.443771e-06
  8.008694e-02    5.425878e-06
  8.038587e-02    5.422497e-06
  8.068480e-02    5.423499e-06
  8.098373e-02    5.403676e-06
  8.128266e-02    5.402249e-06
  8.158159e-02    5.410998e-06
  8.188052e-02    5.412564e-06
  8.217945e-02    5.410117e-06
  8.247838e-02    5.398526e-06
  8.277731e-02    5.367159e-06
  8.307624e-02    5.370788e-06
  8.337518e-02    5.372777e-06
  8.367411e-02    5.376385e-06
  8.397304e-02    5.369146e-06
  8.427197e-02    5.360464e-06
  8.457090e-02    5.347687e-06
  8.486983e-02    5.343709e-06
  8.516876e-02    5.354849e-06
  8.546769e-02    5.337992e-06
  8.576662e-02    5.315053e-06
  8.606555e-02    5.306179e-06
  8.636448e-02    5.304290e-06
  8.666341e-02    5.303383e-06
  8.696234e-02    5.272707e-06
  8.726127e-02    5.284321e-06
  8.756020e-02    5.298660e-06
  8.785913e-02    5.292901e-06
  8.815806e-02    5.268474e-06
  8.845699e-02    5.259658e-06
  8.875592e-02    5.245664e-06
  8.905485e-02    5.234448e-06
  8.935378e-02    5.229495e-06
  8.965271e-02    5.223443e-06
  8.995164e-02    5.216068e-06
  9.025057e-02    5.205008e-06
  9.054950e-02    5.190594e-06
  9.084843e-02    5.186491e-06
  9.114737e-02    5.188151e-06
  9.144630e-02    5.189749e-06
  9.174523e-02    5.166250e-06
  9.204416e-02    5.146240e-06
  9.234309e-02    5.133038e-06
  9.264202e-02    5.105851e-06
  9.294095e-02    5.094412e-06
  9.323988e-02    5.095099e-06
  9.353881e-02    5.091306e-06
  9.383774e-02    5.090872e-06
  9.413667e-02    5.071570e-06
  9.443560e-02    5.053472e-06
  9.473453e-02    5.061034e-06
  9.503346e-02    5.053601e-06
  9.533239e-02    5.060393e-06
  9.563132e-02    5.059668e-06
  9.593025e-02    5.057931e-06
  9.622918e-02    5.046095e-06
  9.652811e-02    5.053771e-06
  9.682704e-02    5.056319e-06
  9.712597e-02    5.056023e-06
  9.742490e-02    5.039395e-06
  9.772383e-02    5.025160e-06
  9.802276e-02    5.000046e-06
  9.832169e-02    4.981135e-06
  9.862062e-02    4.964439e-06
  9.891956e-02    4.946432e-06
  9.921849e-02    4.929070e-06
  9.951742e-02    4.929674e-06
  9.981635e-02    4.911569e-06
  1.001153e-01    4.905034e-06
  1.004142e-01    4.886425e-06
  1.007131e-01    4.860233e-06
  1.010121e-01    4.881126e-06
  1.013110e-01    4.876143e-06
  1.016099e-01    4.852192e-06
  1.019089e-01    4.829356e-06
  1.022078e-01    4.811540e-06
  1.025067e-01    4.821878e-06
  1.028057e-01    4.835037e-06
  1.031046e-01    4.811318e-06
  1.034035e-01    4.781202e-06
  1.037024e-01    4.796828e-06
  1.040014e-01    4.785096e-06
  1.043003e-01    4.751479e-06
  1.045992e-01    4.744246e-06
  1.048982e-01    4.746212e-06
  1.051971e-01    4.735964e-06
  1.054960e-01    4.725930e-06
  1.057950e-01    4.722944e-06
  1.060939e-01    4.705430e-06
  1.063928e-01    4.700456e-06
  1.066917e-01    4.680457e-06
  1.069907e-01    4.682492e-06
  1.072896e-01    4.660268e-06
  1.075885e-01    4.633945e-06
  1.078875e-01    4.643340e-06
  1.081864e-01    4.644984e-06
  1.084853e-01    4.647795e-06
  1.087843e-01    4.679669e-06
  1.090832e-01    4.652329e-06
  1.093821e-01    4.609734e-06
  1.096810e-01    4.594836e-06
  1.099800e-01    4.591506e-06
  1.102789e-01    4.565789e-06
  1.105778e-01    4.557822e-06
  1.108768e-01    4.535565e-06
  1.111757e-01    4.531400e-06
  1.114746e-01    4.520573e-06
  1.117736e-01    4.496889e-06
  1.120725e-01    4.492347e-06
  1.123714e-01    4.492433e-06
  1.126704e-01    4.481703e-06
  1.129693e-01    4.452509e-06
  1.132682e-01    4.447535e-06
  1.135671e-01    4.455330e-06
  1.138661e-01    4.455067e-06
  1.141650e-01    4.414230e-06
  1.144639e-01    4.431519e-06
  1.147629e-01    4.406928e-06
  1.150618e-01    4.420700e-06
  1.153607e-01    4.448127e-06
  1.156597e-01    4.430555e-06
  1.159586e-01    4.413752e-06
  1.162575e-01    4.397192e-06
  1.165564e-01    4.394039e-06
  1.168554e-01    4.382349e-06
  1.171543e-01    4.421436e-06
  1.174532e-01    4.406678e-06
  1.177522e-01    4.389729e-06
  1.180511e-01    4.415740e-06
  1.183500e-01    4.466489e-06
  1.186490e-01    4.440095e-06
  1.189479e-01    4.336636e-06
  1.192468e-01    4.337538e-06
  1.195458e-01    4.421867e-06
  1.198447e-01    4.312827e-06
  1.201436e-01    4.217241e-06
  1.204425e-01    4.277318e-06
  1.207415e-01    4.244757e-06
  1.210404e-01    4.089796e-06
  1.213393e-01    0.000000e+00
  1.216383e-01    0.000000e+00
  1.219372e-01    0.000000e+00
  1.222361e-01    0.000000e+00
  1.225351e-01    0.000000e+00
  1.228340e-01    0.000000e+00
  1.231329e-01    0.000000e+00
  1.234318e-01    0.000000e+00
  1.237308e-01    0.000000e+00
  1.240297e-01    0.000000e+00
  1.243286e-01    0.000000e+00
  1.246276e-01    0.000000e+00
  1.249265e-01    0.000000e+00
  1.252254e-01    0.000000e+00
  1.255244e-01    0.000000e+00
  1.258233e-01    0.000000e+00
  1.261222e-01    0.000000e+00
  1.264212e-01    0.000000e+00
  1.267201e-01    0.000000e+00
  1.270190e-01    0.000000e+00
  1.273179e-01    0.000000e+00
  1.276169e-01    0.000000e+00
  1.279158e-01    0.000000e+00
  1.282147e-01    0.000000e+00
  1.285137e-01    0.000000e+00
  1.288126e-01    0.000000e+00
  1.291115e-01    0.000000e+00
  1.294105e-01    0.000000e+00
  1.297094e-01    0.000000e+00
  1.300083e-01    0.000000e+00
  1.303072e-01    0.000000e+00
  1.306062e-01    0.000000e+00
  1.309051e-01    0.000000e+00
  1.312040e-01    0.000000e+00
  1.315030e-01    0.000000e+00
  1.318019e-01    0.000000e+00
  1.321008e-01    0.000000e+00
  1.323998e-01    0.000000e+00
  1.326987e-01    0.000000e+00
  1.329976e-01    0.000000e+00
  1.332965e-01    0.000000e+00
  1.335955e-01    0.000000e+00
  1.338944e-01    0.000000e+00
  1.341933e-01    0.000000e+00
  1.344923e-01    0.000000e+00
  1.347912e-01    0.000000e+00
  1.350901e-01    0.000000e+00
  1.353891e-01    0.000000e+00
  1.356880e-01    0.000000e+00
  1.359869e-01    0.000000e+00
  1.362859e-01    0.000000e+00
  1.365848e-01    0.000000e+00
  1.368837e-01    0.000000e+00
  1.371826e-01    0.000000e+00
  1.374816e-01    0.000000e+00
  1.377805e-01    0.000000e+00
  1.380794e-01    0.000000e+00
  1.383784e-01    0.000000e+00
  1.386773e-01    0.000000e+00
  1.389762e-01    0.000000e+00
  1.392752e-01    0.000000e+00
  1.395741e-01    0.000000e+00
  1.398730e-01    0.000000e+00
  1.401719e-01    0.000000e+00
  1.404709e-01    0.000000e+00
  1.407698e-01    0.000000e+00
  1.410687e-01    0.000000e+00
  1.413677e-01    0.000000e+00
  1.416666e-01    0.000000e+00
  1.419655e-01    0.000000e+00
  1.422645e-01    0.000000e+00
  1.425634e-01    0.000000e+00
  1.428623e-01    0.000000e+00
  1.431613e-01    0.000000e+00
  1.434602e-01    0.000000e+00
  1.437591e-01    0.000000e+00
  1.440580e-01    0.000000e+00
  1.443570e-01    0.000000e+00
  1.446559e-01    0.000000e+00
  1.449548e-01    0.000000e+00
  1.452538e-01    0.000000e+00
  1.455527e-01    0.000000e+00
  1.458516e-01    0.000000e+00
  1.461506e-01    0.000000e+00
  1.464495e-01    0.000000e+00
  1.467484e-01    0.000000e+00
  1.470473e-01    0.000000e+00
  1.473463e-01    0.000000e+00
  1.476452e-01    0.000000e+00
  1.479441e-01    0.000000e+00
  1.482431e-01    0.000000e+00
  1.485420e-01    0.000000e+00
  1.488409e-01    0.000000e+00
  1.491399e-01    0.000000e+00
  1.494388e-01    0.000000e+00
  1.497377e-01    0.000000e+00
  1.500367e-01    0.000000e+00
  1.503356e-01    0.000000e+00
  1.506345e-01    0.000000e+00
  1.509334e-01    0.000000e+00
  1.512324e-01    0.000000e+00
  1.515313e-01    0.000000e+00
  1.518302e-01    0.000000e+00
  1.521292e-01    0.000000e+00
  1.524281e-01    0.000000e+00
  1.527270e-01    0.000000e+00
  1.530260e-01    0.000000e+00
  1.533249e-01    0.000000e+00
  1.536238e-01    0.000000e+00
