# == pyFAI calibration ==
# Distance Sample to Detector: 2.266 m
# PONI: 5.659e-02, 4.293e-02 m
# Rotations: 0.000000 0.000000 0.000000 rad
# 
# == Fit2d calibration ==
# Distance Sample-beamCenter: 2266.000 mm
# Center: x=249.594, y=329.012 pix
# Tilt: 0.000 deg  TiltPlanRot: 0.000 deg
# 
# Detector Pilatus 300k	 PixelSize= 1.720e-04, 1.720e-04 m
#    Detector has a mask: True 
#    Detector has a dark current: False 
#    detector has a flat field: False 
# 
# Wavelength: 1.27818e-10 m
# Mask applied: user provided
# Dark current applied: False
# Flat field applied: False
# Polarization factor: None
# Normalization factor: 1496244.2
# --> AL_F127_220301_062de01b-9885-4991-9b11-0b62b4440159_2_r1d.csv
#        q_A^-1             I 
  4.457554e-03    2.397943e-03
  4.756484e-03    1.865190e-03
  5.055415e-03    1.289629e-03
  5.354345e-03    8.431884e-04
  5.653276e-03    6.125542e-04
  5.952206e-03    8.964775e-04
  6.251136e-03    8.162947e-04
  6.550067e-03    7.126266e-04
  6.848997e-03    6.110066e-04
  7.147927e-03    5.174337e-04
  7.446858e-03    4.440904e-04
  7.745788e-03    3.829507e-04
  8.044719e-03    3.315402e-04
  8.343649e-03    2.901960e-04
  8.642579e-03    2.548526e-04
  8.941510e-03    2.250135e-04
  9.240440e-03    2.018112e-04
  9.539371e-03    1.804635e-04
  9.838301e-03    1.611599e-04
  1.013723e-02    1.463397e-04
  1.043616e-02    1.326139e-04
  1.073509e-02    1.215524e-04
  1.103402e-02    1.117353e-04
  1.133295e-02    1.018852e-04
  1.163188e-02    9.461056e-05
  1.193081e-02    8.810934e-05
  1.222974e-02    8.192113e-05
  1.252867e-02    7.652707e-05
  1.282760e-02    7.178592e-05
  1.312654e-02    6.692414e-05
  1.342547e-02    6.346915e-05
  1.372440e-02    6.077814e-05
  1.402333e-02    5.790754e-05
  1.432226e-02    5.506057e-05
  1.462119e-02    5.271671e-05
  1.492012e-02    5.058566e-05
  1.521905e-02    4.868762e-05
  1.551798e-02    4.745215e-05
  1.581691e-02    4.632364e-05
  1.611584e-02    4.570414e-05
  1.641477e-02    4.534189e-05
  1.671370e-02    4.438512e-05
  1.701263e-02    4.351456e-05
  1.731156e-02    4.329933e-05
  1.761049e-02    4.320995e-05
  1.790942e-02    4.324958e-05
  1.820835e-02    4.343860e-05
  1.850728e-02    4.397227e-05
  1.880621e-02    4.396238e-05
  1.910514e-02    4.418163e-05
  1.940407e-02    4.427525e-05
  1.970300e-02    4.495680e-05
  2.000193e-02    4.560264e-05
  2.030086e-02    4.656983e-05
  2.059979e-02    4.740732e-05
  2.089873e-02    4.825642e-05
  2.119766e-02    4.904208e-05
  2.149659e-02    4.982573e-05
  2.179552e-02    5.062828e-05
  2.209445e-02    5.120402e-05
  2.239338e-02    5.220032e-05
  2.269231e-02    5.244787e-05
  2.299124e-02    5.262014e-05
  2.329017e-02    5.294781e-05
  2.358910e-02    5.324832e-05
  2.388803e-02    5.323209e-05
  2.418696e-02    5.298620e-05
  2.448589e-02    5.262635e-05
  2.478482e-02    5.265266e-05
  2.508375e-02    5.211132e-05
  2.538268e-02    5.138648e-05
  2.568161e-02    5.076564e-05
  2.598054e-02    5.001304e-05
  2.627947e-02    4.917945e-05
  2.657840e-02    4.850047e-05
  2.687733e-02    4.780652e-05
  2.717626e-02    4.718833e-05
  2.747519e-02    4.657489e-05
  2.777412e-02    4.563946e-05
  2.807305e-02    4.470021e-05
  2.837198e-02    4.399475e-05
  2.867092e-02    4.309718e-05
  2.896985e-02    4.231394e-05
  2.926878e-02    4.175200e-05
  2.956771e-02    4.081596e-05
  2.986664e-02    4.025807e-05
  3.016557e-02    3.966706e-05
  3.046450e-02    3.876872e-05
  3.076343e-02    3.807660e-05
  3.106236e-02    3.765643e-05
  3.136129e-02    3.729397e-05
  3.166022e-02    3.692934e-05
  3.195915e-02    3.633784e-05
  3.225808e-02    3.565360e-05
  3.255701e-02    3.552073e-05
  3.285594e-02    3.488162e-05
  3.315487e-02    3.472894e-05
  3.345380e-02    3.443229e-05
  3.375273e-02    3.380420e-05
  3.405166e-02    3.340677e-05
  3.435059e-02    3.316759e-05
  3.464952e-02    3.296296e-05
  3.494845e-02    3.280627e-05
  3.524738e-02    3.261367e-05
  3.554631e-02    3.191205e-05
  3.584524e-02    3.159048e-05
  3.614417e-02    3.168541e-05
  3.644310e-02    3.181944e-05
  3.674204e-02    3.189659e-05
  3.704097e-02    3.163055e-05
  3.733990e-02    3.123063e-05
  3.763883e-02    3.117693e-05
  3.793776e-02    3.107565e-05
  3.823669e-02    3.076775e-05
  3.853562e-02    3.056000e-05
  3.883455e-02    3.056109e-05
  3.913348e-02    3.053914e-05
  3.943241e-02    3.041087e-05
  3.973134e-02    3.017612e-05
  4.003027e-02    3.010965e-05
  4.032920e-02    3.005993e-05
  4.062813e-02    3.013159e-05
  4.092706e-02    2.980446e-05
  4.122599e-02    2.937105e-05
  4.152492e-02    2.915165e-05
  4.182385e-02    2.931178e-05
  4.212278e-02    2.940188e-05
  4.242171e-02    2.933341e-05
  4.272064e-02    2.906043e-05
  4.301957e-02    2.899685e-05
  4.331850e-02    2.876958e-05
  4.361743e-02    2.837774e-05
  4.391636e-02    2.822142e-05
  4.421529e-02    2.789411e-05
  4.451423e-02    2.787976e-05
  4.481316e-02    2.769380e-05
  4.511209e-02    2.747937e-05
  4.541102e-02    2.732132e-05
  4.570995e-02    2.697518e-05
  4.600888e-02    2.649931e-05
  4.630781e-02    2.611063e-05
  4.660674e-02    2.613223e-05
  4.690567e-02    2.589263e-05
  4.720460e-02    2.548947e-05
  4.750353e-02    2.509587e-05
  4.780246e-02    2.475938e-05
  4.810139e-02    2.462712e-05
  4.840032e-02    2.431672e-05
  4.869925e-02    2.393080e-05
  4.899818e-02    2.371805e-05
  4.929711e-02    2.332878e-05
  4.959604e-02    2.291210e-05
  4.989497e-02    2.272821e-05
  5.019390e-02    2.235858e-05
  5.049283e-02    2.202760e-05
  5.079176e-02    2.176606e-05
  5.109069e-02    2.147007e-05
  5.138962e-02    2.106537e-05
  5.168855e-02    2.087672e-05
  5.198748e-02    2.056487e-05
  5.228642e-02    2.035789e-05
  5.258535e-02    1.986970e-05
  5.288428e-02    1.940127e-05
  5.318321e-02    1.911169e-05
  5.348214e-02    1.880015e-05
  5.378107e-02    1.836094e-05
  5.408000e-02    1.811342e-05
  5.437893e-02    1.793860e-05
  5.467786e-02    1.767189e-05
  5.497679e-02    1.743986e-05
  5.527572e-02    1.716573e-05
  5.557465e-02    1.689285e-05
  5.587358e-02    1.654303e-05
  5.617251e-02    1.641182e-05
  5.647144e-02    1.611473e-05
  5.677037e-02    1.586128e-05
  5.706930e-02    1.560656e-05
  5.736823e-02    1.546413e-05
  5.766716e-02    1.523950e-05
  5.796609e-02    1.489204e-05
  5.826502e-02    1.475428e-05
  5.856395e-02    1.475697e-05
  5.886288e-02    1.454774e-05
  5.916181e-02    1.429629e-05
  5.946074e-02    1.429611e-05
  5.975967e-02    1.403572e-05
  6.005861e-02    1.375423e-05
  6.035754e-02    1.358205e-05
  6.065647e-02    1.343123e-05
  6.095540e-02    1.337900e-05
  6.125433e-02    1.328746e-05
  6.155326e-02    1.309466e-05
  6.185219e-02    1.289108e-05
  6.215112e-02    1.259829e-05
  6.245005e-02    1.244021e-05
  6.274898e-02    1.231391e-05
  6.304791e-02    1.223147e-05
  6.334684e-02    1.202610e-05
  6.364577e-02    1.203592e-05
  6.394470e-02    1.193565e-05
  6.424363e-02    1.171448e-05
  6.454256e-02    1.158546e-05
  6.484149e-02    1.148301e-05
  6.514042e-02    1.130953e-05
  6.543935e-02    1.123637e-05
  6.573828e-02    1.118910e-05
  6.603721e-02    1.108627e-05
  6.633614e-02    1.105355e-05
  6.663507e-02    1.109297e-05
  6.693400e-02    1.101681e-05
  6.723293e-02    1.091006e-05
  6.753186e-02    1.073596e-05
  6.783080e-02    1.069308e-05
  6.812973e-02    1.055196e-05
  6.842866e-02    1.040882e-05
  6.872759e-02    1.042437e-05
  6.902652e-02    1.025200e-05
  6.932545e-02    1.021904e-05
  6.962438e-02    1.020793e-05
  6.992331e-02    1.013462e-05
  7.022224e-02    1.000867e-05
  7.052117e-02    9.964034e-06
  7.082010e-02    9.960667e-06
  7.111903e-02    9.884306e-06
  7.141796e-02    9.770673e-06
  7.171689e-02    9.647229e-06
  7.201582e-02    9.606203e-06
  7.231475e-02    9.534368e-06
  7.261368e-02    9.587926e-06
  7.291261e-02    9.564817e-06
  7.321154e-02    9.478043e-06
  7.351047e-02    9.565341e-06
  7.380940e-02    9.561380e-06
  7.410833e-02    9.398006e-06
  7.440726e-02    9.305272e-06
  7.470619e-02    9.418623e-06
  7.500512e-02    9.296964e-06
  7.530405e-02    9.312345e-06
  7.560299e-02    9.294276e-06
  7.590192e-02    9.167201e-06
  7.620085e-02    9.195319e-06
  7.649978e-02    9.112808e-06
  7.679871e-02    9.018424e-06
  7.709764e-02    8.988844e-06
  7.739657e-02    9.090744e-06
  7.769550e-02    9.157361e-06
  7.799443e-02    9.174808e-06
  7.829336e-02    9.016381e-06
  7.859229e-02    8.939954e-06
  7.889122e-02    8.904723e-06
  7.919015e-02    8.920633e-06
  7.948908e-02    8.966639e-06
  7.978801e-02    8.960539e-06
  8.008694e-02    8.931617e-06
  8.038587e-02    8.799011e-06
  8.068480e-02    8.827185e-06
  8.098373e-02    8.872216e-06
  8.128266e-02    8.775703e-06
  8.158159e-02    8.826735e-06
  8.188052e-02    8.711973e-06
  8.217945e-02    8.697973e-06
  8.247838e-02    8.712821e-06
  8.277731e-02    8.651052e-06
  8.307624e-02    8.722148e-06
  8.337518e-02    8.739541e-06
  8.367411e-02    8.671677e-06
  8.397304e-02    8.538274e-06
  8.427197e-02    8.484983e-06
  8.457090e-02    8.579126e-06
  8.486983e-02    8.660511e-06
  8.516876e-02    8.698704e-06
  8.546769e-02    8.706040e-06
  8.576662e-02    8.647318e-06
  8.606555e-02    8.622656e-06
  8.636448e-02    8.628560e-06
  8.666341e-02    8.577114e-06
  8.696234e-02    8.600131e-06
  8.726127e-02    8.622802e-06
  8.756020e-02    8.527427e-06
  8.785913e-02    8.602947e-06
  8.815806e-02    8.562454e-06
  8.845699e-02    8.465193e-06
  8.875592e-02    8.510778e-06
  8.905485e-02    8.537848e-06
  8.935378e-02    8.477823e-06
  8.965271e-02    8.490608e-06
  8.995164e-02    8.564587e-06
  9.025057e-02    8.563125e-06
  9.054950e-02    8.566365e-06
  9.084843e-02    8.499737e-06
  9.114737e-02    8.460423e-06
  9.144630e-02    8.602735e-06
  9.174523e-02    8.615544e-06
  9.204416e-02    8.630764e-06
  9.234309e-02    8.576509e-06
  9.264202e-02    8.553435e-06
  9.294095e-02    8.573289e-06
  9.323988e-02    8.585365e-06
  9.353881e-02    8.544200e-06
  9.383774e-02    8.505626e-06
  9.413667e-02    8.549364e-06
  9.443560e-02    8.545314e-06
  9.473453e-02    8.574506e-06
  9.503346e-02    8.592084e-06
  9.533239e-02    8.459796e-06
  9.563132e-02    8.449221e-06
  9.593025e-02    8.497431e-06
  9.622918e-02    8.514180e-06
  9.652811e-02    8.453652e-06
  9.682704e-02    8.465827e-06
  9.712597e-02    8.594920e-06
  9.742490e-02    8.587857e-06
  9.772383e-02    8.528617e-06
  9.802276e-02    8.519532e-06
  9.832169e-02    8.435949e-06
  9.862062e-02    8.385468e-06
  9.891956e-02    8.398712e-06
  9.921849e-02    8.431791e-06
  9.951742e-02    8.463187e-06
  9.981635e-02    8.467598e-06
  1.001153e-01    8.387194e-06
  1.004142e-01    8.460500e-06
  1.007131e-01    8.446732e-06
  1.010121e-01    8.379649e-06
  1.013110e-01    8.337760e-06
  1.016099e-01    8.375029e-06
  1.019089e-01    8.423522e-06
  1.022078e-01    8.447479e-06
  1.025067e-01    8.413995e-06
  1.028057e-01    8.428248e-06
  1.031046e-01    8.410506e-06
  1.034035e-01    8.382682e-06
  1.037024e-01    8.419641e-06
  1.040014e-01    8.430410e-06
  1.043003e-01    8.495374e-06
  1.045992e-01    8.502792e-06
  1.048982e-01    8.488513e-06
  1.051971e-01    8.482398e-06
  1.054960e-01    8.440651e-06
  1.057950e-01    8.402631e-06
  1.060939e-01    8.422052e-06
  1.063928e-01    8.413508e-06
  1.066917e-01    8.444140e-06
  1.069907e-01    8.474342e-06
  1.072896e-01    8.469121e-06
  1.075885e-01    8.466198e-06
  1.078875e-01    8.427918e-06
  1.081864e-01    8.335559e-06
  1.084853e-01    8.360849e-06
  1.087843e-01    8.382694e-06
  1.090832e-01    8.370861e-06
  1.093821e-01    8.403660e-06
  1.096810e-01    8.357789e-06
  1.099800e-01    8.441887e-06
  1.102789e-01    8.458577e-06
  1.105778e-01    8.401515e-06
  1.108768e-01    8.338282e-06
  1.111757e-01    8.325130e-06
  1.114746e-01    8.385025e-06
  1.117736e-01    8.313732e-06
  1.120725e-01    8.192899e-06
  1.123714e-01    8.189075e-06
  1.126704e-01    8.096758e-06
  1.129693e-01    7.863807e-06
  1.132682e-01    7.638898e-06
  1.135671e-01    7.547944e-06
  1.138661e-01    7.562383e-06
  1.141650e-01    7.499237e-06
  1.144639e-01    7.416598e-06
  1.147629e-01    7.412230e-06
  1.150618e-01    7.397657e-06
  1.153607e-01    7.436899e-06
  1.156597e-01    7.272131e-06
  1.159586e-01    7.167614e-06
  1.162575e-01    7.254568e-06
  1.165564e-01    7.303465e-06
  1.168554e-01    7.158780e-06
  1.171543e-01    7.134540e-06
  1.174532e-01    7.121960e-06
  1.177522e-01    7.038625e-06
  1.180511e-01    7.066208e-06
  1.183500e-01    7.135221e-06
  1.186490e-01    7.245028e-06
  1.189479e-01    7.297996e-06
  1.192468e-01    7.322014e-06
  1.195458e-01    7.387043e-06
  1.198447e-01    7.111229e-06
  1.201436e-01    7.086398e-06
  1.204425e-01    7.054954e-06
  1.207415e-01    6.389728e-06
  1.210404e-01    7.358400e-06
  1.213393e-01    0.000000e+00
  1.216383e-01    0.000000e+00
  1.219372e-01    0.000000e+00
  1.222361e-01    0.000000e+00
  1.225351e-01    0.000000e+00
  1.228340e-01    0.000000e+00
  1.231329e-01    0.000000e+00
  1.234318e-01    0.000000e+00
  1.237308e-01    0.000000e+00
  1.240297e-01    0.000000e+00
  1.243286e-01    0.000000e+00
  1.246276e-01    0.000000e+00
  1.249265e-01    0.000000e+00
  1.252254e-01    0.000000e+00
  1.255244e-01    0.000000e+00
  1.258233e-01    0.000000e+00
  1.261222e-01    0.000000e+00
  1.264212e-01    0.000000e+00
  1.267201e-01    0.000000e+00
  1.270190e-01    0.000000e+00
  1.273179e-01    0.000000e+00
  1.276169e-01    0.000000e+00
  1.279158e-01    0.000000e+00
  1.282147e-01    0.000000e+00
  1.285137e-01    0.000000e+00
  1.288126e-01    0.000000e+00
  1.291115e-01    0.000000e+00
  1.294105e-01    0.000000e+00
  1.297094e-01    0.000000e+00
  1.300083e-01    0.000000e+00
  1.303072e-01    0.000000e+00
  1.306062e-01    0.000000e+00
  1.309051e-01    0.000000e+00
  1.312040e-01    0.000000e+00
  1.315030e-01    0.000000e+00
  1.318019e-01    0.000000e+00
  1.321008e-01    0.000000e+00
  1.323998e-01    0.000000e+00
  1.326987e-01    0.000000e+00
  1.329976e-01    0.000000e+00
  1.332965e-01    0.000000e+00
  1.335955e-01    0.000000e+00
  1.338944e-01    0.000000e+00
  1.341933e-01    0.000000e+00
  1.344923e-01    0.000000e+00
  1.347912e-01    0.000000e+00
  1.350901e-01    0.000000e+00
  1.353891e-01    0.000000e+00
  1.356880e-01    0.000000e+00
  1.359869e-01    0.000000e+00
  1.362859e-01    0.000000e+00
  1.365848e-01    0.000000e+00
  1.368837e-01    0.000000e+00
  1.371826e-01    0.000000e+00
  1.374816e-01    0.000000e+00
  1.377805e-01    0.000000e+00
  1.380794e-01    0.000000e+00
  1.383784e-01    0.000000e+00
  1.386773e-01    0.000000e+00
  1.389762e-01    0.000000e+00
  1.392752e-01    0.000000e+00
  1.395741e-01    0.000000e+00
  1.398730e-01    0.000000e+00
  1.401719e-01    0.000000e+00
  1.404709e-01    0.000000e+00
  1.407698e-01    0.000000e+00
  1.410687e-01    0.000000e+00
  1.413677e-01    0.000000e+00
  1.416666e-01    0.000000e+00
  1.419655e-01    0.000000e+00
  1.422645e-01    0.000000e+00
  1.425634e-01    0.000000e+00
  1.428623e-01    0.000000e+00
  1.431613e-01    0.000000e+00
  1.434602e-01    0.000000e+00
  1.437591e-01    0.000000e+00
  1.440580e-01    0.000000e+00
  1.443570e-01    0.000000e+00
  1.446559e-01    0.000000e+00
  1.449548e-01    0.000000e+00
  1.452538e-01    0.000000e+00
  1.455527e-01    0.000000e+00
  1.458516e-01    0.000000e+00
  1.461506e-01    0.000000e+00
  1.464495e-01    0.000000e+00
  1.467484e-01    0.000000e+00
  1.470473e-01    0.000000e+00
  1.473463e-01    0.000000e+00
  1.476452e-01    0.000000e+00
  1.479441e-01    0.000000e+00
  1.482431e-01    0.000000e+00
  1.485420e-01    0.000000e+00
  1.488409e-01    0.000000e+00
  1.491399e-01    0.000000e+00
  1.494388e-01    0.000000e+00
  1.497377e-01    0.000000e+00
  1.500367e-01    0.000000e+00
  1.503356e-01    0.000000e+00
  1.506345e-01    0.000000e+00
  1.509334e-01    0.000000e+00
  1.512324e-01    0.000000e+00
  1.515313e-01    0.000000e+00
  1.518302e-01    0.000000e+00
  1.521292e-01    0.000000e+00
  1.524281e-01    0.000000e+00
  1.527270e-01    0.000000e+00
  1.530260e-01    0.000000e+00
  1.533249e-01    0.000000e+00
  1.536238e-01    0.000000e+00
