# == pyFAI calibration ==
# Distance Sample to Detector: 2.266 m
# PONI: 5.659e-02, 4.293e-02 m
# Rotations: 0.000000 0.000000 0.000000 rad
# 
# == Fit2d calibration ==
# Distance Sample-beamCenter: 2266.000 mm
# Center: x=249.594, y=329.012 pix
# Tilt: 0.000 deg  TiltPlanRot: 0.000 deg
# 
# Detector Pilatus 300k	 PixelSize= 1.720e-04, 1.720e-04 m
#    Detector has a mask: True 
#    Detector has a dark current: False 
#    detector has a flat field: False 
# 
# Wavelength: 1.27818e-10 m
# Mask applied: user provided
# Dark current applied: False
# Flat field applied: False
# Polarization factor: None
# Normalization factor: 972979.7999999998
# --> AL_F127_220226_58923f0b-2bb8-45ef-b434-e0972ad8c7ba_1_r1d.csv
#        q_A^-1             I 
  4.457554e-03    2.652665e-03
  4.756484e-03    2.139560e-03
  5.055415e-03    1.557994e-03
  5.354345e-03    1.112982e-03
  5.653276e-03    8.561790e-04
  5.952206e-03    1.297123e-03
  6.251136e-03    1.184286e-03
  6.550067e-03    1.030794e-03
  6.848997e-03    8.836155e-04
  7.147927e-03    7.536020e-04
  7.446858e-03    6.448502e-04
  7.745788e-03    5.568303e-04
  8.044719e-03    4.841539e-04
  8.343649e-03    4.241390e-04
  8.642579e-03    3.744321e-04
  8.941510e-03    3.306167e-04
  9.240440e-03    2.922598e-04
  9.539371e-03    2.604680e-04
  9.838301e-03    2.336406e-04
  1.013723e-02    2.099316e-04
  1.043616e-02    1.879958e-04
  1.073509e-02    1.697166e-04
  1.103402e-02    1.539498e-04
  1.133295e-02    1.402195e-04
  1.163188e-02    1.279167e-04
  1.193081e-02    1.165494e-04
  1.222974e-02    1.065404e-04
  1.252867e-02    9.743562e-05
  1.282760e-02    9.016906e-05
  1.312654e-02    8.321598e-05
  1.342547e-02    7.667154e-05
  1.372440e-02    7.137580e-05
  1.402333e-02    6.608856e-05
  1.432226e-02    6.142711e-05
  1.462119e-02    5.727318e-05
  1.492012e-02    5.379761e-05
  1.521905e-02    5.033050e-05
  1.551798e-02    4.673010e-05
  1.581691e-02    4.441314e-05
  1.611584e-02    4.194196e-05
  1.641477e-02    3.942901e-05
  1.671370e-02    3.731583e-05
  1.701263e-02    3.536234e-05
  1.731156e-02    3.357621e-05
  1.761049e-02    3.162530e-05
  1.790942e-02    3.012225e-05
  1.820835e-02    2.904173e-05
  1.850728e-02    2.783627e-05
  1.880621e-02    2.659961e-05
  1.910514e-02    2.522228e-05
  1.940407e-02    2.436308e-05
  1.970300e-02    2.309360e-05
  2.000193e-02    2.217344e-05
  2.030086e-02    2.103851e-05
  2.059979e-02    2.042222e-05
  2.089873e-02    2.008411e-05
  2.119766e-02    1.951055e-05
  2.149659e-02    1.884850e-05
  2.179552e-02    1.833482e-05
  2.209445e-02    1.802581e-05
  2.239338e-02    1.720987e-05
  2.269231e-02    1.683843e-05
  2.299124e-02    1.650104e-05
  2.329017e-02    1.611010e-05
  2.358910e-02    1.577778e-05
  2.388803e-02    1.546160e-05
  2.418696e-02    1.511828e-05
  2.448589e-02    1.476588e-05
  2.478482e-02    1.422641e-05
  2.508375e-02    1.421378e-05
  2.538268e-02    1.407072e-05
  2.568161e-02    1.355393e-05
  2.598054e-02    1.330936e-05
  2.627947e-02    1.308682e-05
  2.657840e-02    1.291057e-05
  2.687733e-02    1.273264e-05
  2.717626e-02    1.258758e-05
  2.747519e-02    1.242922e-05
  2.777412e-02    1.219631e-05
  2.807305e-02    1.210666e-05
  2.837198e-02    1.215745e-05
  2.867092e-02    1.184684e-05
  2.896985e-02    1.165894e-05
  2.926878e-02    1.167636e-05
  2.956771e-02    1.164829e-05
  2.986664e-02    1.141053e-05
  3.016557e-02    1.134630e-05
  3.046450e-02    1.122882e-05
  3.076343e-02    1.107192e-05
  3.106236e-02    1.092613e-05
  3.136129e-02    1.093165e-05
  3.166022e-02    1.091223e-05
  3.195915e-02    1.078631e-05
  3.225808e-02    1.049828e-05
  3.255701e-02    1.055421e-05
  3.285594e-02    1.048491e-05
  3.315487e-02    1.045229e-05
  3.345380e-02    1.027748e-05
  3.375273e-02    9.996618e-06
  3.405166e-02    1.005216e-05
  3.435059e-02    1.015718e-05
  3.464952e-02    9.817463e-06
  3.494845e-02    9.584823e-06
  3.524738e-02    9.582497e-06
  3.554631e-02    9.716762e-06
  3.584524e-02    9.622969e-06
  3.614417e-02    9.712362e-06
  3.644310e-02    9.381099e-06
  3.674204e-02    9.374882e-06
  3.704097e-02    9.198219e-06
  3.733990e-02    9.141510e-06
  3.763883e-02    9.222554e-06
  3.793776e-02    9.121492e-06
  3.823669e-02    8.979579e-06
  3.853562e-02    8.844449e-06
  3.883455e-02    9.035268e-06
  3.913348e-02    8.850049e-06
  3.943241e-02    8.744708e-06
  3.973134e-02    8.616397e-06
  4.003027e-02    8.527651e-06
  4.032920e-02    8.516949e-06
  4.062813e-02    8.414251e-06
  4.092706e-02    8.434544e-06
  4.122599e-02    8.582673e-06
  4.152492e-02    8.572873e-06
  4.182385e-02    8.426555e-06
  4.212278e-02    8.324134e-06
  4.242171e-02    8.394003e-06
  4.272064e-02    8.414606e-06
  4.301957e-02    8.274365e-06
  4.331850e-02    8.213876e-06
  4.361743e-02    8.164666e-06
  4.391636e-02    8.236620e-06
  4.421529e-02    8.311993e-06
  4.451423e-02    8.161836e-06
  4.481316e-02    8.124815e-06
  4.511209e-02    8.279244e-06
  4.541102e-02    8.215756e-06
  4.570995e-02    8.118315e-06
  4.600888e-02    8.051900e-06
  4.630781e-02    8.138853e-06
  4.660674e-02    7.906200e-06
  4.690567e-02    7.836735e-06
  4.720460e-02    8.065875e-06
  4.750353e-02    8.007017e-06
  4.780246e-02    7.971244e-06
  4.810139e-02    7.834699e-06
  4.840032e-02    7.989631e-06
  4.869925e-02    8.068169e-06
  4.899818e-02    7.946699e-06
  4.929711e-02    7.960208e-06
  4.959604e-02    7.926205e-06
  4.989497e-02    7.877901e-06
  5.019390e-02    7.915694e-06
  5.049283e-02    8.004789e-06
  5.079176e-02    7.928508e-06
  5.109069e-02    7.878116e-06
  5.138962e-02    8.113785e-06
  5.168855e-02    8.304221e-06
  5.198748e-02    8.403800e-06
  5.228642e-02    8.200355e-06
  5.258535e-02    8.103850e-06
  5.288428e-02    7.953789e-06
  5.318321e-02    7.818397e-06
  5.348214e-02    7.840765e-06
  5.378107e-02    7.717408e-06
  5.408000e-02    7.576916e-06
  5.437893e-02    7.705596e-06
  5.467786e-02    7.932327e-06
  5.497679e-02    8.018088e-06
  5.527572e-02    7.933210e-06
  5.557465e-02    7.892002e-06
  5.587358e-02    7.783442e-06
  5.617251e-02    7.804189e-06
  5.647144e-02    7.797073e-06
  5.677037e-02    7.839324e-06
  5.706930e-02    7.843594e-06
  5.736823e-02    7.770454e-06
  5.766716e-02    7.859579e-06
  5.796609e-02    7.761422e-06
  5.826502e-02    7.792314e-06
  5.856395e-02    7.868790e-06
  5.886288e-02    7.806899e-06
  5.916181e-02    7.756889e-06
  5.946074e-02    7.779188e-06
  5.975967e-02    7.827439e-06
  6.005861e-02    7.831825e-06
  6.035754e-02    7.795888e-06
  6.065647e-02    7.908743e-06
  6.095540e-02    8.031469e-06
  6.125433e-02    8.045035e-06
  6.155326e-02    8.131770e-06
  6.185219e-02    7.995024e-06
  6.215112e-02    7.980721e-06
  6.245005e-02    7.865957e-06
  6.274898e-02    7.865658e-06
  6.304791e-02    7.936024e-06
  6.334684e-02    7.958395e-06
  6.364577e-02    7.947082e-06
  6.394470e-02    7.942992e-06
  6.424363e-02    7.905697e-06
  6.454256e-02    7.899108e-06
  6.484149e-02    7.884353e-06
  6.514042e-02    7.883774e-06
  6.543935e-02    7.880923e-06
  6.573828e-02    7.873930e-06
  6.603721e-02    7.898786e-06
  6.633614e-02    7.984424e-06
  6.663507e-02    7.859808e-06
  6.693400e-02    7.847077e-06
  6.723293e-02    7.894040e-06
  6.753186e-02    7.920247e-06
  6.783080e-02    7.949702e-06
  6.812973e-02    7.998393e-06
  6.842866e-02    7.996920e-06
  6.872759e-02    7.960038e-06
  6.902652e-02    7.915972e-06
  6.932545e-02    7.938210e-06
  6.962438e-02    7.993855e-06
  6.992331e-02    8.070700e-06
  7.022224e-02    8.084699e-06
  7.052117e-02    8.031639e-06
  7.082010e-02    8.072053e-06
  7.111903e-02    8.025920e-06
  7.141796e-02    8.164481e-06
  7.171689e-02    8.089592e-06
  7.201582e-02    8.056936e-06
  7.231475e-02    8.025363e-06
  7.261368e-02    8.097722e-06
  7.291261e-02    8.202821e-06
  7.321154e-02    8.154580e-06
  7.351047e-02    8.061686e-06
  7.380940e-02    8.096503e-06
  7.410833e-02    8.107918e-06
  7.440726e-02    8.119333e-06
  7.470619e-02    8.073547e-06
  7.500512e-02    8.015883e-06
  7.530405e-02    8.009494e-06
  7.560299e-02    7.965135e-06
  7.590192e-02    7.997597e-06
  7.620085e-02    8.026556e-06
  7.649978e-02    8.053216e-06
  7.679871e-02    8.070345e-06
  7.709764e-02    8.084782e-06
  7.739657e-02    8.027916e-06
  7.769550e-02    8.039491e-06
  7.799443e-02    8.009295e-06
  7.829336e-02    8.156541e-06
  7.859229e-02    8.098844e-06
  7.889122e-02    7.954083e-06
  7.919015e-02    8.028300e-06
  7.948908e-02    8.038944e-06
  7.978801e-02    7.920323e-06
  8.008694e-02    7.967231e-06
  8.038587e-02    8.089692e-06
  8.068480e-02    7.985714e-06
  8.098373e-02    8.037869e-06
  8.128266e-02    8.042642e-06
  8.158159e-02    7.852162e-06
  8.188052e-02    7.808466e-06
  8.217945e-02    7.871133e-06
  8.247838e-02    7.880069e-06
  8.277731e-02    7.818048e-06
  8.307624e-02    7.886371e-06
  8.337518e-02    7.855258e-06
  8.367411e-02    7.846156e-06
  8.397304e-02    7.836967e-06
  8.427197e-02    7.924345e-06
  8.457090e-02    7.880301e-06
  8.486983e-02    7.826781e-06
  8.516876e-02    7.802315e-06
  8.546769e-02    7.806410e-06
  8.576662e-02    7.872607e-06
  8.606555e-02    7.888859e-06
  8.636448e-02    7.825579e-06
  8.666341e-02    7.787351e-06
  8.696234e-02    7.776237e-06
  8.726127e-02    7.789814e-06
  8.756020e-02    7.767334e-06
  8.785913e-02    7.760014e-06
  8.815806e-02    7.678551e-06
  8.845699e-02    7.658733e-06
  8.875592e-02    7.527950e-06
  8.905485e-02    7.599180e-06
  8.935378e-02    7.696963e-06
  8.965271e-02    7.660389e-06
  8.995164e-02    7.620810e-06
  9.025057e-02    7.535944e-06
  9.054950e-02    7.624208e-06
  9.084843e-02    7.649563e-06
  9.114737e-02    7.567245e-06
  9.144630e-02    7.476385e-06
  9.174523e-02    7.520234e-06
  9.204416e-02    7.523484e-06
  9.234309e-02    7.502940e-06
  9.264202e-02    7.488178e-06
  9.294095e-02    7.602465e-06
  9.323988e-02    7.546545e-06
  9.353881e-02    7.388077e-06
  9.383774e-02    7.392860e-06
  9.413667e-02    7.481216e-06
  9.443560e-02    7.512072e-06
  9.473453e-02    7.436359e-06
  9.503346e-02    7.472207e-06
  9.533239e-02    7.457239e-06
  9.563132e-02    7.476716e-06
  9.593025e-02    7.484260e-06
  9.622918e-02    7.533200e-06
  9.652811e-02    7.525729e-06
  9.682704e-02    7.490610e-06
  9.712597e-02    7.530195e-06
  9.742490e-02    7.515979e-06
  9.772383e-02    7.527566e-06
  9.802276e-02    7.406594e-06
  9.832169e-02    7.340127e-06
  9.862062e-02    7.440441e-06
  9.891956e-02    7.309534e-06
  9.921849e-02    7.183807e-06
  9.951742e-02    7.289112e-06
  9.981635e-02    7.325777e-06
  1.001153e-01    7.359957e-06
  1.004142e-01    7.235510e-06
  1.007131e-01    7.101444e-06
  1.010121e-01    7.159334e-06
  1.013110e-01    7.125508e-06
  1.016099e-01    7.095582e-06
  1.019089e-01    7.139229e-06
  1.022078e-01    7.206267e-06
  1.025067e-01    7.229763e-06
  1.028057e-01    7.244463e-06
  1.031046e-01    7.275507e-06
  1.034035e-01    7.175936e-06
  1.037024e-01    7.084541e-06
  1.040014e-01    7.172689e-06
  1.043003e-01    7.225687e-06
  1.045992e-01    7.115741e-06
  1.048982e-01    7.129111e-06
  1.051971e-01    7.207596e-06
  1.054960e-01    7.240161e-06
  1.057950e-01    7.015599e-06
  1.060939e-01    6.920159e-06
  1.063928e-01    7.044380e-06
  1.066917e-01    7.119545e-06
  1.069907e-01    7.117519e-06
  1.072896e-01    6.959132e-06
  1.075885e-01    7.051581e-06
  1.078875e-01    7.015726e-06
  1.081864e-01    6.886017e-06
  1.084853e-01    6.996852e-06
  1.087843e-01    7.125132e-06
  1.090832e-01    7.128339e-06
  1.093821e-01    7.122954e-06
  1.096810e-01    7.017086e-06
  1.099800e-01    6.903835e-06
  1.102789e-01    6.876754e-06
  1.105778e-01    7.030652e-06
  1.108768e-01    7.037244e-06
  1.111757e-01    6.928988e-06
  1.114746e-01    6.789233e-06
  1.117736e-01    6.866293e-06
  1.120725e-01    6.983938e-06
  1.123714e-01    7.018273e-06
  1.126704e-01    6.902384e-06
  1.129693e-01    6.799265e-06
  1.132682e-01    6.802202e-06
  1.135671e-01    6.898582e-06
  1.138661e-01    6.749185e-06
  1.141650e-01    6.640569e-06
  1.144639e-01    6.445425e-06
  1.147629e-01    6.430533e-06
  1.150618e-01    6.739003e-06
  1.153607e-01    6.980386e-06
  1.156597e-01    6.817229e-06
  1.159586e-01    6.711524e-06
  1.162575e-01    6.757507e-06
  1.165564e-01    6.661003e-06
  1.168554e-01    6.688748e-06
  1.171543e-01    6.642569e-06
  1.174532e-01    6.546861e-06
  1.177522e-01    6.674908e-06
  1.180511e-01    6.600582e-06
  1.183500e-01    6.605886e-06
  1.186490e-01    6.791956e-06
  1.189479e-01    6.756522e-06
  1.192468e-01    6.741840e-06
  1.195458e-01    6.554987e-06
  1.198447e-01    6.318975e-06
  1.201436e-01    6.180865e-06
  1.204425e-01    6.229297e-06
  1.207415e-01    6.609149e-06
  1.210404e-01    8.229612e-06
  1.213393e-01    0.000000e+00
  1.216383e-01    0.000000e+00
  1.219372e-01    0.000000e+00
  1.222361e-01    0.000000e+00
  1.225351e-01    0.000000e+00
  1.228340e-01    0.000000e+00
  1.231329e-01    0.000000e+00
  1.234318e-01    0.000000e+00
  1.237308e-01    0.000000e+00
  1.240297e-01    0.000000e+00
  1.243286e-01    0.000000e+00
  1.246276e-01    0.000000e+00
  1.249265e-01    0.000000e+00
  1.252254e-01    0.000000e+00
  1.255244e-01    0.000000e+00
  1.258233e-01    0.000000e+00
  1.261222e-01    0.000000e+00
  1.264212e-01    0.000000e+00
  1.267201e-01    0.000000e+00
  1.270190e-01    0.000000e+00
  1.273179e-01    0.000000e+00
  1.276169e-01    0.000000e+00
  1.279158e-01    0.000000e+00
  1.282147e-01    0.000000e+00
  1.285137e-01    0.000000e+00
  1.288126e-01    0.000000e+00
  1.291115e-01    0.000000e+00
  1.294105e-01    0.000000e+00
  1.297094e-01    0.000000e+00
  1.300083e-01    0.000000e+00
  1.303072e-01    0.000000e+00
  1.306062e-01    0.000000e+00
  1.309051e-01    0.000000e+00
  1.312040e-01    0.000000e+00
  1.315030e-01    0.000000e+00
  1.318019e-01    0.000000e+00
  1.321008e-01    0.000000e+00
  1.323998e-01    0.000000e+00
  1.326987e-01    0.000000e+00
  1.329976e-01    0.000000e+00
  1.332965e-01    0.000000e+00
  1.335955e-01    0.000000e+00
  1.338944e-01    0.000000e+00
  1.341933e-01    0.000000e+00
  1.344923e-01    0.000000e+00
  1.347912e-01    0.000000e+00
  1.350901e-01    0.000000e+00
  1.353891e-01    0.000000e+00
  1.356880e-01    0.000000e+00
  1.359869e-01    0.000000e+00
  1.362859e-01    0.000000e+00
  1.365848e-01    0.000000e+00
  1.368837e-01    0.000000e+00
  1.371826e-01    0.000000e+00
  1.374816e-01    0.000000e+00
  1.377805e-01    0.000000e+00
  1.380794e-01    0.000000e+00
  1.383784e-01    0.000000e+00
  1.386773e-01    0.000000e+00
  1.389762e-01    0.000000e+00
  1.392752e-01    0.000000e+00
  1.395741e-01    0.000000e+00
  1.398730e-01    0.000000e+00
  1.401719e-01    0.000000e+00
  1.404709e-01    0.000000e+00
  1.407698e-01    0.000000e+00
  1.410687e-01    0.000000e+00
  1.413677e-01    0.000000e+00
  1.416666e-01    0.000000e+00
  1.419655e-01    0.000000e+00
  1.422645e-01    0.000000e+00
  1.425634e-01    0.000000e+00
  1.428623e-01    0.000000e+00
  1.431613e-01    0.000000e+00
  1.434602e-01    0.000000e+00
  1.437591e-01    0.000000e+00
  1.440580e-01    0.000000e+00
  1.443570e-01    0.000000e+00
  1.446559e-01    0.000000e+00
  1.449548e-01    0.000000e+00
  1.452538e-01    0.000000e+00
  1.455527e-01    0.000000e+00
  1.458516e-01    0.000000e+00
  1.461506e-01    0.000000e+00
  1.464495e-01    0.000000e+00
  1.467484e-01    0.000000e+00
  1.470473e-01    0.000000e+00
  1.473463e-01    0.000000e+00
  1.476452e-01    0.000000e+00
  1.479441e-01    0.000000e+00
  1.482431e-01    0.000000e+00
  1.485420e-01    0.000000e+00
  1.488409e-01    0.000000e+00
  1.491399e-01    0.000000e+00
  1.494388e-01    0.000000e+00
  1.497377e-01    0.000000e+00
  1.500367e-01    0.000000e+00
  1.503356e-01    0.000000e+00
  1.506345e-01    0.000000e+00
  1.509334e-01    0.000000e+00
  1.512324e-01    0.000000e+00
  1.515313e-01    0.000000e+00
  1.518302e-01    0.000000e+00
  1.521292e-01    0.000000e+00
  1.524281e-01    0.000000e+00
  1.527270e-01    0.000000e+00
  1.530260e-01    0.000000e+00
  1.533249e-01    0.000000e+00
  1.536238e-01    0.000000e+00
