# == pyFAI calibration ==
# Distance Sample to Detector: 2.266 m
# PONI: 5.659e-02, 4.293e-02 m
# Rotations: 0.000000 0.000000 0.000000 rad
# 
# == Fit2d calibration ==
# Distance Sample-beamCenter: 2266.000 mm
# Center: x=249.594, y=329.012 pix
# Tilt: 0.000 deg  TiltPlanRot: 0.000 deg
# 
# Detector Pilatus 300k	 PixelSize= 1.720e-04, 1.720e-04 m
#    Detector has a mask: True 
#    Detector has a dark current: False 
#    detector has a flat field: False 
# 
# Wavelength: 1.27818e-10 m
# Mask applied: user provided
# Dark current applied: False
# Flat field applied: False
# Polarization factor: None
# Normalization factor: 3748755.3999999994
# --> AL_F127_220301_ad3fba48-e661-4598-b1ce-8116f20c968e_1_r1d.csv
#        q_A^-1             I 
  4.457554e-03    2.009482e-03
  4.756484e-03    1.625919e-03
  5.055415e-03    1.200004e-03
  5.354345e-03    8.553375e-04
  5.653276e-03    6.651985e-04
  5.952206e-03    1.037019e-03
  6.251136e-03    9.360874e-04
  6.550067e-03    8.033743e-04
  6.848997e-03    6.764404e-04
  7.147927e-03    5.743047e-04
  7.446858e-03    4.931629e-04
  7.745788e-03    4.276521e-04
  8.044719e-03    3.741671e-04
  8.343649e-03    3.306109e-04
  8.642579e-03    2.920964e-04
  8.941510e-03    2.600253e-04
  9.240440e-03    2.335947e-04
  9.539371e-03    2.111081e-04
  9.838301e-03    1.912595e-04
  1.013723e-02    1.739278e-04
  1.043616e-02    1.593686e-04
  1.073509e-02    1.475430e-04
  1.103402e-02    1.371944e-04
  1.133295e-02    1.269217e-04
  1.163188e-02    1.186521e-04
  1.193081e-02    1.115842e-04
  1.222974e-02    1.058943e-04
  1.252867e-02    1.001063e-04
  1.282760e-02    9.513328e-05
  1.312654e-02    9.143927e-05
  1.342547e-02    8.765984e-05
  1.372440e-02    8.435322e-05
  1.402333e-02    8.164337e-05
  1.432226e-02    7.956007e-05
  1.462119e-02    7.752112e-05
  1.492012e-02    7.561759e-05
  1.521905e-02    7.426729e-05
  1.551798e-02    7.324651e-05
  1.581691e-02    7.262432e-05
  1.611584e-02    7.242009e-05
  1.641477e-02    7.207617e-05
  1.671370e-02    7.204763e-05
  1.701263e-02    7.247508e-05
  1.731156e-02    7.323035e-05
  1.761049e-02    7.398609e-05
  1.790942e-02    7.507900e-05
  1.820835e-02    7.606122e-05
  1.850728e-02    7.761255e-05
  1.880621e-02    7.935925e-05
  1.910514e-02    8.107425e-05
  1.940407e-02    8.330845e-05
  1.970300e-02    8.574681e-05
  2.000193e-02    8.845627e-05
  2.030086e-02    9.119353e-05
  2.059979e-02    9.418220e-05
  2.089873e-02    9.694096e-05
  2.119766e-02    9.997050e-05
  2.149659e-02    1.034169e-04
  2.179552e-02    1.061890e-04
  2.209445e-02    1.088256e-04
  2.239338e-02    1.123305e-04
  2.269231e-02    1.155640e-04
  2.299124e-02    1.183748e-04
  2.329017e-02    1.205573e-04
  2.358910e-02    1.233143e-04
  2.388803e-02    1.250737e-04
  2.418696e-02    1.268216e-04
  2.448589e-02    1.279906e-04
  2.478482e-02    1.288542e-04
  2.508375e-02    1.284486e-04
  2.538268e-02    1.277948e-04
  2.568161e-02    1.271441e-04
  2.598054e-02    1.254101e-04
  2.627947e-02    1.234505e-04
  2.657840e-02    1.210900e-04
  2.687733e-02    1.182742e-04
  2.717626e-02    1.152080e-04
  2.747519e-02    1.117677e-04
  2.777412e-02    1.083973e-04
  2.807305e-02    1.048612e-04
  2.837198e-02    1.015790e-04
  2.867092e-02    9.830865e-05
  2.896985e-02    9.466543e-05
  2.926878e-02    9.150356e-05
  2.956771e-02    8.861323e-05
  2.986664e-02    8.576609e-05
  3.016557e-02    8.317122e-05
  3.046450e-02    8.054154e-05
  3.076343e-02    7.804553e-05
  3.106236e-02    7.595125e-05
  3.136129e-02    7.365387e-05
  3.166022e-02    7.181780e-05
  3.195915e-02    7.011319e-05
  3.225808e-02    6.832014e-05
  3.255701e-02    6.681911e-05
  3.285594e-02    6.502859e-05
  3.315487e-02    6.365177e-05
  3.345380e-02    6.257911e-05
  3.375273e-02    6.125475e-05
  3.405166e-02    6.004268e-05
  3.435059e-02    5.902495e-05
  3.464952e-02    5.791805e-05
  3.494845e-02    5.717270e-05
  3.524738e-02    5.643963e-05
  3.554631e-02    5.568562e-05
  3.584524e-02    5.489582e-05
  3.614417e-02    5.403969e-05
  3.644310e-02    5.344134e-05
  3.674204e-02    5.288339e-05
  3.704097e-02    5.239377e-05
  3.733990e-02    5.196576e-05
  3.763883e-02    5.117356e-05
  3.793776e-02    5.082701e-05
  3.823669e-02    5.054252e-05
  3.853562e-02    5.008544e-05
  3.883455e-02    4.966972e-05
  3.913348e-02    4.933156e-05
  3.943241e-02    4.892634e-05
  3.973134e-02    4.860641e-05
  4.003027e-02    4.836980e-05
  4.032920e-02    4.812362e-05
  4.062813e-02    4.795889e-05
  4.092706e-02    4.774744e-05
  4.122599e-02    4.731736e-05
  4.152492e-02    4.698986e-05
  4.182385e-02    4.674033e-05
  4.212278e-02    4.642697e-05
  4.242171e-02    4.624160e-05
  4.272064e-02    4.579619e-05
  4.301957e-02    4.553632e-05
  4.331850e-02    4.530605e-05
  4.361743e-02    4.504791e-05
  4.391636e-02    4.456611e-05
  4.421529e-02    4.416993e-05
  4.451423e-02    4.384919e-05
  4.481316e-02    4.370359e-05
  4.511209e-02    4.318601e-05
  4.541102e-02    4.274123e-05
  4.570995e-02    4.236001e-05
  4.600888e-02    4.180859e-05
  4.630781e-02    4.132726e-05
  4.660674e-02    4.101504e-05
  4.690567e-02    4.064996e-05
  4.720460e-02    4.013738e-05
  4.750353e-02    3.942145e-05
  4.780246e-02    3.898117e-05
  4.810139e-02    3.837097e-05
  4.840032e-02    3.788547e-05
  4.869925e-02    3.724530e-05
  4.899818e-02    3.649688e-05
  4.929711e-02    3.581572e-05
  4.959604e-02    3.513182e-05
  4.989497e-02    3.449323e-05
  5.019390e-02    3.404239e-05
  5.049283e-02    3.348723e-05
  5.079176e-02    3.282185e-05
  5.109069e-02    3.214357e-05
  5.138962e-02    3.161730e-05
  5.168855e-02    3.096132e-05
  5.198748e-02    3.044205e-05
  5.228642e-02    2.983060e-05
  5.258535e-02    2.924059e-05
  5.288428e-02    2.844360e-05
  5.318321e-02    2.791015e-05
  5.348214e-02    2.736294e-05
  5.378107e-02    2.670155e-05
  5.408000e-02    2.628738e-05
  5.437893e-02    2.578177e-05
  5.467786e-02    2.515263e-05
  5.497679e-02    2.463290e-05
  5.527572e-02    2.415496e-05
  5.557465e-02    2.366722e-05
  5.587358e-02    2.317967e-05
  5.617251e-02    2.274441e-05
  5.647144e-02    2.231256e-05
  5.677037e-02    2.188171e-05
  5.706930e-02    2.137531e-05
  5.736823e-02    2.101778e-05
  5.766716e-02    2.066709e-05
  5.796609e-02    2.016918e-05
  5.826502e-02    1.986438e-05
  5.856395e-02    1.943512e-05
  5.886288e-02    1.900752e-05
  5.916181e-02    1.867237e-05
  5.946074e-02    1.837652e-05
  5.975967e-02    1.810038e-05
  6.005861e-02    1.774189e-05
  6.035754e-02    1.746484e-05
  6.065647e-02    1.724810e-05
  6.095540e-02    1.700380e-05
  6.125433e-02    1.666771e-05
  6.155326e-02    1.637898e-05
  6.185219e-02    1.608822e-05
  6.215112e-02    1.581051e-05
  6.245005e-02    1.559546e-05
  6.274898e-02    1.537414e-05
  6.304791e-02    1.519250e-05
  6.334684e-02    1.497197e-05
  6.364577e-02    1.479251e-05
  6.394470e-02    1.461854e-05
  6.424363e-02    1.440502e-05
  6.454256e-02    1.414902e-05
  6.484149e-02    1.393086e-05
  6.514042e-02    1.383185e-05
  6.543935e-02    1.362976e-05
  6.573828e-02    1.348421e-05
  6.603721e-02    1.333766e-05
  6.633614e-02    1.314491e-05
  6.663507e-02    1.298700e-05
  6.693400e-02    1.280623e-05
  6.723293e-02    1.268946e-05
  6.753186e-02    1.257581e-05
  6.783080e-02    1.240582e-05
  6.812973e-02    1.230487e-05
  6.842866e-02    1.218028e-05
  6.872759e-02    1.209539e-05
  6.902652e-02    1.201563e-05
  6.932545e-02    1.183927e-05
  6.962438e-02    1.165246e-05
  6.992331e-02    1.158767e-05
  7.022224e-02    1.154945e-05
  7.052117e-02    1.144739e-05
  7.082010e-02    1.130182e-05
  7.111903e-02    1.115622e-05
  7.141796e-02    1.107843e-05
  7.171689e-02    1.102263e-05
  7.201582e-02    1.098902e-05
  7.231475e-02    1.091597e-05
  7.261368e-02    1.081358e-05
  7.291261e-02    1.071551e-05
  7.321154e-02    1.070883e-05
  7.351047e-02    1.069359e-05
  7.380940e-02    1.061169e-05
  7.410833e-02    1.055508e-05
  7.440726e-02    1.046532e-05
  7.470619e-02    1.043912e-05
  7.500512e-02    1.035042e-05
  7.530405e-02    1.024741e-05
  7.560299e-02    1.015495e-05
  7.590192e-02    1.014956e-05
  7.620085e-02    1.011476e-05
  7.649978e-02    1.012277e-05
  7.679871e-02    1.010678e-05
  7.709764e-02    1.006190e-05
  7.739657e-02    9.999227e-06
  7.769550e-02    9.939698e-06
  7.799443e-02    9.878475e-06
  7.829336e-02    9.907821e-06
  7.859229e-02    9.911513e-06
  7.889122e-02    9.893562e-06
  7.919015e-02    9.864248e-06
  7.948908e-02    9.816027e-06
  7.978801e-02    9.843247e-06
  8.008694e-02    9.754947e-06
  8.038587e-02    9.712448e-06
  8.068480e-02    9.715077e-06
  8.098373e-02    9.687530e-06
  8.128266e-02    9.693808e-06
  8.158159e-02    9.682535e-06
  8.188052e-02    9.670093e-06
  8.217945e-02    9.677033e-06
  8.247838e-02    9.677637e-06
  8.277731e-02    9.726401e-06
  8.307624e-02    9.736048e-06
  8.337518e-02    9.731119e-06
  8.367411e-02    9.643249e-06
  8.397304e-02    9.649162e-06
  8.427197e-02    9.662674e-06
  8.457090e-02    9.635157e-06
  8.486983e-02    9.583226e-06
  8.516876e-02    9.560892e-06
  8.546769e-02    9.636089e-06
  8.576662e-02    9.652135e-06
  8.606555e-02    9.692249e-06
  8.636448e-02    9.644494e-06
  8.666341e-02    9.537580e-06
  8.696234e-02    9.505615e-06
  8.726127e-02    9.541610e-06
  8.756020e-02    9.608158e-06
  8.785913e-02    9.587651e-06
  8.815806e-02    9.580833e-06
  8.845699e-02    9.607482e-06
  8.875592e-02    9.604958e-06
  8.905485e-02    9.597386e-06
  8.935378e-02    9.557893e-06
  8.965271e-02    9.592115e-06
  8.995164e-02    9.554418e-06
  9.025057e-02    9.568880e-06
  9.054950e-02    9.627322e-06
  9.084843e-02    9.594069e-06
  9.114737e-02    9.650566e-06
  9.144630e-02    9.693452e-06
  9.174523e-02    9.615384e-06
  9.204416e-02    9.625847e-06
  9.234309e-02    9.695813e-06
  9.264202e-02    9.669384e-06
  9.294095e-02    9.594668e-06
  9.323988e-02    9.540692e-06
  9.353881e-02    9.571379e-06
  9.383774e-02    9.612256e-06
  9.413667e-02    9.639648e-06
  9.443560e-02    9.672589e-06
  9.473453e-02    9.616539e-06
  9.503346e-02    9.589866e-06
  9.533239e-02    9.626449e-06
  9.563132e-02    9.661372e-06
  9.593025e-02    9.608650e-06
  9.622918e-02    9.636589e-06
  9.652811e-02    9.697630e-06
  9.682704e-02    9.706488e-06
  9.712597e-02    9.734095e-06
  9.742490e-02    9.693699e-06
  9.772383e-02    9.676150e-06
  9.802276e-02    9.644903e-06
  9.832169e-02    9.632321e-06
  9.862062e-02    9.598430e-06
  9.891956e-02    9.569331e-06
  9.921849e-02    9.583887e-06
  9.951742e-02    9.596767e-06
  9.981635e-02    9.616244e-06
  1.001153e-01    9.635134e-06
  1.004142e-01    9.623493e-06
  1.007131e-01    9.583484e-06
  1.010121e-01    9.583481e-06
  1.013110e-01    9.565524e-06
  1.016099e-01    9.602421e-06
  1.019089e-01    9.547058e-06
  1.022078e-01    9.595216e-06
  1.025067e-01    9.570610e-06
  1.028057e-01    9.549720e-06
  1.031046e-01    9.577279e-06
  1.034035e-01    9.506213e-06
  1.037024e-01    9.533701e-06
  1.040014e-01    9.561445e-06
  1.043003e-01    9.536296e-06
  1.045992e-01    9.558830e-06
  1.048982e-01    9.556276e-06
  1.051971e-01    9.543026e-06
  1.054960e-01    9.502228e-06
  1.057950e-01    9.464628e-06
  1.060939e-01    9.500094e-06
  1.063928e-01    9.552497e-06
  1.066917e-01    9.507889e-06
  1.069907e-01    9.476404e-06
  1.072896e-01    9.438446e-06
  1.075885e-01    9.403467e-06
  1.078875e-01    9.479618e-06
  1.081864e-01    9.472652e-06
  1.084853e-01    9.468989e-06
  1.087843e-01    9.521514e-06
  1.090832e-01    9.533032e-06
  1.093821e-01    9.476621e-06
  1.096810e-01    9.475846e-06
  1.099800e-01    9.471310e-06
  1.102789e-01    9.465084e-06
  1.105778e-01    9.452359e-06
  1.108768e-01    9.369433e-06
  1.111757e-01    9.308305e-06
  1.114746e-01    9.290954e-06
  1.117736e-01    9.290940e-06
  1.120725e-01    9.181495e-06
  1.123714e-01    9.119785e-06
  1.126704e-01    9.129384e-06
  1.129693e-01    9.083814e-06
  1.132682e-01    8.903402e-06
  1.135671e-01    8.652742e-06
  1.138661e-01    8.539560e-06
  1.141650e-01    8.550230e-06
  1.144639e-01    8.485005e-06
  1.147629e-01    8.413878e-06
  1.150618e-01    8.316083e-06
  1.153607e-01    8.277589e-06
  1.156597e-01    8.256599e-06
  1.159586e-01    8.235349e-06
  1.162575e-01    8.199697e-06
  1.165564e-01    8.219971e-06
  1.168554e-01    8.261846e-06
  1.171543e-01    8.211347e-06
  1.174532e-01    8.219590e-06
  1.177522e-01    8.219502e-06
  1.180511e-01    8.109871e-06
  1.183500e-01    8.106179e-06
  1.186490e-01    8.180592e-06
  1.189479e-01    8.336883e-06
  1.192468e-01    8.365007e-06
  1.195458e-01    8.167609e-06
  1.198447e-01    7.978753e-06
  1.201436e-01    8.049576e-06
  1.204425e-01    8.034735e-06
  1.207415e-01    7.955511e-06
  1.210404e-01    8.543899e-06
  1.213393e-01    0.000000e+00
  1.216383e-01    0.000000e+00
  1.219372e-01    0.000000e+00
  1.222361e-01    0.000000e+00
  1.225351e-01    0.000000e+00
  1.228340e-01    0.000000e+00
  1.231329e-01    0.000000e+00
  1.234318e-01    0.000000e+00
  1.237308e-01    0.000000e+00
  1.240297e-01    0.000000e+00
  1.243286e-01    0.000000e+00
  1.246276e-01    0.000000e+00
  1.249265e-01    0.000000e+00
  1.252254e-01    0.000000e+00
  1.255244e-01    0.000000e+00
  1.258233e-01    0.000000e+00
  1.261222e-01    0.000000e+00
  1.264212e-01    0.000000e+00
  1.267201e-01    0.000000e+00
  1.270190e-01    0.000000e+00
  1.273179e-01    0.000000e+00
  1.276169e-01    0.000000e+00
  1.279158e-01    0.000000e+00
  1.282147e-01    0.000000e+00
  1.285137e-01    0.000000e+00
  1.288126e-01    0.000000e+00
  1.291115e-01    0.000000e+00
  1.294105e-01    0.000000e+00
  1.297094e-01    0.000000e+00
  1.300083e-01    0.000000e+00
  1.303072e-01    0.000000e+00
  1.306062e-01    0.000000e+00
  1.309051e-01    0.000000e+00
  1.312040e-01    0.000000e+00
  1.315030e-01    0.000000e+00
  1.318019e-01    0.000000e+00
  1.321008e-01    0.000000e+00
  1.323998e-01    0.000000e+00
  1.326987e-01    0.000000e+00
  1.329976e-01    0.000000e+00
  1.332965e-01    0.000000e+00
  1.335955e-01    0.000000e+00
  1.338944e-01    0.000000e+00
  1.341933e-01    0.000000e+00
  1.344923e-01    0.000000e+00
  1.347912e-01    0.000000e+00
  1.350901e-01    0.000000e+00
  1.353891e-01    0.000000e+00
  1.356880e-01    0.000000e+00
  1.359869e-01    0.000000e+00
  1.362859e-01    0.000000e+00
  1.365848e-01    0.000000e+00
  1.368837e-01    0.000000e+00
  1.371826e-01    0.000000e+00
  1.374816e-01    0.000000e+00
  1.377805e-01    0.000000e+00
  1.380794e-01    0.000000e+00
  1.383784e-01    0.000000e+00
  1.386773e-01    0.000000e+00
  1.389762e-01    0.000000e+00
  1.392752e-01    0.000000e+00
  1.395741e-01    0.000000e+00
  1.398730e-01    0.000000e+00
  1.401719e-01    0.000000e+00
  1.404709e-01    0.000000e+00
  1.407698e-01    0.000000e+00
  1.410687e-01    0.000000e+00
  1.413677e-01    0.000000e+00
  1.416666e-01    0.000000e+00
  1.419655e-01    0.000000e+00
  1.422645e-01    0.000000e+00
  1.425634e-01    0.000000e+00
  1.428623e-01    0.000000e+00
  1.431613e-01    0.000000e+00
  1.434602e-01    0.000000e+00
  1.437591e-01    0.000000e+00
  1.440580e-01    0.000000e+00
  1.443570e-01    0.000000e+00
  1.446559e-01    0.000000e+00
  1.449548e-01    0.000000e+00
  1.452538e-01    0.000000e+00
  1.455527e-01    0.000000e+00
  1.458516e-01    0.000000e+00
  1.461506e-01    0.000000e+00
  1.464495e-01    0.000000e+00
  1.467484e-01    0.000000e+00
  1.470473e-01    0.000000e+00
  1.473463e-01    0.000000e+00
  1.476452e-01    0.000000e+00
  1.479441e-01    0.000000e+00
  1.482431e-01    0.000000e+00
  1.485420e-01    0.000000e+00
  1.488409e-01    0.000000e+00
  1.491399e-01    0.000000e+00
  1.494388e-01    0.000000e+00
  1.497377e-01    0.000000e+00
  1.500367e-01    0.000000e+00
  1.503356e-01    0.000000e+00
  1.506345e-01    0.000000e+00
  1.509334e-01    0.000000e+00
  1.512324e-01    0.000000e+00
  1.515313e-01    0.000000e+00
  1.518302e-01    0.000000e+00
  1.521292e-01    0.000000e+00
  1.524281e-01    0.000000e+00
  1.527270e-01    0.000000e+00
  1.530260e-01    0.000000e+00
  1.533249e-01    0.000000e+00
  1.536238e-01    0.000000e+00
