# == pyFAI calibration ==
# Distance Sample to Detector: 2.266 m
# PONI: 5.659e-02, 4.293e-02 m
# Rotations: 0.000000 0.000000 0.000000 rad
# 
# == Fit2d calibration ==
# Distance Sample-beamCenter: 2266.000 mm
# Center: x=249.594, y=329.012 pix
# Tilt: 0.000 deg  TiltPlanRot: 0.000 deg
# 
# Detector Pilatus 300k	 PixelSize= 1.720e-04, 1.720e-04 m
#    Detector has a mask: True 
#    Detector has a dark current: False 
#    detector has a flat field: False 
# 
# Wavelength: 1.27818e-10 m
# Mask applied: user provided
# Dark current applied: False
# Flat field applied: False
# Polarization factor: None
# Normalization factor: 12200143.8
# --> AL_F127_220226_1d54f0ef-5e37-46eb-8bdd-a9fea3704c58_0_r1d.csv
#        q_A^-1             I 
  4.457554e-03    1.376983e-03
  4.756484e-03    1.092323e-03
  5.055415e-03    7.832211e-04
  5.354345e-03    5.525196e-04
  5.653276e-03    4.290282e-04
  5.952206e-03    6.892422e-04
  6.251136e-03    6.291164e-04
  6.550067e-03    5.490234e-04
  6.848997e-03    4.686074e-04
  7.147927e-03    3.958010e-04
  7.446858e-03    3.392955e-04
  7.745788e-03    2.913996e-04
  8.044719e-03    2.517130e-04
  8.343649e-03    2.205155e-04
  8.642579e-03    1.930716e-04
  8.941510e-03    1.703069e-04
  9.240440e-03    1.513458e-04
  9.539371e-03    1.346499e-04
  9.838301e-03    1.197798e-04
  1.013723e-02    1.077157e-04
  1.043616e-02    9.717566e-05
  1.073509e-02    8.736187e-05
  1.103402e-02    7.945014e-05
  1.133295e-02    7.210726e-05
  1.163188e-02    6.577573e-05
  1.193081e-02    6.050421e-05
  1.222974e-02    5.548116e-05
  1.252867e-02    5.101681e-05
  1.282760e-02    4.716946e-05
  1.312654e-02    4.358523e-05
  1.342547e-02    4.033526e-05
  1.372440e-02    3.739357e-05
  1.402333e-02    3.484074e-05
  1.432226e-02    3.262765e-05
  1.462119e-02    3.053400e-05
  1.492012e-02    2.860570e-05
  1.521905e-02    2.690031e-05
  1.551798e-02    2.534299e-05
  1.581691e-02    2.384117e-05
  1.611584e-02    2.256768e-05
  1.641477e-02    2.142643e-05
  1.671370e-02    2.026791e-05
  1.701263e-02    1.919188e-05
  1.731156e-02    1.823190e-05
  1.761049e-02    1.748105e-05
  1.790942e-02    1.672502e-05
  1.820835e-02    1.599363e-05
  1.850728e-02    1.537403e-05
  1.880621e-02    1.472732e-05
  1.910514e-02    1.415113e-05
  1.940407e-02    1.361547e-05
  1.970300e-02    1.317176e-05
  2.000193e-02    1.267142e-05
  2.030086e-02    1.224891e-05
  2.059979e-02    1.182220e-05
  2.089873e-02    1.146550e-05
  2.119766e-02    1.116626e-05
  2.149659e-02    1.088898e-05
  2.179552e-02    1.058865e-05
  2.209445e-02    1.039596e-05
  2.239338e-02    1.015417e-05
  2.269231e-02    9.818476e-06
  2.299124e-02    9.576758e-06
  2.329017e-02    9.366525e-06
  2.358910e-02    9.151107e-06
  2.388803e-02    8.905375e-06
  2.418696e-02    8.705625e-06
  2.448589e-02    8.596962e-06
  2.478482e-02    8.452063e-06
  2.508375e-02    8.262428e-06
  2.538268e-02    8.107824e-06
  2.568161e-02    8.027521e-06
  2.598054e-02    7.937413e-06
  2.627947e-02    7.858904e-06
  2.657840e-02    7.699936e-06
  2.687733e-02    7.607168e-06
  2.717626e-02    7.504008e-06
  2.747519e-02    7.395231e-06
  2.777412e-02    7.325928e-06
  2.807305e-02    7.299123e-06
  2.837198e-02    7.185120e-06
  2.867092e-02    7.071859e-06
  2.896985e-02    6.964838e-06
  2.926878e-02    6.880358e-06
  2.956771e-02    6.859442e-06
  2.986664e-02    6.793991e-06
  3.016557e-02    6.732796e-06
  3.046450e-02    6.679531e-06
  3.076343e-02    6.631578e-06
  3.106236e-02    6.579411e-06
  3.136129e-02    6.548848e-06
  3.166022e-02    6.419010e-06
  3.195915e-02    6.351420e-06
  3.225808e-02    6.348260e-06
  3.255701e-02    6.312081e-06
  3.285594e-02    6.225111e-06
  3.315487e-02    6.221486e-06
  3.345380e-02    6.201567e-06
  3.375273e-02    6.099638e-06
  3.405166e-02    6.036340e-06
  3.435059e-02    6.020762e-06
  3.464952e-02    5.997421e-06
  3.494845e-02    5.948487e-06
  3.524738e-02    5.895050e-06
  3.554631e-02    5.847884e-06
  3.584524e-02    5.770615e-06
  3.614417e-02    5.731278e-06
  3.644310e-02    5.741651e-06
  3.674204e-02    5.693089e-06
  3.704097e-02    5.671359e-06
  3.733990e-02    5.618142e-06
  3.763883e-02    5.606379e-06
  3.793776e-02    5.579882e-06
  3.823669e-02    5.517075e-06
  3.853562e-02    5.463927e-06
  3.883455e-02    5.426618e-06
  3.913348e-02    5.397013e-06
  3.943241e-02    5.387168e-06
  3.973134e-02    5.399061e-06
  4.003027e-02    5.406858e-06
  4.032920e-02    5.354494e-06
  4.062813e-02    5.298808e-06
  4.092706e-02    5.293089e-06
  4.122599e-02    5.298618e-06
  4.152492e-02    5.309286e-06
  4.182385e-02    5.272297e-06
  4.212278e-02    5.219305e-06
  4.242171e-02    5.247795e-06
  4.272064e-02    5.232694e-06
  4.301957e-02    5.176768e-06
  4.331850e-02    5.192925e-06
  4.361743e-02    5.174733e-06
  4.391636e-02    5.157358e-06
  4.421529e-02    5.168678e-06
  4.451423e-02    5.161433e-06
  4.481316e-02    5.140966e-06
  4.511209e-02    5.162877e-06
  4.541102e-02    5.142883e-06
  4.570995e-02    5.133156e-06
  4.600888e-02    5.125216e-06
  4.630781e-02    5.107162e-06
  4.660674e-02    5.106388e-06
  4.690567e-02    5.131381e-06
  4.720460e-02    5.110496e-06
  4.750353e-02    5.100962e-06
  4.780246e-02    5.094792e-06
  4.810139e-02    5.060514e-06
  4.840032e-02    5.082374e-06
  4.869925e-02    5.071866e-06
  4.899818e-02    5.054152e-06
  4.929711e-02    5.073766e-06
  4.959604e-02    5.078963e-06
  4.989497e-02    5.081250e-06
  5.019390e-02    5.065225e-06
  5.049283e-02    5.066295e-06
  5.079176e-02    5.041797e-06
  5.109069e-02    5.086486e-06
  5.138962e-02    5.111799e-06
  5.168855e-02    5.152362e-06
  5.198748e-02    5.213229e-06
  5.228642e-02    5.159848e-06
  5.258535e-02    5.072236e-06
  5.288428e-02    5.021466e-06
  5.318321e-02    5.021727e-06
  5.348214e-02    5.038680e-06
  5.378107e-02    5.020296e-06
  5.408000e-02    5.023022e-06
  5.437893e-02    5.006438e-06
  5.467786e-02    4.992197e-06
  5.497679e-02    5.018134e-06
  5.527572e-02    5.035758e-06
  5.557465e-02    5.029238e-06
  5.587358e-02    5.020855e-06
  5.617251e-02    5.034559e-06
  5.647144e-02    4.998565e-06
  5.677037e-02    4.995286e-06
  5.706930e-02    5.031718e-06
  5.736823e-02    5.017496e-06
  5.766716e-02    5.025377e-06
  5.796609e-02    5.040273e-06
  5.826502e-02    5.071656e-06
  5.856395e-02    5.063518e-06
  5.886288e-02    5.044919e-06
  5.916181e-02    5.031534e-06
  5.946074e-02    5.052280e-06
  5.975967e-02    5.059740e-06
  6.005861e-02    5.056815e-06
  6.035754e-02    5.065813e-06
  6.065647e-02    5.067492e-06
  6.095540e-02    5.099850e-06
  6.125433e-02    5.164522e-06
  6.155326e-02    5.211220e-06
  6.185219e-02    5.165999e-06
  6.215112e-02    5.112540e-06
  6.245005e-02    5.067218e-06
  6.274898e-02    5.043418e-06
  6.304791e-02    5.074041e-06
  6.334684e-02    5.103798e-06
  6.364577e-02    5.097463e-06
  6.394470e-02    5.094455e-06
  6.424363e-02    5.127911e-06
  6.454256e-02    5.118045e-06
  6.484149e-02    5.094878e-06
  6.514042e-02    5.104288e-06
  6.543935e-02    5.106826e-06
  6.573828e-02    5.130770e-06
  6.603721e-02    5.135281e-06
  6.633614e-02    5.128201e-06
  6.663507e-02    5.112105e-06
  6.693400e-02    5.145633e-06
  6.723293e-02    5.128182e-06
  6.753186e-02    5.119363e-06
  6.783080e-02    5.147352e-06
  6.812973e-02    5.151627e-06
  6.842866e-02    5.167725e-06
  6.872759e-02    5.208898e-06
  6.902652e-02    5.204316e-06
  6.932545e-02    5.174183e-06
  6.962438e-02    5.178614e-06
  6.992331e-02    5.173851e-06
  7.022224e-02    5.167636e-06
  7.052117e-02    5.156480e-06
  7.082010e-02    5.163866e-06
  7.111903e-02    5.183280e-06
  7.141796e-02    5.180698e-06
  7.171689e-02    5.199141e-06
  7.201582e-02    5.219753e-06
  7.231475e-02    5.205063e-06
  7.261368e-02    5.180291e-06
  7.291261e-02    5.204274e-06
  7.321154e-02    5.216085e-06
  7.351047e-02    5.216016e-06
  7.380940e-02    5.212926e-06
  7.410833e-02    5.210148e-06
  7.440726e-02    5.202708e-06
  7.470619e-02    5.204511e-06
  7.500512e-02    5.191848e-06
  7.530405e-02    5.226143e-06
  7.560299e-02    5.232897e-06
  7.590192e-02    5.191707e-06
  7.620085e-02    5.199660e-06
  7.649978e-02    5.224763e-06
  7.679871e-02    5.206331e-06
  7.709764e-02    5.201017e-06
  7.739657e-02    5.226238e-06
  7.769550e-02    5.210753e-06
  7.799443e-02    5.187406e-06
  7.829336e-02    5.195006e-06
  7.859229e-02    5.174070e-06
  7.889122e-02    5.187033e-06
  7.919015e-02    5.193453e-06
  7.948908e-02    5.186727e-06
  7.978801e-02    5.187476e-06
  8.008694e-02    5.177479e-06
  8.038587e-02    5.162942e-06
  8.068480e-02    5.152742e-06
  8.098373e-02    5.148182e-06
  8.128266e-02    5.147535e-06
  8.158159e-02    5.151826e-06
  8.188052e-02    5.154403e-06
  8.217945e-02    5.147313e-06
  8.247838e-02    5.142932e-06
  8.277731e-02    5.121549e-06
  8.307624e-02    5.120842e-06
  8.337518e-02    5.118407e-06
  8.367411e-02    5.099811e-06
  8.397304e-02    5.099222e-06
  8.427197e-02    5.119778e-06
  8.457090e-02    5.113813e-06
  8.486983e-02    5.077561e-06
  8.516876e-02    5.088409e-06
  8.546769e-02    5.098117e-06
  8.576662e-02    5.094502e-06
  8.606555e-02    5.061414e-06
  8.636448e-02    5.049568e-06
  8.666341e-02    5.056335e-06
  8.696234e-02    5.056389e-06
  8.726127e-02    5.056248e-06
  8.756020e-02    5.046885e-06
  8.785913e-02    5.020277e-06
  8.815806e-02    5.018714e-06
  8.845699e-02    5.000729e-06
  8.875592e-02    5.022067e-06
  8.905485e-02    5.012353e-06
  8.935378e-02    5.011203e-06
  8.965271e-02    5.018530e-06
  8.995164e-02    4.985549e-06
  9.025057e-02    4.983262e-06
  9.054950e-02    4.988572e-06
  9.084843e-02    4.984514e-06
  9.114737e-02    4.986443e-06
  9.144630e-02    4.967501e-06
  9.174523e-02    4.945350e-06
  9.204416e-02    4.934011e-06
  9.234309e-02    4.926239e-06
  9.264202e-02    4.936554e-06
  9.294095e-02    4.944681e-06
  9.323988e-02    4.925045e-06
  9.353881e-02    4.911372e-06
  9.383774e-02    4.920230e-06
  9.413667e-02    4.930931e-06
  9.443560e-02    4.932403e-06
  9.473453e-02    4.898277e-06
  9.503346e-02    4.873958e-06
  9.533239e-02    4.886564e-06
  9.563132e-02    4.884177e-06
  9.593025e-02    4.888297e-06
  9.622918e-02    4.897869e-06
  9.652811e-02    4.915193e-06
  9.682704e-02    4.928228e-06
  9.712597e-02    4.940120e-06
  9.742490e-02    4.923550e-06
  9.772383e-02    4.915056e-06
  9.802276e-02    4.889464e-06
  9.832169e-02    4.847191e-06
  9.862062e-02    4.850181e-06
  9.891956e-02    4.824987e-06
  9.921849e-02    4.798439e-06
  9.951742e-02    4.810214e-06
  9.981635e-02    4.794135e-06
  1.001153e-01    4.798674e-06
  1.004142e-01    4.797599e-06
  1.007131e-01    4.798022e-06
  1.010121e-01    4.809036e-06
  1.013110e-01    4.767706e-06
  1.016099e-01    4.770031e-06
  1.019089e-01    4.762437e-06
  1.022078e-01    4.752774e-06
  1.025067e-01    4.747230e-06
  1.028057e-01    4.728626e-06
  1.031046e-01    4.742153e-06
  1.034035e-01    4.723794e-06
  1.037024e-01    4.723229e-06
  1.040014e-01    4.730505e-06
  1.043003e-01    4.713989e-06
  1.045992e-01    4.682116e-06
  1.048982e-01    4.682787e-06
  1.051971e-01    4.694924e-06
  1.054960e-01    4.684243e-06
  1.057950e-01    4.686419e-06
  1.060939e-01    4.670409e-06
  1.063928e-01    4.652109e-06
  1.066917e-01    4.653956e-06
  1.069907e-01    4.654879e-06
  1.072896e-01    4.651439e-06
  1.075885e-01    4.661971e-06
  1.078875e-01    4.660152e-06
  1.081864e-01    4.626999e-06
  1.084853e-01    4.616914e-06
  1.087843e-01    4.645474e-06
  1.090832e-01    4.635920e-06
  1.093821e-01    4.610914e-06
  1.096810e-01    4.592956e-06
  1.099800e-01    4.581914e-06
  1.102789e-01    4.579651e-06
  1.105778e-01    4.552197e-06
  1.108768e-01    4.564040e-06
  1.111757e-01    4.560805e-06
  1.114746e-01    4.542959e-06
  1.117736e-01    4.518683e-06
  1.120725e-01    4.514611e-06
  1.123714e-01    4.505896e-06
  1.126704e-01    4.488354e-06
  1.129693e-01    4.468389e-06
  1.132682e-01    4.486032e-06
  1.135671e-01    4.487177e-06
  1.138661e-01    4.477612e-06
  1.141650e-01    4.479591e-06
  1.144639e-01    4.435981e-06
  1.147629e-01    4.434233e-06
  1.150618e-01    4.426177e-06
  1.153607e-01    4.448835e-06
  1.156597e-01    4.443815e-06
  1.159586e-01    4.452620e-06
  1.162575e-01    4.412509e-06
  1.165564e-01    4.403067e-06
  1.168554e-01    4.423334e-06
  1.171543e-01    4.437397e-06
  1.174532e-01    4.459031e-06
  1.177522e-01    4.413839e-06
  1.180511e-01    4.390655e-06
  1.183500e-01    4.431769e-06
  1.186490e-01    4.455387e-06
  1.189479e-01    4.439773e-06
  1.192468e-01    4.427728e-06
  1.195458e-01    4.378775e-06
  1.198447e-01    4.369589e-06
  1.201436e-01    4.384220e-06
  1.204425e-01    4.352734e-06
  1.207415e-01    4.394206e-06
  1.210404e-01    4.184065e-06
  1.213393e-01    0.000000e+00
  1.216383e-01    0.000000e+00
  1.219372e-01    0.000000e+00
  1.222361e-01    0.000000e+00
  1.225351e-01    0.000000e+00
  1.228340e-01    0.000000e+00
  1.231329e-01    0.000000e+00
  1.234318e-01    0.000000e+00
  1.237308e-01    0.000000e+00
  1.240297e-01    0.000000e+00
  1.243286e-01    0.000000e+00
  1.246276e-01    0.000000e+00
  1.249265e-01    0.000000e+00
  1.252254e-01    0.000000e+00
  1.255244e-01    0.000000e+00
  1.258233e-01    0.000000e+00
  1.261222e-01    0.000000e+00
  1.264212e-01    0.000000e+00
  1.267201e-01    0.000000e+00
  1.270190e-01    0.000000e+00
  1.273179e-01    0.000000e+00
  1.276169e-01    0.000000e+00
  1.279158e-01    0.000000e+00
  1.282147e-01    0.000000e+00
  1.285137e-01    0.000000e+00
  1.288126e-01    0.000000e+00
  1.291115e-01    0.000000e+00
  1.294105e-01    0.000000e+00
  1.297094e-01    0.000000e+00
  1.300083e-01    0.000000e+00
  1.303072e-01    0.000000e+00
  1.306062e-01    0.000000e+00
  1.309051e-01    0.000000e+00
  1.312040e-01    0.000000e+00
  1.315030e-01    0.000000e+00
  1.318019e-01    0.000000e+00
  1.321008e-01    0.000000e+00
  1.323998e-01    0.000000e+00
  1.326987e-01    0.000000e+00
  1.329976e-01    0.000000e+00
  1.332965e-01    0.000000e+00
  1.335955e-01    0.000000e+00
  1.338944e-01    0.000000e+00
  1.341933e-01    0.000000e+00
  1.344923e-01    0.000000e+00
  1.347912e-01    0.000000e+00
  1.350901e-01    0.000000e+00
  1.353891e-01    0.000000e+00
  1.356880e-01    0.000000e+00
  1.359869e-01    0.000000e+00
  1.362859e-01    0.000000e+00
  1.365848e-01    0.000000e+00
  1.368837e-01    0.000000e+00
  1.371826e-01    0.000000e+00
  1.374816e-01    0.000000e+00
  1.377805e-01    0.000000e+00
  1.380794e-01    0.000000e+00
  1.383784e-01    0.000000e+00
  1.386773e-01    0.000000e+00
  1.389762e-01    0.000000e+00
  1.392752e-01    0.000000e+00
  1.395741e-01    0.000000e+00
  1.398730e-01    0.000000e+00
  1.401719e-01    0.000000e+00
  1.404709e-01    0.000000e+00
  1.407698e-01    0.000000e+00
  1.410687e-01    0.000000e+00
  1.413677e-01    0.000000e+00
  1.416666e-01    0.000000e+00
  1.419655e-01    0.000000e+00
  1.422645e-01    0.000000e+00
  1.425634e-01    0.000000e+00
  1.428623e-01    0.000000e+00
  1.431613e-01    0.000000e+00
  1.434602e-01    0.000000e+00
  1.437591e-01    0.000000e+00
  1.440580e-01    0.000000e+00
  1.443570e-01    0.000000e+00
  1.446559e-01    0.000000e+00
  1.449548e-01    0.000000e+00
  1.452538e-01    0.000000e+00
  1.455527e-01    0.000000e+00
  1.458516e-01    0.000000e+00
  1.461506e-01    0.000000e+00
  1.464495e-01    0.000000e+00
  1.467484e-01    0.000000e+00
  1.470473e-01    0.000000e+00
  1.473463e-01    0.000000e+00
  1.476452e-01    0.000000e+00
  1.479441e-01    0.000000e+00
  1.482431e-01    0.000000e+00
  1.485420e-01    0.000000e+00
  1.488409e-01    0.000000e+00
  1.491399e-01    0.000000e+00
  1.494388e-01    0.000000e+00
  1.497377e-01    0.000000e+00
  1.500367e-01    0.000000e+00
  1.503356e-01    0.000000e+00
  1.506345e-01    0.000000e+00
  1.509334e-01    0.000000e+00
  1.512324e-01    0.000000e+00
  1.515313e-01    0.000000e+00
  1.518302e-01    0.000000e+00
  1.521292e-01    0.000000e+00
  1.524281e-01    0.000000e+00
  1.527270e-01    0.000000e+00
  1.530260e-01    0.000000e+00
  1.533249e-01    0.000000e+00
  1.536238e-01    0.000000e+00
