# == pyFAI calibration ==
# Distance Sample to Detector: 2.266 m
# PONI: 5.659e-02, 4.293e-02 m
# Rotations: 0.000000 0.000000 0.000000 rad
# 
# == Fit2d calibration ==
# Distance Sample-beamCenter: 2266.000 mm
# Center: x=249.594, y=329.012 pix
# Tilt: 0.000 deg  TiltPlanRot: 0.000 deg
# 
# Detector Pilatus 300k	 PixelSize= 1.720e-04, 1.720e-04 m
#    Detector has a mask: True 
#    Detector has a dark current: False 
#    detector has a flat field: False 
# 
# Wavelength: 1.27818e-10 m
# Mask applied: user provided
# Dark current applied: False
# Flat field applied: False
# Polarization factor: None
# Normalization factor: 30640861.0
# --> AL_F127_220228_32670c12-3a67-4c6a-a1a6-0fd1b8e1467b_0_r1d.csv
#        q_A^-1             I 
  4.457554e-03    1.348185e-03
  4.756484e-03    1.072153e-03
  5.055415e-03    7.771043e-04
  5.354345e-03    5.538385e-04
  5.653276e-03    4.329889e-04
  5.952206e-03    7.070819e-04
  6.251136e-03    6.421520e-04
  6.550067e-03    5.520096e-04
  6.848997e-03    4.664334e-04
  7.147927e-03    3.928783e-04
  7.446858e-03    3.351676e-04
  7.745788e-03    2.875690e-04
  8.044719e-03    2.480544e-04
  8.343649e-03    2.167176e-04
  8.642579e-03    1.897509e-04
  8.941510e-03    1.670986e-04
  9.240440e-03    1.477637e-04
  9.539371e-03    1.311795e-04
  9.838301e-03    1.169839e-04
  1.013723e-02    1.049060e-04
  1.043616e-02    9.444907e-05
  1.073509e-02    8.512031e-05
  1.103402e-02    7.709745e-05
  1.133295e-02    7.021202e-05
  1.163188e-02    6.388478e-05
  1.193081e-02    5.834869e-05
  1.222974e-02    5.344936e-05
  1.252867e-02    4.902340e-05
  1.282760e-02    4.515149e-05
  1.312654e-02    4.182940e-05
  1.342547e-02    3.867957e-05
  1.372440e-02    3.582207e-05
  1.402333e-02    3.331640e-05
  1.432226e-02    3.104615e-05
  1.462119e-02    2.893512e-05
  1.492012e-02    2.701346e-05
  1.521905e-02    2.533110e-05
  1.551798e-02    2.388693e-05
  1.581691e-02    2.247820e-05
  1.611584e-02    2.110202e-05
  1.641477e-02    1.990567e-05
  1.671370e-02    1.878294e-05
  1.701263e-02    1.777823e-05
  1.731156e-02    1.688740e-05
  1.761049e-02    1.609065e-05
  1.790942e-02    1.532385e-05
  1.820835e-02    1.466026e-05
  1.850728e-02    1.402173e-05
  1.880621e-02    1.338615e-05
  1.910514e-02    1.280182e-05
  1.940407e-02    1.225131e-05
  1.970300e-02    1.174562e-05
  2.000193e-02    1.132008e-05
  2.030086e-02    1.091691e-05
  2.059979e-02    1.054230e-05
  2.089873e-02    1.017404e-05
  2.119766e-02    9.819681e-06
  2.149659e-02    9.494272e-06
  2.179552e-02    9.190423e-06
  2.209445e-02    8.905253e-06
  2.239338e-02    8.639691e-06
  2.269231e-02    8.428489e-06
  2.299124e-02    8.217134e-06
  2.329017e-02    7.980991e-06
  2.358910e-02    7.778428e-06
  2.388803e-02    7.580026e-06
  2.418696e-02    7.405183e-06
  2.448589e-02    7.239088e-06
  2.478482e-02    7.083025e-06
  2.508375e-02    6.962017e-06
  2.538268e-02    6.810096e-06
  2.568161e-02    6.666470e-06
  2.598054e-02    6.535889e-06
  2.627947e-02    6.414279e-06
  2.657840e-02    6.326540e-06
  2.687733e-02    6.240391e-06
  2.717626e-02    6.149720e-06
  2.747519e-02    6.008351e-06
  2.777412e-02    5.920165e-06
  2.807305e-02    5.853818e-06
  2.837198e-02    5.782428e-06
  2.867092e-02    5.709930e-06
  2.896985e-02    5.620224e-06
  2.926878e-02    5.542187e-06
  2.956771e-02    5.479256e-06
  2.986664e-02    5.425607e-06
  3.016557e-02    5.378280e-06
  3.046450e-02    5.312104e-06
  3.076343e-02    5.267391e-06
  3.106236e-02    5.222602e-06
  3.136129e-02    5.158254e-06
  3.166022e-02    5.096021e-06
  3.195915e-02    5.068053e-06
  3.225808e-02    5.005411e-06
  3.255701e-02    4.958911e-06
  3.285594e-02    4.885838e-06
  3.315487e-02    4.861432e-06
  3.345380e-02    4.817650e-06
  3.375273e-02    4.759396e-06
  3.405166e-02    4.737487e-06
  3.435059e-02    4.726079e-06
  3.464952e-02    4.679747e-06
  3.494845e-02    4.643467e-06
  3.524738e-02    4.574802e-06
  3.554631e-02    4.511487e-06
  3.584524e-02    4.492844e-06
  3.614417e-02    4.479551e-06
  3.644310e-02    4.448719e-06
  3.674204e-02    4.399426e-06
  3.704097e-02    4.361755e-06
  3.733990e-02    4.328237e-06
  3.763883e-02    4.298037e-06
  3.793776e-02    4.273841e-06
  3.823669e-02    4.288124e-06
  3.853562e-02    4.258875e-06
  3.883455e-02    4.210886e-06
  3.913348e-02    4.191117e-06
  3.943241e-02    4.179990e-06
  3.973134e-02    4.147240e-06
  4.003027e-02    4.119921e-06
  4.032920e-02    4.086346e-06
  4.062813e-02    4.075725e-06
  4.092706e-02    4.076439e-06
  4.122599e-02    4.085534e-06
  4.152492e-02    4.048427e-06
  4.182385e-02    4.020364e-06
  4.212278e-02    4.004461e-06
  4.242171e-02    4.001126e-06
  4.272064e-02    3.989481e-06
  4.301957e-02    3.964341e-06
  4.331850e-02    3.964882e-06
  4.361743e-02    3.961266e-06
  4.391636e-02    3.927272e-06
  4.421529e-02    3.923905e-06
  4.451423e-02    3.928670e-06
  4.481316e-02    3.922692e-06
  4.511209e-02    3.892362e-06
  4.541102e-02    3.890453e-06
  4.570995e-02    3.891280e-06
  4.600888e-02    3.891128e-06
  4.630781e-02    3.878898e-06
  4.660674e-02    3.878763e-06
  4.690567e-02    3.887881e-06
  4.720460e-02    3.872304e-06
  4.750353e-02    3.871294e-06
  4.780246e-02    3.888218e-06
  4.810139e-02    3.872140e-06
  4.840032e-02    3.868986e-06
  4.869925e-02    3.855053e-06
  4.899818e-02    3.851578e-06
  4.929711e-02    3.868305e-06
  4.959604e-02    3.882219e-06
  4.989497e-02    3.874763e-06
  5.019390e-02    3.871658e-06
  5.049283e-02    3.882790e-06
  5.079176e-02    3.877497e-06
  5.109069e-02    3.876707e-06
  5.138962e-02    3.903302e-06
  5.168855e-02    3.952534e-06
  5.198748e-02    3.991892e-06
  5.228642e-02    3.978633e-06
  5.258535e-02    3.889724e-06
  5.288428e-02    3.835684e-06
  5.318321e-02    3.843017e-06
  5.348214e-02    3.864865e-06
  5.378107e-02    3.859914e-06
  5.408000e-02    3.845451e-06
  5.437893e-02    3.845721e-06
  5.467786e-02    3.848828e-06
  5.497679e-02    3.863814e-06
  5.527572e-02    3.861357e-06
  5.557465e-02    3.862766e-06
  5.587358e-02    3.870313e-06
  5.617251e-02    3.863329e-06
  5.647144e-02    3.864060e-06
  5.677037e-02    3.870787e-06
  5.706930e-02    3.888006e-06
  5.736823e-02    3.898288e-06
  5.766716e-02    3.909819e-06
  5.796609e-02    3.911030e-06
  5.826502e-02    3.898763e-06
  5.856395e-02    3.887214e-06
  5.886288e-02    3.886849e-06
  5.916181e-02    3.902330e-06
  5.946074e-02    3.927615e-06
  5.975967e-02    3.926977e-06
  6.005861e-02    3.930283e-06
  6.035754e-02    3.953313e-06
  6.065647e-02    3.944600e-06
  6.095540e-02    3.974333e-06
  6.125433e-02    4.030642e-06
  6.155326e-02    4.046783e-06
  6.185219e-02    3.998667e-06
  6.215112e-02    3.986449e-06
  6.245005e-02    3.976196e-06
  6.274898e-02    3.965826e-06
  6.304791e-02    3.972638e-06
  6.334684e-02    3.985912e-06
  6.364577e-02    3.995723e-06
  6.394470e-02    3.998359e-06
  6.424363e-02    4.004974e-06
  6.454256e-02    4.022957e-06
  6.484149e-02    4.025640e-06
  6.514042e-02    4.037767e-06
  6.543935e-02    4.038372e-06
  6.573828e-02    4.037153e-06
  6.603721e-02    4.036659e-06
  6.633614e-02    4.052069e-06
  6.663507e-02    4.063497e-06
  6.693400e-02    4.060686e-06
  6.723293e-02    4.069654e-06
  6.753186e-02    4.076563e-06
  6.783080e-02    4.079868e-06
  6.812973e-02    4.075592e-06
  6.842866e-02    4.081514e-06
  6.872759e-02    4.082699e-06
  6.902652e-02    4.098927e-06
  6.932545e-02    4.101333e-06
  6.962438e-02    4.113017e-06
  6.992331e-02    4.116664e-06
  7.022224e-02    4.119642e-06
  7.052117e-02    4.140809e-06
  7.082010e-02    4.138778e-06
  7.111903e-02    4.125412e-06
  7.141796e-02    4.141643e-06
  7.171689e-02    4.150528e-06
  7.201582e-02    4.154401e-06
  7.231475e-02    4.161517e-06
  7.261368e-02    4.164036e-06
  7.291261e-02    4.177229e-06
  7.321154e-02    4.175761e-06
  7.351047e-02    4.156007e-06
  7.380940e-02    4.153830e-06
  7.410833e-02    4.176028e-06
  7.440726e-02    4.169168e-06
  7.470619e-02    4.174189e-06
  7.500512e-02    4.176856e-06
  7.530405e-02    4.182980e-06
  7.560299e-02    4.171625e-06
  7.590192e-02    4.177050e-06
  7.620085e-02    4.186238e-06
  7.649978e-02    4.185362e-06
  7.679871e-02    4.186913e-06
  7.709764e-02    4.178309e-06
  7.739657e-02    4.174872e-06
  7.769550e-02    4.165772e-06
  7.799443e-02    4.170317e-06
  7.829336e-02    4.176836e-06
  7.859229e-02    4.178392e-06
  7.889122e-02    4.170262e-06
  7.919015e-02    4.154943e-06
  7.948908e-02    4.162373e-06
  7.978801e-02    4.162121e-06
  8.008694e-02    4.163265e-06
  8.038587e-02    4.157918e-06
  8.068480e-02    4.149850e-06
  8.098373e-02    4.142716e-06
  8.128266e-02    4.138738e-06
  8.158159e-02    4.144918e-06
  8.188052e-02    4.150791e-06
  8.217945e-02    4.149357e-06
  8.247838e-02    4.130240e-06
  8.277731e-02    4.125527e-06
  8.307624e-02    4.131758e-06
  8.337518e-02    4.135206e-06
  8.367411e-02    4.107204e-06
  8.397304e-02    4.109122e-06
  8.427197e-02    4.108693e-06
  8.457090e-02    4.106416e-06
  8.486983e-02    4.098078e-06
  8.516876e-02    4.079397e-06
  8.546769e-02    4.087211e-06
  8.576662e-02    4.087656e-06
  8.606555e-02    4.072487e-06
  8.636448e-02    4.074264e-06
  8.666341e-02    4.068399e-06
  8.696234e-02    4.058777e-06
  8.726127e-02    4.050284e-06
  8.756020e-02    4.031700e-06
  8.785913e-02    4.037481e-06
  8.815806e-02    4.039569e-06
  8.845699e-02    4.017364e-06
  8.875592e-02    4.012365e-06
  8.905485e-02    4.010584e-06
  8.935378e-02    4.015124e-06
  8.965271e-02    4.011666e-06
  8.995164e-02    3.987586e-06
  9.025057e-02    3.972508e-06
  9.054950e-02    3.982131e-06
  9.084843e-02    3.968689e-06
  9.114737e-02    3.970784e-06
  9.144630e-02    3.961696e-06
  9.174523e-02    3.950083e-06
  9.204416e-02    3.950478e-06
  9.234309e-02    3.939330e-06
  9.264202e-02    3.938621e-06
  9.294095e-02    3.930292e-06
  9.323988e-02    3.916822e-06
  9.353881e-02    3.921179e-06
  9.383774e-02    3.904948e-06
  9.413667e-02    3.894586e-06
  9.443560e-02    3.903033e-06
  9.473453e-02    3.911562e-06
  9.503346e-02    3.898065e-06
  9.533239e-02    3.891585e-06
  9.563132e-02    3.880779e-06
  9.593025e-02    3.872501e-06
  9.622918e-02    3.873645e-06
  9.652811e-02    3.876613e-06
  9.682704e-02    3.877350e-06
  9.712597e-02    3.879806e-06
  9.742490e-02    3.858143e-06
  9.772383e-02    3.850131e-06
  9.802276e-02    3.833796e-06
  9.832169e-02    3.808990e-06
  9.862062e-02    3.799528e-06
  9.891956e-02    3.801366e-06
  9.921849e-02    3.791908e-06
  9.951742e-02    3.775317e-06
  9.981635e-02    3.758613e-06
  1.001153e-01    3.757417e-06
  1.004142e-01    3.754635e-06
  1.007131e-01    3.767246e-06
  1.010121e-01    3.741811e-06
  1.013110e-01    3.724308e-06
  1.016099e-01    3.725114e-06
  1.019089e-01    3.708626e-06
  1.022078e-01    3.689912e-06
  1.025067e-01    3.693225e-06
  1.028057e-01    3.697475e-06
  1.031046e-01    3.690767e-06
  1.034035e-01    3.678185e-06
  1.037024e-01    3.665661e-06
  1.040014e-01    3.655084e-06
  1.043003e-01    3.656932e-06
  1.045992e-01    3.650585e-06
  1.048982e-01    3.641019e-06
  1.051971e-01    3.634716e-06
  1.054960e-01    3.623249e-06
  1.057950e-01    3.612490e-06
  1.060939e-01    3.604841e-06
  1.063928e-01    3.605810e-06
  1.066917e-01    3.587829e-06
  1.069907e-01    3.585707e-06
  1.072896e-01    3.584696e-06
  1.075885e-01    3.585638e-06
  1.078875e-01    3.573974e-06
  1.081864e-01    3.555732e-06
  1.084853e-01    3.562681e-06
  1.087843e-01    3.559273e-06
  1.090832e-01    3.532519e-06
  1.093821e-01    3.527073e-06
  1.096810e-01    3.522024e-06
  1.099800e-01    3.522422e-06
  1.102789e-01    3.514652e-06
  1.105778e-01    3.491724e-06
  1.108768e-01    3.479920e-06
  1.111757e-01    3.473375e-06
  1.114746e-01    3.449505e-06
  1.117736e-01    3.459511e-06
  1.120725e-01    3.470154e-06
  1.123714e-01    3.456714e-06
  1.126704e-01    3.457501e-06
  1.129693e-01    3.451902e-06
  1.132682e-01    3.427366e-06
  1.135671e-01    3.392575e-06
  1.138661e-01    3.380181e-06
  1.141650e-01    3.384879e-06
  1.144639e-01    3.418269e-06
  1.147629e-01    3.428929e-06
  1.150618e-01    3.403417e-06
  1.153607e-01    3.389363e-06
  1.156597e-01    3.389565e-06
  1.159586e-01    3.378450e-06
  1.162575e-01    3.384919e-06
  1.165564e-01    3.374841e-06
  1.168554e-01    3.366802e-06
  1.171543e-01    3.362147e-06
  1.174532e-01    3.308594e-06
  1.177522e-01    3.309974e-06
  1.180511e-01    3.354837e-06
  1.183500e-01    3.373293e-06
  1.186490e-01    3.372419e-06
  1.189479e-01    3.310035e-06
  1.192468e-01    3.292556e-06
  1.195458e-01    3.299771e-06
  1.198447e-01    3.327915e-06
  1.201436e-01    3.320558e-06
  1.204425e-01    3.216080e-06
  1.207415e-01    3.110125e-06
  1.210404e-01    3.429901e-06
  1.213393e-01    0.000000e+00
  1.216383e-01    0.000000e+00
  1.219372e-01    0.000000e+00
  1.222361e-01    0.000000e+00
  1.225351e-01    0.000000e+00
  1.228340e-01    0.000000e+00
  1.231329e-01    0.000000e+00
  1.234318e-01    0.000000e+00
  1.237308e-01    0.000000e+00
  1.240297e-01    0.000000e+00
  1.243286e-01    0.000000e+00
  1.246276e-01    0.000000e+00
  1.249265e-01    0.000000e+00
  1.252254e-01    0.000000e+00
  1.255244e-01    0.000000e+00
  1.258233e-01    0.000000e+00
  1.261222e-01    0.000000e+00
  1.264212e-01    0.000000e+00
  1.267201e-01    0.000000e+00
  1.270190e-01    0.000000e+00
  1.273179e-01    0.000000e+00
  1.276169e-01    0.000000e+00
  1.279158e-01    0.000000e+00
  1.282147e-01    0.000000e+00
  1.285137e-01    0.000000e+00
  1.288126e-01    0.000000e+00
  1.291115e-01    0.000000e+00
  1.294105e-01    0.000000e+00
  1.297094e-01    0.000000e+00
  1.300083e-01    0.000000e+00
  1.303072e-01    0.000000e+00
  1.306062e-01    0.000000e+00
  1.309051e-01    0.000000e+00
  1.312040e-01    0.000000e+00
  1.315030e-01    0.000000e+00
  1.318019e-01    0.000000e+00
  1.321008e-01    0.000000e+00
  1.323998e-01    0.000000e+00
  1.326987e-01    0.000000e+00
  1.329976e-01    0.000000e+00
  1.332965e-01    0.000000e+00
  1.335955e-01    0.000000e+00
  1.338944e-01    0.000000e+00
  1.341933e-01    0.000000e+00
  1.344923e-01    0.000000e+00
  1.347912e-01    0.000000e+00
  1.350901e-01    0.000000e+00
  1.353891e-01    0.000000e+00
  1.356880e-01    0.000000e+00
  1.359869e-01    0.000000e+00
  1.362859e-01    0.000000e+00
  1.365848e-01    0.000000e+00
  1.368837e-01    0.000000e+00
  1.371826e-01    0.000000e+00
  1.374816e-01    0.000000e+00
  1.377805e-01    0.000000e+00
  1.380794e-01    0.000000e+00
  1.383784e-01    0.000000e+00
  1.386773e-01    0.000000e+00
  1.389762e-01    0.000000e+00
  1.392752e-01    0.000000e+00
  1.395741e-01    0.000000e+00
  1.398730e-01    0.000000e+00
  1.401719e-01    0.000000e+00
  1.404709e-01    0.000000e+00
  1.407698e-01    0.000000e+00
  1.410687e-01    0.000000e+00
  1.413677e-01    0.000000e+00
  1.416666e-01    0.000000e+00
  1.419655e-01    0.000000e+00
  1.422645e-01    0.000000e+00
  1.425634e-01    0.000000e+00
  1.428623e-01    0.000000e+00
  1.431613e-01    0.000000e+00
  1.434602e-01    0.000000e+00
  1.437591e-01    0.000000e+00
  1.440580e-01    0.000000e+00
  1.443570e-01    0.000000e+00
  1.446559e-01    0.000000e+00
  1.449548e-01    0.000000e+00
  1.452538e-01    0.000000e+00
  1.455527e-01    0.000000e+00
  1.458516e-01    0.000000e+00
  1.461506e-01    0.000000e+00
  1.464495e-01    0.000000e+00
  1.467484e-01    0.000000e+00
  1.470473e-01    0.000000e+00
  1.473463e-01    0.000000e+00
  1.476452e-01    0.000000e+00
  1.479441e-01    0.000000e+00
  1.482431e-01    0.000000e+00
  1.485420e-01    0.000000e+00
  1.488409e-01    0.000000e+00
  1.491399e-01    0.000000e+00
  1.494388e-01    0.000000e+00
  1.497377e-01    0.000000e+00
  1.500367e-01    0.000000e+00
  1.503356e-01    0.000000e+00
  1.506345e-01    0.000000e+00
  1.509334e-01    0.000000e+00
  1.512324e-01    0.000000e+00
  1.515313e-01    0.000000e+00
  1.518302e-01    0.000000e+00
  1.521292e-01    0.000000e+00
  1.524281e-01    0.000000e+00
  1.527270e-01    0.000000e+00
  1.530260e-01    0.000000e+00
  1.533249e-01    0.000000e+00
  1.536238e-01    0.000000e+00
