# == pyFAI calibration ==
# Distance Sample to Detector: 2.266 m
# PONI: 5.659e-02, 4.293e-02 m
# Rotations: 0.000000 0.000000 0.000000 rad
# 
# == Fit2d calibration ==
# Distance Sample-beamCenter: 2266.000 mm
# Center: x=249.594, y=329.012 pix
# Tilt: 0.000 deg  TiltPlanRot: 0.000 deg
# 
# Detector Pilatus 300k	 PixelSize= 1.720e-04, 1.720e-04 m
#    Detector has a mask: True 
#    Detector has a dark current: False 
#    detector has a flat field: False 
# 
# Wavelength: 1.27818e-10 m
# Mask applied: user provided
# Dark current applied: False
# Flat field applied: False
# Polarization factor: None
# Normalization factor: 832470.4
# --> AL_F127_220301_ab1af57e-0d05-41e4-94d1-75eaa1e98c9f_1_r1d.csv
#        q_A^-1             I 
  4.457554e-03    2.444332e-03
  4.756484e-03    1.931155e-03
  5.055415e-03    1.346949e-03
  5.354345e-03    8.768994e-04
  5.653276e-03    6.410133e-04
  5.952206e-03    9.604821e-04
  6.251136e-03    8.779237e-04
  6.550067e-03    7.691439e-04
  6.848997e-03    6.602533e-04
  7.147927e-03    5.629066e-04
  7.446858e-03    4.831119e-04
  7.745788e-03    4.171041e-04
  8.044719e-03    3.599495e-04
  8.343649e-03    3.116934e-04
  8.642579e-03    2.735196e-04
  8.941510e-03    2.434215e-04
  9.240440e-03    2.158052e-04
  9.539371e-03    1.925437e-04
  9.838301e-03    1.730583e-04
  1.013723e-02    1.571406e-04
  1.043616e-02    1.411778e-04
  1.073509e-02    1.286723e-04
  1.103402e-02    1.179553e-04
  1.133295e-02    1.074334e-04
  1.163188e-02    9.922675e-05
  1.193081e-02    9.090318e-05
  1.222974e-02    8.365940e-05
  1.252867e-02    7.955008e-05
  1.282760e-02    7.436296e-05
  1.312654e-02    6.903747e-05
  1.342547e-02    6.462523e-05
  1.372440e-02    6.135704e-05
  1.402333e-02    5.806524e-05
  1.432226e-02    5.522546e-05
  1.462119e-02    5.212105e-05
  1.492012e-02    4.896097e-05
  1.521905e-02    4.692113e-05
  1.551798e-02    4.564628e-05
  1.581691e-02    4.430777e-05
  1.611584e-02    4.305298e-05
  1.641477e-02    4.246523e-05
  1.671370e-02    4.142490e-05
  1.701263e-02    4.016513e-05
  1.731156e-02    3.908641e-05
  1.761049e-02    3.854777e-05
  1.790942e-02    3.813415e-05
  1.820835e-02    3.794289e-05
  1.850728e-02    3.826791e-05
  1.880621e-02    3.863784e-05
  1.910514e-02    3.866210e-05
  1.940407e-02    3.912280e-05
  1.970300e-02    3.917736e-05
  2.000193e-02    4.003679e-05
  2.030086e-02    4.131018e-05
  2.059979e-02    4.210251e-05
  2.089873e-02    4.276265e-05
  2.119766e-02    4.346799e-05
  2.149659e-02    4.499505e-05
  2.179552e-02    4.579770e-05
  2.209445e-02    4.681097e-05
  2.239338e-02    4.883663e-05
  2.269231e-02    4.995894e-05
  2.299124e-02    5.037673e-05
  2.329017e-02    5.094220e-05
  2.358910e-02    5.159678e-05
  2.388803e-02    5.228034e-05
  2.418696e-02    5.324248e-05
  2.448589e-02    5.435843e-05
  2.478482e-02    5.424105e-05
  2.508375e-02    5.466230e-05
  2.538268e-02    5.404649e-05
  2.568161e-02    5.359676e-05
  2.598054e-02    5.323235e-05
  2.627947e-02    5.259873e-05
  2.657840e-02    5.224221e-05
  2.687733e-02    5.150840e-05
  2.717626e-02    5.092415e-05
  2.747519e-02    4.996404e-05
  2.777412e-02    4.905545e-05
  2.807305e-02    4.793734e-05
  2.837198e-02    4.717533e-05
  2.867092e-02    4.631893e-05
  2.896985e-02    4.516424e-05
  2.926878e-02    4.410364e-05
  2.956771e-02    4.346902e-05
  2.986664e-02    4.293102e-05
  3.016557e-02    4.183875e-05
  3.046450e-02    4.085437e-05
  3.076343e-02    4.009740e-05
  3.106236e-02    3.903352e-05
  3.136129e-02    3.851764e-05
  3.166022e-02    3.782830e-05
  3.195915e-02    3.775293e-05
  3.225808e-02    3.753891e-05
  3.255701e-02    3.709962e-05
  3.285594e-02    3.667074e-05
  3.315487e-02    3.586702e-05
  3.345380e-02    3.588468e-05
  3.375273e-02    3.581044e-05
  3.405166e-02    3.523989e-05
  3.435059e-02    3.473921e-05
  3.464952e-02    3.461128e-05
  3.494845e-02    3.430331e-05
  3.524738e-02    3.445175e-05
  3.554631e-02    3.412762e-05
  3.584524e-02    3.399176e-05
  3.614417e-02    3.332281e-05
  3.644310e-02    3.300709e-05
  3.674204e-02    3.330830e-05
  3.704097e-02    3.311062e-05
  3.733990e-02    3.279006e-05
  3.763883e-02    3.286360e-05
  3.793776e-02    3.267929e-05
  3.823669e-02    3.280027e-05
  3.853562e-02    3.250210e-05
  3.883455e-02    3.247069e-05
  3.913348e-02    3.253238e-05
  3.943241e-02    3.255971e-05
  3.973134e-02    3.246795e-05
  4.003027e-02    3.234041e-05
  4.032920e-02    3.279138e-05
  4.062813e-02    3.269478e-05
  4.092706e-02    3.268185e-05
  4.122599e-02    3.282159e-05
  4.152492e-02    3.276740e-05
  4.182385e-02    3.270400e-05
  4.212278e-02    3.246567e-05
  4.242171e-02    3.236443e-05
  4.272064e-02    3.206744e-05
  4.301957e-02    3.214702e-05
  4.331850e-02    3.192752e-05
  4.361743e-02    3.186556e-05
  4.391636e-02    3.203522e-05
  4.421529e-02    3.202798e-05
  4.451423e-02    3.205454e-05
  4.481316e-02    3.153018e-05
  4.511209e-02    3.113181e-05
  4.541102e-02    3.098395e-05
  4.570995e-02    3.084867e-05
  4.600888e-02    3.040853e-05
  4.630781e-02    3.012376e-05
  4.660674e-02    2.988267e-05
  4.690567e-02    2.968111e-05
  4.720460e-02    2.933624e-05
  4.750353e-02    2.886267e-05
  4.780246e-02    2.862601e-05
  4.810139e-02    2.833138e-05
  4.840032e-02    2.806410e-05
  4.869925e-02    2.774777e-05
  4.899818e-02    2.737594e-05
  4.929711e-02    2.697463e-05
  4.959604e-02    2.646824e-05
  4.989497e-02    2.607427e-05
  5.019390e-02    2.554072e-05
  5.049283e-02    2.524200e-05
  5.079176e-02    2.517190e-05
  5.109069e-02    2.488442e-05
  5.138962e-02    2.453091e-05
  5.168855e-02    2.400705e-05
  5.198748e-02    2.368697e-05
  5.228642e-02    2.326778e-05
  5.258535e-02    2.249642e-05
  5.288428e-02    2.227357e-05
  5.318321e-02    2.188209e-05
  5.348214e-02    2.119425e-05
  5.378107e-02    2.081947e-05
  5.408000e-02    2.052611e-05
  5.437893e-02    2.030111e-05
  5.467786e-02    1.999749e-05
  5.497679e-02    1.966958e-05
  5.527572e-02    1.930761e-05
  5.557465e-02    1.885578e-05
  5.587358e-02    1.865002e-05
  5.617251e-02    1.842108e-05
  5.647144e-02    1.804692e-05
  5.677037e-02    1.775195e-05
  5.706930e-02    1.751562e-05
  5.736823e-02    1.718111e-05
  5.766716e-02    1.679780e-05
  5.796609e-02    1.635357e-05
  5.826502e-02    1.619762e-05
  5.856395e-02    1.615541e-05
  5.886288e-02    1.592367e-05
  5.916181e-02    1.566346e-05
  5.946074e-02    1.545628e-05
  5.975967e-02    1.525934e-05
  6.005861e-02    1.492512e-05
  6.035754e-02    1.481591e-05
  6.065647e-02    1.471644e-05
  6.095540e-02    1.466296e-05
  6.125433e-02    1.458297e-05
  6.155326e-02    1.460164e-05
  6.185219e-02    1.412669e-05
  6.215112e-02    1.386157e-05
  6.245005e-02    1.375403e-05
  6.274898e-02    1.357445e-05
  6.304791e-02    1.339984e-05
  6.334684e-02    1.319157e-05
  6.364577e-02    1.308187e-05
  6.394470e-02    1.281541e-05
  6.424363e-02    1.258072e-05
  6.454256e-02    1.254174e-05
  6.484149e-02    1.242617e-05
  6.514042e-02    1.229582e-05
  6.543935e-02    1.201119e-05
  6.573828e-02    1.189058e-05
  6.603721e-02    1.194064e-05
  6.633614e-02    1.188402e-05
  6.663507e-02    1.182657e-05
  6.693400e-02    1.178646e-05
  6.723293e-02    1.158846e-05
  6.753186e-02    1.145067e-05
  6.783080e-02    1.145092e-05
  6.812973e-02    1.119557e-05
  6.842866e-02    1.098372e-05
  6.872759e-02    1.093352e-05
  6.902652e-02    1.078762e-05
  6.932545e-02    1.075438e-05
  6.962438e-02    1.069131e-05
  6.992331e-02    1.060324e-05
  7.022224e-02    1.055516e-05
  7.052117e-02    1.052429e-05
  7.082010e-02    1.042141e-05
  7.111903e-02    1.043539e-05
  7.141796e-02    1.027683e-05
  7.171689e-02    1.016109e-05
  7.201582e-02    1.012801e-05
  7.231475e-02    1.012310e-05
  7.261368e-02    1.009174e-05
  7.291261e-02    9.959986e-06
  7.321154e-02    9.881703e-06
  7.351047e-02    9.782495e-06
  7.380940e-02    9.719526e-06
  7.410833e-02    9.794093e-06
  7.440726e-02    9.756805e-06
  7.470619e-02    9.717921e-06
  7.500512e-02    9.540574e-06
  7.530405e-02    9.613034e-06
  7.560299e-02    9.681125e-06
  7.590192e-02    9.526833e-06
  7.620085e-02    9.377619e-06
  7.649978e-02    9.289104e-06
  7.679871e-02    9.375104e-06
  7.709764e-02    9.327925e-06
  7.739657e-02    9.246903e-06
  7.769550e-02    9.308433e-06
  7.799443e-02    9.245809e-06
  7.829336e-02    9.148596e-06
  7.859229e-02    9.100629e-06
  7.889122e-02    9.011150e-06
  7.919015e-02    8.950258e-06
  7.948908e-02    8.890622e-06
  7.978801e-02    8.919261e-06
  8.008694e-02    8.964992e-06
  8.038587e-02    8.987863e-06
  8.068480e-02    9.074466e-06
  8.098373e-02    8.954404e-06
  8.128266e-02    8.892942e-06
  8.158159e-02    8.961968e-06
  8.188052e-02    8.790225e-06
  8.217945e-02    8.785611e-06
  8.247838e-02    8.853817e-06
  8.277731e-02    8.861532e-06
  8.307624e-02    8.778467e-06
  8.337518e-02    8.750942e-06
  8.367411e-02    8.739521e-06
  8.397304e-02    8.718443e-06
  8.427197e-02    8.777596e-06
  8.457090e-02    8.774720e-06
  8.486983e-02    8.672354e-06
  8.516876e-02    8.640591e-06
  8.546769e-02    8.648136e-06
  8.576662e-02    8.619178e-06
  8.606555e-02    8.564448e-06
  8.636448e-02    8.613169e-06
  8.666341e-02    8.578381e-06
  8.696234e-02    8.550089e-06
  8.726127e-02    8.546461e-06
  8.756020e-02    8.595683e-06
  8.785913e-02    8.590137e-06
  8.815806e-02    8.552784e-06
  8.845699e-02    8.615738e-06
  8.875592e-02    8.639923e-06
  8.905485e-02    8.690526e-06
  8.935378e-02    8.575325e-06
  8.965271e-02    8.622653e-06
  8.995164e-02    8.649102e-06
  9.025057e-02    8.582458e-06
  9.054950e-02    8.581706e-06
  9.084843e-02    8.571653e-06
  9.114737e-02    8.474242e-06
  9.144630e-02    8.515651e-06
  9.174523e-02    8.550792e-06
  9.204416e-02    8.527407e-06
  9.234309e-02    8.546849e-06
  9.264202e-02    8.566654e-06
  9.294095e-02    8.497433e-06
  9.323988e-02    8.402547e-06
  9.353881e-02    8.431755e-06
  9.383774e-02    8.523964e-06
  9.413667e-02    8.490578e-06
  9.443560e-02    8.639950e-06
  9.473453e-02    8.553323e-06
  9.503346e-02    8.579390e-06
  9.533239e-02    8.623368e-06
  9.563132e-02    8.651819e-06
  9.593025e-02    8.582122e-06
  9.622918e-02    8.508237e-06
  9.652811e-02    8.436061e-06
  9.682704e-02    8.433977e-06
  9.712597e-02    8.437428e-06
  9.742490e-02    8.548099e-06
  9.772383e-02    8.573461e-06
  9.802276e-02    8.500951e-06
  9.832169e-02    8.419365e-06
  9.862062e-02    8.457440e-06
  9.891956e-02    8.479845e-06
  9.921849e-02    8.616420e-06
  9.951742e-02    8.570591e-06
  9.981635e-02    8.442070e-06
  1.001153e-01    8.361258e-06
  1.004142e-01    8.389645e-06
  1.007131e-01    8.475613e-06
  1.010121e-01    8.421018e-06
  1.013110e-01    8.432187e-06
  1.016099e-01    8.411508e-06
  1.019089e-01    8.399111e-06
  1.022078e-01    8.337713e-06
  1.025067e-01    8.300133e-06
  1.028057e-01    8.375014e-06
  1.031046e-01    8.391942e-06
  1.034035e-01    8.292338e-06
  1.037024e-01    8.334540e-06
  1.040014e-01    8.414034e-06
  1.043003e-01    8.334838e-06
  1.045992e-01    8.385057e-06
  1.048982e-01    8.408025e-06
  1.051971e-01    8.358166e-06
  1.054960e-01    8.332730e-06
  1.057950e-01    8.301827e-06
  1.060939e-01    8.319554e-06
  1.063928e-01    8.355377e-06
  1.066917e-01    8.341831e-06
  1.069907e-01    8.321811e-06
  1.072896e-01    8.361435e-06
  1.075885e-01    8.391831e-06
  1.078875e-01    8.366728e-06
  1.081864e-01    8.404118e-06
  1.084853e-01    8.480779e-06
  1.087843e-01    8.441419e-06
  1.090832e-01    8.351224e-06
  1.093821e-01    8.295131e-06
  1.096810e-01    8.363846e-06
  1.099800e-01    8.435709e-06
  1.102789e-01    8.267010e-06
  1.105778e-01    8.217442e-06
  1.108768e-01    8.261499e-06
  1.111757e-01    8.288960e-06
  1.114746e-01    8.262888e-06
  1.117736e-01    8.153617e-06
  1.120725e-01    8.042899e-06
  1.123714e-01    8.122153e-06
  1.126704e-01    8.080404e-06
  1.129693e-01    8.011874e-06
  1.132682e-01    8.004145e-06
  1.135671e-01    7.815849e-06
  1.138661e-01    7.833925e-06
  1.141650e-01    7.539497e-06
  1.144639e-01    7.447934e-06
  1.147629e-01    7.353381e-06
  1.150618e-01    7.342682e-06
  1.153607e-01    7.227936e-06
  1.156597e-01    7.100780e-06
  1.159586e-01    7.254259e-06
  1.162575e-01    7.508863e-06
  1.165564e-01    7.521528e-06
  1.168554e-01    7.411937e-06
  1.171543e-01    7.319259e-06
  1.174532e-01    7.161275e-06
  1.177522e-01    7.322295e-06
  1.180511e-01    7.605088e-06
  1.183500e-01    7.498708e-06
  1.186490e-01    7.330447e-06
  1.189479e-01    7.382581e-06
  1.192468e-01    7.117336e-06
  1.195458e-01    7.222979e-06
  1.198447e-01    7.639548e-06
  1.201436e-01    7.380761e-06
  1.204425e-01    7.046932e-06
  1.207415e-01    7.788844e-06
  1.210404e-01    8.416325e-06
  1.213393e-01    0.000000e+00
  1.216383e-01    0.000000e+00
  1.219372e-01    0.000000e+00
  1.222361e-01    0.000000e+00
  1.225351e-01    0.000000e+00
  1.228340e-01    0.000000e+00
  1.231329e-01    0.000000e+00
  1.234318e-01    0.000000e+00
  1.237308e-01    0.000000e+00
  1.240297e-01    0.000000e+00
  1.243286e-01    0.000000e+00
  1.246276e-01    0.000000e+00
  1.249265e-01    0.000000e+00
  1.252254e-01    0.000000e+00
  1.255244e-01    0.000000e+00
  1.258233e-01    0.000000e+00
  1.261222e-01    0.000000e+00
  1.264212e-01    0.000000e+00
  1.267201e-01    0.000000e+00
  1.270190e-01    0.000000e+00
  1.273179e-01    0.000000e+00
  1.276169e-01    0.000000e+00
  1.279158e-01    0.000000e+00
  1.282147e-01    0.000000e+00
  1.285137e-01    0.000000e+00
  1.288126e-01    0.000000e+00
  1.291115e-01    0.000000e+00
  1.294105e-01    0.000000e+00
  1.297094e-01    0.000000e+00
  1.300083e-01    0.000000e+00
  1.303072e-01    0.000000e+00
  1.306062e-01    0.000000e+00
  1.309051e-01    0.000000e+00
  1.312040e-01    0.000000e+00
  1.315030e-01    0.000000e+00
  1.318019e-01    0.000000e+00
  1.321008e-01    0.000000e+00
  1.323998e-01    0.000000e+00
  1.326987e-01    0.000000e+00
  1.329976e-01    0.000000e+00
  1.332965e-01    0.000000e+00
  1.335955e-01    0.000000e+00
  1.338944e-01    0.000000e+00
  1.341933e-01    0.000000e+00
  1.344923e-01    0.000000e+00
  1.347912e-01    0.000000e+00
  1.350901e-01    0.000000e+00
  1.353891e-01    0.000000e+00
  1.356880e-01    0.000000e+00
  1.359869e-01    0.000000e+00
  1.362859e-01    0.000000e+00
  1.365848e-01    0.000000e+00
  1.368837e-01    0.000000e+00
  1.371826e-01    0.000000e+00
  1.374816e-01    0.000000e+00
  1.377805e-01    0.000000e+00
  1.380794e-01    0.000000e+00
  1.383784e-01    0.000000e+00
  1.386773e-01    0.000000e+00
  1.389762e-01    0.000000e+00
  1.392752e-01    0.000000e+00
  1.395741e-01    0.000000e+00
  1.398730e-01    0.000000e+00
  1.401719e-01    0.000000e+00
  1.404709e-01    0.000000e+00
  1.407698e-01    0.000000e+00
  1.410687e-01    0.000000e+00
  1.413677e-01    0.000000e+00
  1.416666e-01    0.000000e+00
  1.419655e-01    0.000000e+00
  1.422645e-01    0.000000e+00
  1.425634e-01    0.000000e+00
  1.428623e-01    0.000000e+00
  1.431613e-01    0.000000e+00
  1.434602e-01    0.000000e+00
  1.437591e-01    0.000000e+00
  1.440580e-01    0.000000e+00
  1.443570e-01    0.000000e+00
  1.446559e-01    0.000000e+00
  1.449548e-01    0.000000e+00
  1.452538e-01    0.000000e+00
  1.455527e-01    0.000000e+00
  1.458516e-01    0.000000e+00
  1.461506e-01    0.000000e+00
  1.464495e-01    0.000000e+00
  1.467484e-01    0.000000e+00
  1.470473e-01    0.000000e+00
  1.473463e-01    0.000000e+00
  1.476452e-01    0.000000e+00
  1.479441e-01    0.000000e+00
  1.482431e-01    0.000000e+00
  1.485420e-01    0.000000e+00
  1.488409e-01    0.000000e+00
  1.491399e-01    0.000000e+00
  1.494388e-01    0.000000e+00
  1.497377e-01    0.000000e+00
  1.500367e-01    0.000000e+00
  1.503356e-01    0.000000e+00
  1.506345e-01    0.000000e+00
  1.509334e-01    0.000000e+00
  1.512324e-01    0.000000e+00
  1.515313e-01    0.000000e+00
  1.518302e-01    0.000000e+00
  1.521292e-01    0.000000e+00
  1.524281e-01    0.000000e+00
  1.527270e-01    0.000000e+00
  1.530260e-01    0.000000e+00
  1.533249e-01    0.000000e+00
  1.536238e-01    0.000000e+00
