# == pyFAI calibration ==
# Distance Sample to Detector: 2.266 m
# PONI: 5.659e-02, 4.293e-02 m
# Rotations: 0.000000 0.000000 0.000000 rad
# 
# == Fit2d calibration ==
# Distance Sample-beamCenter: 2266.000 mm
# Center: x=249.594, y=329.012 pix
# Tilt: 0.000 deg  TiltPlanRot: 0.000 deg
# 
# Detector Pilatus 300k	 PixelSize= 1.720e-04, 1.720e-04 m
#    Detector has a mask: True 
#    Detector has a dark current: False 
#    detector has a flat field: False 
# 
# Wavelength: 1.27818e-10 m
# Mask applied: user provided
# Dark current applied: False
# Flat field applied: False
# Polarization factor: None
# Normalization factor: 5466136.4
# --> AL_F127_220228_8bf158ed-87fb-4c97-b1d1-0d2d396ebc14_0_r1d.csv
#        q_A^-1             I 
  4.457554e-03    2.173156e-04
  4.756484e-03    1.623009e-04
  5.055415e-03    1.082282e-04
  5.354345e-03    6.974351e-05
  5.653276e-03    4.747153e-05
  5.952206e-03    4.750655e-05
  6.251136e-03    3.946258e-05
  6.550067e-03    3.280351e-05
  6.848997e-03    2.833623e-05
  7.147927e-03    2.443981e-05
  7.446858e-03    2.099045e-05
  7.745788e-03    1.858512e-05
  8.044719e-03    1.635907e-05
  8.343649e-03    1.468220e-05
  8.642579e-03    1.299764e-05
  8.941510e-03    1.170651e-05
  9.240440e-03    1.092086e-05
  9.539371e-03    1.015920e-05
  9.838301e-03    9.072874e-06
  1.013723e-02    8.342826e-06
  1.043616e-02    7.783059e-06
  1.073509e-02    7.312886e-06
  1.103402e-02    6.914341e-06
  1.133295e-02    6.409496e-06
  1.163188e-02    6.125616e-06
  1.193081e-02    5.745947e-06
  1.222974e-02    5.350099e-06
  1.252867e-02    5.087510e-06
  1.282760e-02    4.887676e-06
  1.312654e-02    4.782784e-06
  1.342547e-02    4.557514e-06
  1.372440e-02    4.473511e-06
  1.402333e-02    4.357881e-06
  1.432226e-02    4.140496e-06
  1.462119e-02    4.087177e-06
  1.492012e-02    4.057732e-06
  1.521905e-02    3.997683e-06
  1.551798e-02    3.949675e-06
  1.581691e-02    3.885315e-06
  1.611584e-02    3.803465e-06
  1.641477e-02    3.779305e-06
  1.671370e-02    3.790266e-06
  1.701263e-02    3.784580e-06
  1.731156e-02    3.774246e-06
  1.761049e-02    3.819205e-06
  1.790942e-02    3.857997e-06
  1.820835e-02    3.953346e-06
  1.850728e-02    4.046997e-06
  1.880621e-02    4.152660e-06
  1.910514e-02    4.248697e-06
  1.940407e-02    4.345080e-06
  1.970300e-02    4.423739e-06
  2.000193e-02    4.546529e-06
  2.030086e-02    4.738042e-06
  2.059979e-02    4.869957e-06
  2.089873e-02    5.097653e-06
  2.119766e-02    5.378676e-06
  2.149659e-02    5.572230e-06
  2.179552e-02    5.795519e-06
  2.209445e-02    6.143744e-06
  2.239338e-02    6.521507e-06
  2.269231e-02    6.929295e-06
  2.299124e-02    7.281952e-06
  2.329017e-02    7.848646e-06
  2.358910e-02    8.379197e-06
  2.388803e-02    8.934640e-06
  2.418696e-02    9.515846e-06
  2.448589e-02    1.025470e-05
  2.478482e-02    1.095194e-05
  2.508375e-02    1.166139e-05
  2.538268e-02    1.248011e-05
  2.568161e-02    1.337594e-05
  2.598054e-02    1.424283e-05
  2.627947e-02    1.517556e-05
  2.657840e-02    1.603350e-05
  2.687733e-02    1.676207e-05
  2.717626e-02    1.735664e-05
  2.747519e-02    1.792776e-05
  2.777412e-02    1.841140e-05
  2.807305e-02    1.867003e-05
  2.837198e-02    1.886026e-05
  2.867092e-02    1.891579e-05
  2.896985e-02    1.876749e-05
  2.926878e-02    1.846565e-05
  2.956771e-02    1.800417e-05
  2.986664e-02    1.743574e-05
  3.016557e-02    1.677344e-05
  3.046450e-02    1.589285e-05
  3.076343e-02    1.494436e-05
  3.106236e-02    1.424657e-05
  3.136129e-02    1.351256e-05
  3.166022e-02    1.259688e-05
  3.195915e-02    1.169281e-05
  3.225808e-02    1.093331e-05
  3.255701e-02    1.020141e-05
  3.285594e-02    9.553895e-06
  3.315487e-02    8.800436e-06
  3.345380e-02    8.156384e-06
  3.375273e-02    7.638352e-06
  3.405166e-02    7.122104e-06
  3.435059e-02    6.668028e-06
  3.464952e-02    6.296794e-06
  3.494845e-02    5.939437e-06
  3.524738e-02    5.612266e-06
  3.554631e-02    5.233900e-06
  3.584524e-02    4.957181e-06
  3.614417e-02    4.775619e-06
  3.644310e-02    4.491700e-06
  3.674204e-02    4.291374e-06
  3.704097e-02    4.087912e-06
  3.733990e-02    3.853328e-06
  3.763883e-02    3.711694e-06
  3.793776e-02    3.598913e-06
  3.823669e-02    3.499244e-06
  3.853562e-02    3.357157e-06
  3.883455e-02    3.243627e-06
  3.913348e-02    3.138205e-06
  3.943241e-02    3.029899e-06
  3.973134e-02    2.956061e-06
  4.003027e-02    2.889212e-06
  4.032920e-02    2.784582e-06
  4.062813e-02    2.746029e-06
  4.092706e-02    2.706535e-06
  4.122599e-02    2.615310e-06
  4.152492e-02    2.580027e-06
  4.182385e-02    2.536978e-06
  4.212278e-02    2.471355e-06
  4.242171e-02    2.433558e-06
  4.272064e-02    2.389155e-06
  4.301957e-02    2.365996e-06
  4.331850e-02    2.345931e-06
  4.361743e-02    2.301200e-06
  4.391636e-02    2.296243e-06
  4.421529e-02    2.290668e-06
  4.451423e-02    2.258054e-06
  4.481316e-02    2.242105e-06
  4.511209e-02    2.218659e-06
  4.541102e-02    2.150432e-06
  4.570995e-02    2.099244e-06
  4.600888e-02    2.115129e-06
  4.630781e-02    2.119219e-06
  4.660674e-02    2.113899e-06
  4.690567e-02    2.084995e-06
  4.720460e-02    2.049125e-06
  4.750353e-02    2.032428e-06
  4.780246e-02    2.011673e-06
  4.810139e-02    1.990572e-06
  4.840032e-02    2.000609e-06
  4.869925e-02    2.000239e-06
  4.899818e-02    1.978199e-06
  4.929711e-02    1.912559e-06
  4.959604e-02    1.868785e-06
  4.989497e-02    1.831687e-06
  5.019390e-02    1.852214e-06
  5.049283e-02    1.831235e-06
  5.079176e-02    1.771270e-06
  5.109069e-02    1.761836e-06
  5.138962e-02    1.752167e-06
  5.168855e-02    1.723215e-06
  5.198748e-02    1.710352e-06
  5.228642e-02    1.668302e-06
  5.258535e-02    1.638251e-06
  5.288428e-02    1.586329e-06
  5.318321e-02    1.551452e-06
  5.348214e-02    1.505088e-06
  5.378107e-02    1.467159e-06
  5.408000e-02    1.455387e-06
  5.437893e-02    1.426899e-06
  5.467786e-02    1.395854e-06
  5.497679e-02    1.349199e-06
  5.527572e-02    1.314207e-06
  5.557465e-02    1.280182e-06
  5.587358e-02    1.256529e-06
  5.617251e-02    1.215875e-06
  5.647144e-02    1.160340e-06
  5.677037e-02    1.128347e-06
  5.706930e-02    1.095147e-06
  5.736823e-02    1.071555e-06
  5.766716e-02    1.024408e-06
  5.796609e-02    9.996647e-07
  5.826502e-02    9.814057e-07
  5.856395e-02    9.429178e-07
  5.886288e-02    9.241166e-07
  5.916181e-02    8.971214e-07
  5.946074e-02    8.725067e-07
  5.975967e-02    8.440352e-07
  6.005861e-02    8.174389e-07
  6.035754e-02    8.000732e-07
  6.065647e-02    7.940096e-07
  6.095540e-02    7.752461e-07
  6.125433e-02    7.441551e-07
  6.155326e-02    7.103482e-07
  6.185219e-02    6.909082e-07
  6.215112e-02    6.753609e-07
  6.245005e-02    6.545371e-07
  6.274898e-02    6.239205e-07
  6.304791e-02    6.025192e-07
  6.334684e-02    5.937521e-07
  6.364577e-02    5.827521e-07
  6.394470e-02    5.750546e-07
  6.424363e-02    5.542861e-07
  6.454256e-02    5.463060e-07
  6.484149e-02    5.341188e-07
  6.514042e-02    5.195923e-07
  6.543935e-02    5.081271e-07
  6.573828e-02    5.073007e-07
  6.603721e-02    4.941088e-07
  6.633614e-02    4.800581e-07
  6.663507e-02    4.837872e-07
  6.693400e-02    4.840962e-07
  6.723293e-02    4.667701e-07
  6.753186e-02    4.462916e-07
  6.783080e-02    4.421404e-07
  6.812973e-02    4.322353e-07
  6.842866e-02    4.296154e-07
  6.872759e-02    4.214034e-07
  6.902652e-02    4.094727e-07
  6.932545e-02    4.123426e-07
  6.962438e-02    4.058999e-07
  6.992331e-02    3.900599e-07
  7.022224e-02    3.886969e-07
  7.052117e-02    3.938816e-07
  7.082010e-02    3.937359e-07
  7.111903e-02    3.723986e-07
  7.141796e-02    3.572417e-07
  7.171689e-02    3.668470e-07
  7.201582e-02    3.639167e-07
  7.231475e-02    3.627435e-07
  7.261368e-02    3.599644e-07
  7.291261e-02    3.552402e-07
  7.321154e-02    3.493659e-07
  7.351047e-02    3.587260e-07
  7.380940e-02    3.576357e-07
  7.410833e-02    3.437069e-07
  7.440726e-02    3.299346e-07
  7.470619e-02    3.307842e-07
  7.500512e-02    3.294368e-07
  7.530405e-02    3.246110e-07
  7.560299e-02    3.239160e-07
  7.590192e-02    3.267398e-07
  7.620085e-02    3.236879e-07
  7.649978e-02    3.173189e-07
  7.679871e-02    3.155651e-07
  7.709764e-02    3.082477e-07
  7.739657e-02    3.140051e-07
  7.769550e-02    3.191103e-07
  7.799443e-02    3.041153e-07
  7.829336e-02    3.018153e-07
  7.859229e-02    3.074647e-07
  7.889122e-02    3.182620e-07
  7.919015e-02    3.217971e-07
  7.948908e-02    3.153077e-07
  7.978801e-02    3.130163e-07
  8.008694e-02    3.057759e-07
  8.038587e-02    3.096830e-07
  8.068480e-02    3.159590e-07
  8.098373e-02    3.168903e-07
  8.128266e-02    3.071663e-07
  8.158159e-02    3.064317e-07
  8.188052e-02    3.126179e-07
  8.217945e-02    3.068428e-07
  8.247838e-02    2.910066e-07
  8.277731e-02    2.954996e-07
  8.307624e-02    2.984596e-07
  8.337518e-02    2.964412e-07
  8.367411e-02    3.030869e-07
  8.397304e-02    2.942186e-07
  8.427197e-02    2.989050e-07
  8.457090e-02    3.108334e-07
  8.486983e-02    3.030106e-07
  8.516876e-02    3.039430e-07
  8.546769e-02    3.066919e-07
  8.576662e-02    3.083282e-07
  8.606555e-02    3.088523e-07
  8.636448e-02    3.136255e-07
  8.666341e-02    3.270213e-07
  8.696234e-02    3.256674e-07
  8.726127e-02    3.078139e-07
  8.756020e-02    3.018828e-07
  8.785913e-02    3.028774e-07
  8.815806e-02    2.968125e-07
  8.845699e-02    2.989944e-07
  8.875592e-02    2.983618e-07
  8.905485e-02    2.974292e-07
  8.935378e-02    2.988597e-07
  8.965271e-02    3.021717e-07
  8.995164e-02    2.881502e-07
  9.025057e-02    2.888776e-07
  9.054950e-02    2.971423e-07
  9.084843e-02    3.025905e-07
  9.114737e-02    3.018889e-07
  9.144630e-02    2.995856e-07
  9.174523e-02    2.985144e-07
  9.204416e-02    2.934763e-07
  9.234309e-02    2.898244e-07
  9.264202e-02    2.941167e-07
  9.294095e-02    2.965390e-07
  9.323988e-02    2.992501e-07
  9.353881e-02    2.946966e-07
  9.383774e-02    2.957752e-07
  9.413667e-02    2.999018e-07
  9.443560e-02    2.941311e-07
  9.473453e-02    2.947965e-07
  9.503346e-02    2.955184e-07
  9.533239e-02    2.916605e-07
  9.563132e-02    3.021399e-07
  9.593025e-02    3.032814e-07
  9.622918e-02    3.020110e-07
  9.652811e-02    3.016159e-07
  9.682704e-02    3.005534e-07
  9.712597e-02    2.984966e-07
  9.742490e-02    2.994357e-07
  9.772383e-02    2.995746e-07
  9.802276e-02    2.964755e-07
  9.832169e-02    2.965573e-07
  9.862062e-02    2.913285e-07
  9.891956e-02    2.924425e-07
  9.921849e-02    2.888916e-07
  9.951742e-02    2.846512e-07
  9.981635e-02    2.864912e-07
  1.001153e-01    2.869912e-07
  1.004142e-01    2.919402e-07
  1.007131e-01    2.912320e-07
  1.010121e-01    2.914816e-07
  1.013110e-01    2.895536e-07
  1.016099e-01    2.853423e-07
  1.019089e-01    2.851794e-07
  1.022078e-01    2.831770e-07
  1.025067e-01    2.879293e-07
  1.028057e-01    2.875026e-07
  1.031046e-01    2.779308e-07
  1.034035e-01    2.734291e-07
  1.037024e-01    2.828920e-07
  1.040014e-01    2.867233e-07
  1.043003e-01    2.875719e-07
  1.045992e-01    2.897137e-07
  1.048982e-01    2.889414e-07
  1.051971e-01    2.857437e-07
  1.054960e-01    2.808367e-07
  1.057950e-01    2.777844e-07
  1.060939e-01    2.760232e-07
  1.063928e-01    2.812514e-07
  1.066917e-01    2.752362e-07
  1.069907e-01    2.732999e-07
  1.072896e-01    2.701036e-07
  1.075885e-01    2.690932e-07
  1.078875e-01    2.781828e-07
  1.081864e-01    2.862005e-07
  1.084853e-01    2.778861e-07
  1.087843e-01    2.730366e-07
  1.090832e-01    2.773031e-07
  1.093821e-01    2.673378e-07
  1.096810e-01    2.633490e-07
  1.099800e-01    2.617082e-07
  1.102789e-01    2.628557e-07
  1.105778e-01    2.639408e-07
  1.108768e-01    2.637838e-07
  1.111757e-01    2.533539e-07
  1.114746e-01    2.462621e-07
  1.117736e-01    2.644445e-07
  1.120725e-01    2.699868e-07
  1.123714e-01    2.658191e-07
  1.126704e-01    2.671816e-07
  1.129693e-01    2.553909e-07
  1.132682e-01    2.531373e-07
  1.135671e-01    2.501179e-07
  1.138661e-01    2.504950e-07
  1.141650e-01    2.432060e-07
  1.144639e-01    2.484801e-07
  1.147629e-01    2.438277e-07
  1.150618e-01    2.321067e-07
  1.153607e-01    2.335174e-07
  1.156597e-01    2.247104e-07
  1.159586e-01    2.303403e-07
  1.162575e-01    2.506547e-07
  1.165564e-01    2.478424e-07
  1.168554e-01    2.370648e-07
  1.171543e-01    2.392608e-07
  1.174532e-01    2.447316e-07
  1.177522e-01    2.546475e-07
  1.180511e-01    2.413442e-07
  1.183500e-01    2.452257e-07
  1.186490e-01    2.525886e-07
  1.189479e-01    2.469496e-07
  1.192468e-01    2.455807e-07
  1.195458e-01    2.527154e-07
  1.198447e-01    2.419268e-07
  1.201436e-01    2.181144e-07
  1.204425e-01    1.736454e-07
  1.207415e-01    2.173985e-07
  1.210404e-01    1.831103e-07
  1.213393e-01    0.000000e+00
  1.216383e-01    0.000000e+00
  1.219372e-01    0.000000e+00
  1.222361e-01    0.000000e+00
  1.225351e-01    0.000000e+00
  1.228340e-01    0.000000e+00
  1.231329e-01    0.000000e+00
  1.234318e-01    0.000000e+00
  1.237308e-01    0.000000e+00
  1.240297e-01    0.000000e+00
  1.243286e-01    0.000000e+00
  1.246276e-01    0.000000e+00
  1.249265e-01    0.000000e+00
  1.252254e-01    0.000000e+00
  1.255244e-01    0.000000e+00
  1.258233e-01    0.000000e+00
  1.261222e-01    0.000000e+00
  1.264212e-01    0.000000e+00
  1.267201e-01    0.000000e+00
  1.270190e-01    0.000000e+00
  1.273179e-01    0.000000e+00
  1.276169e-01    0.000000e+00
  1.279158e-01    0.000000e+00
  1.282147e-01    0.000000e+00
  1.285137e-01    0.000000e+00
  1.288126e-01    0.000000e+00
  1.291115e-01    0.000000e+00
  1.294105e-01    0.000000e+00
  1.297094e-01    0.000000e+00
  1.300083e-01    0.000000e+00
  1.303072e-01    0.000000e+00
  1.306062e-01    0.000000e+00
  1.309051e-01    0.000000e+00
  1.312040e-01    0.000000e+00
  1.315030e-01    0.000000e+00
  1.318019e-01    0.000000e+00
  1.321008e-01    0.000000e+00
  1.323998e-01    0.000000e+00
  1.326987e-01    0.000000e+00
  1.329976e-01    0.000000e+00
  1.332965e-01    0.000000e+00
  1.335955e-01    0.000000e+00
  1.338944e-01    0.000000e+00
  1.341933e-01    0.000000e+00
  1.344923e-01    0.000000e+00
  1.347912e-01    0.000000e+00
  1.350901e-01    0.000000e+00
  1.353891e-01    0.000000e+00
  1.356880e-01    0.000000e+00
  1.359869e-01    0.000000e+00
  1.362859e-01    0.000000e+00
  1.365848e-01    0.000000e+00
  1.368837e-01    0.000000e+00
  1.371826e-01    0.000000e+00
  1.374816e-01    0.000000e+00
  1.377805e-01    0.000000e+00
  1.380794e-01    0.000000e+00
  1.383784e-01    0.000000e+00
  1.386773e-01    0.000000e+00
  1.389762e-01    0.000000e+00
  1.392752e-01    0.000000e+00
  1.395741e-01    0.000000e+00
  1.398730e-01    0.000000e+00
  1.401719e-01    0.000000e+00
  1.404709e-01    0.000000e+00
  1.407698e-01    0.000000e+00
  1.410687e-01    0.000000e+00
  1.413677e-01    0.000000e+00
  1.416666e-01    0.000000e+00
  1.419655e-01    0.000000e+00
  1.422645e-01    0.000000e+00
  1.425634e-01    0.000000e+00
  1.428623e-01    0.000000e+00
  1.431613e-01    0.000000e+00
  1.434602e-01    0.000000e+00
  1.437591e-01    0.000000e+00
  1.440580e-01    0.000000e+00
  1.443570e-01    0.000000e+00
  1.446559e-01    0.000000e+00
  1.449548e-01    0.000000e+00
  1.452538e-01    0.000000e+00
  1.455527e-01    0.000000e+00
  1.458516e-01    0.000000e+00
  1.461506e-01    0.000000e+00
  1.464495e-01    0.000000e+00
  1.467484e-01    0.000000e+00
  1.470473e-01    0.000000e+00
  1.473463e-01    0.000000e+00
  1.476452e-01    0.000000e+00
  1.479441e-01    0.000000e+00
  1.482431e-01    0.000000e+00
  1.485420e-01    0.000000e+00
  1.488409e-01    0.000000e+00
  1.491399e-01    0.000000e+00
  1.494388e-01    0.000000e+00
  1.497377e-01    0.000000e+00
  1.500367e-01    0.000000e+00
  1.503356e-01    0.000000e+00
  1.506345e-01    0.000000e+00
  1.509334e-01    0.000000e+00
  1.512324e-01    0.000000e+00
  1.515313e-01    0.000000e+00
  1.518302e-01    0.000000e+00
  1.521292e-01    0.000000e+00
  1.524281e-01    0.000000e+00
  1.527270e-01    0.000000e+00
  1.530260e-01    0.000000e+00
  1.533249e-01    0.000000e+00
  1.536238e-01    0.000000e+00
