# == pyFAI calibration ==
# Distance Sample to Detector: 2.266 m
# PONI: 5.659e-02, 4.293e-02 m
# Rotations: 0.000000 0.000000 0.000000 rad
# 
# == Fit2d calibration ==
# Distance Sample-beamCenter: 2266.000 mm
# Center: x=249.594, y=329.012 pix
# Tilt: 0.000 deg  TiltPlanRot: 0.000 deg
# 
# Detector Pilatus 300k	 PixelSize= 1.720e-04, 1.720e-04 m
#    Detector has a mask: True 
#    Detector has a dark current: False 
#    detector has a flat field: False 
# 
# Wavelength: 1.27818e-10 m
# Mask applied: user provided
# Dark current applied: False
# Flat field applied: False
# Polarization factor: None
# Normalization factor: 12523285.4
# --> AL_F127_220301_4fad001f-a9dc-40e3-a8d9-87c645d3631b_1_r1d.csv
#        q_A^-1             I 
  4.457554e-03    3.683104e-04
  4.756484e-03    2.812509e-04
  5.055415e-03    1.965313e-04
  5.354345e-03    1.334149e-04
  5.653276e-03    9.993985e-05
  5.952206e-03    1.554590e-04
  6.251136e-03    1.417292e-04
  6.550067e-03    1.234608e-04
  6.848997e-03    1.050586e-04
  7.147927e-03    8.942906e-05
  7.446858e-03    7.639213e-05
  7.745788e-03    6.577849e-05
  8.044719e-03    5.694174e-05
  8.343649e-03    5.005450e-05
  8.642579e-03    4.398859e-05
  8.941510e-03    3.904966e-05
  9.240440e-03    3.491850e-05
  9.539371e-03    3.120471e-05
  9.838301e-03    2.806888e-05
  1.013723e-02    2.554436e-05
  1.043616e-02    2.330291e-05
  1.073509e-02    2.118982e-05
  1.103402e-02    1.944303e-05
  1.133295e-02    1.795195e-05
  1.163188e-02    1.662355e-05
  1.193081e-02    1.551534e-05
  1.222974e-02    1.447381e-05
  1.252867e-02    1.354731e-05
  1.282760e-02    1.273793e-05
  1.312654e-02    1.199033e-05
  1.342547e-02    1.140350e-05
  1.372440e-02    1.093104e-05
  1.402333e-02    1.034942e-05
  1.432226e-02    9.862400e-06
  1.462119e-02    9.465278e-06
  1.492012e-02    9.177324e-06
  1.521905e-02    8.867569e-06
  1.551798e-02    8.581411e-06
  1.581691e-02    8.433528e-06
  1.611584e-02    8.218814e-06
  1.641477e-02    8.012400e-06
  1.671370e-02    7.898694e-06
  1.701263e-02    7.806981e-06
  1.731156e-02    7.669455e-06
  1.761049e-02    7.599514e-06
  1.790942e-02    7.537186e-06
  1.820835e-02    7.488996e-06
  1.850728e-02    7.448562e-06
  1.880621e-02    7.358170e-06
  1.910514e-02    7.351452e-06
  1.940407e-02    7.394014e-06
  1.970300e-02    7.355839e-06
  2.000193e-02    7.391644e-06
  2.030086e-02    7.437975e-06
  2.059979e-02    7.432497e-06
  2.089873e-02    7.490724e-06
  2.119766e-02    7.481042e-06
  2.149659e-02    7.479120e-06
  2.179552e-02    7.465202e-06
  2.209445e-02    7.510317e-06
  2.239338e-02    7.525735e-06
  2.269231e-02    7.462713e-06
  2.299124e-02    7.422520e-06
  2.329017e-02    7.454214e-06
  2.358910e-02    7.448550e-06
  2.388803e-02    7.417999e-06
  2.418696e-02    7.326413e-06
  2.448589e-02    7.299790e-06
  2.478482e-02    7.266629e-06
  2.508375e-02    7.185805e-06
  2.538268e-02    7.140470e-06
  2.568161e-02    7.013925e-06
  2.598054e-02    6.931361e-06
  2.627947e-02    6.895058e-06
  2.657840e-02    6.820389e-06
  2.687733e-02    6.768417e-06
  2.717626e-02    6.711706e-06
  2.747519e-02    6.634155e-06
  2.777412e-02    6.523770e-06
  2.807305e-02    6.428463e-06
  2.837198e-02    6.341202e-06
  2.867092e-02    6.264840e-06
  2.896985e-02    6.221201e-06
  2.926878e-02    6.157387e-06
  2.956771e-02    6.086029e-06
  2.986664e-02    5.963458e-06
  3.016557e-02    5.889042e-06
  3.046450e-02    5.867998e-06
  3.076343e-02    5.774104e-06
  3.106236e-02    5.707771e-06
  3.136129e-02    5.676651e-06
  3.166022e-02    5.591952e-06
  3.195915e-02    5.550959e-06
  3.225808e-02    5.524637e-06
  3.255701e-02    5.405412e-06
  3.285594e-02    5.346562e-06
  3.315487e-02    5.305071e-06
  3.345380e-02    5.261389e-06
  3.375273e-02    5.162594e-06
  3.405166e-02    5.137206e-06
  3.435059e-02    5.091945e-06
  3.464952e-02    5.024989e-06
  3.494845e-02    4.955389e-06
  3.524738e-02    4.915124e-06
  3.554631e-02    4.934826e-06
  3.584524e-02    4.893479e-06
  3.614417e-02    4.837965e-06
  3.644310e-02    4.779553e-06
  3.674204e-02    4.773924e-06
  3.704097e-02    4.756658e-06
  3.733990e-02    4.693753e-06
  3.763883e-02    4.674172e-06
  3.793776e-02    4.668057e-06
  3.823669e-02    4.629418e-06
  3.853562e-02    4.600146e-06
  3.883455e-02    4.603868e-06
  3.913348e-02    4.551994e-06
  3.943241e-02    4.493217e-06
  3.973134e-02    4.498667e-06
  4.003027e-02    4.467599e-06
  4.032920e-02    4.432825e-06
  4.062813e-02    4.392846e-06
  4.092706e-02    4.345482e-06
  4.122599e-02    4.341124e-06
  4.152492e-02    4.321549e-06
  4.182385e-02    4.312486e-06
  4.212278e-02    4.262241e-06
  4.242171e-02    4.220209e-06
  4.272064e-02    4.205164e-06
  4.301957e-02    4.165891e-06
  4.331850e-02    4.152004e-06
  4.361743e-02    4.085462e-06
  4.391636e-02    4.021992e-06
  4.421529e-02    4.034217e-06
  4.451423e-02    4.007904e-06
  4.481316e-02    3.927802e-06
  4.511209e-02    3.915849e-06
  4.541102e-02    3.919728e-06
  4.570995e-02    3.908481e-06
  4.600888e-02    3.875248e-06
  4.630781e-02    3.820148e-06
  4.660674e-02    3.761174e-06
  4.690567e-02    3.751479e-06
  4.720460e-02    3.734202e-06
  4.750353e-02    3.682075e-06
  4.780246e-02    3.651917e-06
  4.810139e-02    3.616753e-06
  4.840032e-02    3.570012e-06
  4.869925e-02    3.530694e-06
  4.899818e-02    3.500429e-06
  4.929711e-02    3.463378e-06
  4.959604e-02    3.422297e-06
  4.989497e-02    3.384580e-06
  5.019390e-02    3.352404e-06
  5.049283e-02    3.327237e-06
  5.079176e-02    3.259582e-06
  5.109069e-02    3.251731e-06
  5.138962e-02    3.238645e-06
  5.168855e-02    3.197589e-06
  5.198748e-02    3.174801e-06
  5.228642e-02    3.142045e-06
  5.258535e-02    3.096929e-06
  5.288428e-02    3.007812e-06
  5.318321e-02    2.959963e-06
  5.348214e-02    2.954102e-06
  5.378107e-02    2.922824e-06
  5.408000e-02    2.870948e-06
  5.437893e-02    2.843559e-06
  5.467786e-02    2.810123e-06
  5.497679e-02    2.753055e-06
  5.527572e-02    2.724365e-06
  5.557465e-02    2.721692e-06
  5.587358e-02    2.687214e-06
  5.617251e-02    2.635325e-06
  5.647144e-02    2.606562e-06
  5.677037e-02    2.588356e-06
  5.706930e-02    2.549452e-06
  5.736823e-02    2.520240e-06
  5.766716e-02    2.498740e-06
  5.796609e-02    2.464807e-06
  5.826502e-02    2.419798e-06
  5.856395e-02    2.386878e-06
  5.886288e-02    2.382573e-06
  5.916181e-02    2.358170e-06
  5.946074e-02    2.347712e-06
  5.975967e-02    2.320176e-06
  6.005861e-02    2.295352e-06
  6.035754e-02    2.286502e-06
  6.065647e-02    2.266132e-06
  6.095540e-02    2.233734e-06
  6.125433e-02    2.224769e-06
  6.155326e-02    2.206594e-06
  6.185219e-02    2.168977e-06
  6.215112e-02    2.156184e-06
  6.245005e-02    2.124550e-06
  6.274898e-02    2.099661e-06
  6.304791e-02    2.069210e-06
  6.334684e-02    2.049316e-06
  6.364577e-02    2.041661e-06
  6.394470e-02    2.026612e-06
  6.424363e-02    2.020511e-06
  6.454256e-02    1.997817e-06
  6.484149e-02    1.968348e-06
  6.514042e-02    1.953585e-06
  6.543935e-02    1.945163e-06
  6.573828e-02    1.930602e-06
  6.603721e-02    1.906064e-06
  6.633614e-02    1.889669e-06
  6.663507e-02    1.881245e-06
  6.693400e-02    1.895181e-06
  6.723293e-02    1.873039e-06
  6.753186e-02    1.857848e-06
  6.783080e-02    1.846231e-06
  6.812973e-02    1.819753e-06
  6.842866e-02    1.804920e-06
  6.872759e-02    1.797115e-06
  6.902652e-02    1.798204e-06
  6.932545e-02    1.787227e-06
  6.962438e-02    1.789760e-06
  6.992331e-02    1.790565e-06
  7.022224e-02    1.777797e-06
  7.052117e-02    1.762224e-06
  7.082010e-02    1.743278e-06
  7.111903e-02    1.728734e-06
  7.141796e-02    1.717340e-06
  7.171689e-02    1.709334e-06
  7.201582e-02    1.711429e-06
  7.231475e-02    1.714569e-06
  7.261368e-02    1.710163e-06
  7.291261e-02    1.698265e-06
  7.321154e-02    1.683187e-06
  7.351047e-02    1.691794e-06
  7.380940e-02    1.691514e-06
  7.410833e-02    1.665049e-06
  7.440726e-02    1.649098e-06
  7.470619e-02    1.628702e-06
  7.500512e-02    1.650012e-06
  7.530405e-02    1.662087e-06
  7.560299e-02    1.645753e-06
  7.590192e-02    1.639923e-06
  7.620085e-02    1.636194e-06
  7.649978e-02    1.647522e-06
  7.679871e-02    1.642640e-06
  7.709764e-02    1.617048e-06
  7.739657e-02    1.607074e-06
  7.769550e-02    1.605253e-06
  7.799443e-02    1.598038e-06
  7.829336e-02    1.609657e-06
  7.859229e-02    1.598196e-06
  7.889122e-02    1.593477e-06
  7.919015e-02    1.583949e-06
  7.948908e-02    1.576056e-06
  7.978801e-02    1.580498e-06
  8.008694e-02    1.574034e-06
  8.038587e-02    1.565174e-06
  8.068480e-02    1.569318e-06
  8.098373e-02    1.570799e-06
  8.128266e-02    1.557910e-06
  8.158159e-02    1.547836e-06
  8.188052e-02    1.538471e-06
  8.217945e-02    1.545868e-06
  8.247838e-02    1.550493e-06
  8.277731e-02    1.529761e-06
  8.307624e-02    1.534142e-06
  8.337518e-02    1.536374e-06
  8.367411e-02    1.540200e-06
  8.397304e-02    1.533198e-06
  8.427197e-02    1.532270e-06
  8.457090e-02    1.537091e-06
  8.486983e-02    1.525611e-06
  8.516876e-02    1.516761e-06
  8.546769e-02    1.517307e-06
  8.576662e-02    1.505580e-06
  8.606555e-02    1.508874e-06
  8.636448e-02    1.519904e-06
  8.666341e-02    1.521465e-06
  8.696234e-02    1.502683e-06
  8.726127e-02    1.498683e-06
  8.756020e-02    1.505658e-06
  8.785913e-02    1.499046e-06
  8.815806e-02    1.497920e-06
  8.845699e-02    1.494015e-06
  8.875592e-02    1.485210e-06
  8.905485e-02    1.488570e-06
  8.935378e-02    1.500871e-06
  8.965271e-02    1.497471e-06
  8.995164e-02    1.492308e-06
  9.025057e-02    1.492720e-06
  9.054950e-02    1.500934e-06
  9.084843e-02    1.503601e-06
  9.114737e-02    1.485952e-06
  9.144630e-02    1.487536e-06
  9.174523e-02    1.486578e-06
  9.204416e-02    1.493121e-06
  9.234309e-02    1.495386e-06
  9.264202e-02    1.487088e-06
  9.294095e-02    1.479611e-06
  9.323988e-02    1.468572e-06
  9.353881e-02    1.474470e-06
  9.383774e-02    1.477037e-06
  9.413667e-02    1.482963e-06
  9.443560e-02    1.487206e-06
  9.473453e-02    1.482701e-06
  9.503346e-02    1.482655e-06
  9.533239e-02    1.474407e-06
  9.563132e-02    1.474395e-06
  9.593025e-02    1.483367e-06
  9.622918e-02    1.494254e-06
  9.652811e-02    1.497577e-06
  9.682704e-02    1.492799e-06
  9.712597e-02    1.493204e-06
  9.742490e-02    1.494194e-06
  9.772383e-02    1.498356e-06
  9.802276e-02    1.491527e-06
  9.832169e-02    1.473342e-06
  9.862062e-02    1.471067e-06
  9.891956e-02    1.476155e-06
  9.921849e-02    1.474682e-06
  9.951742e-02    1.473960e-06
  9.981635e-02    1.469497e-06
  1.001153e-01    1.476399e-06
  1.004142e-01    1.465570e-06
  1.007131e-01    1.455078e-06
  1.010121e-01    1.465140e-06
  1.013110e-01    1.474431e-06
  1.016099e-01    1.465352e-06
  1.019089e-01    1.454883e-06
  1.022078e-01    1.459386e-06
  1.025067e-01    1.480870e-06
  1.028057e-01    1.465009e-06
  1.031046e-01    1.463016e-06
  1.034035e-01    1.463808e-06
  1.037024e-01    1.458392e-06
  1.040014e-01    1.469523e-06
  1.043003e-01    1.474790e-06
  1.045992e-01    1.464491e-06
  1.048982e-01    1.454386e-06
  1.051971e-01    1.458968e-06
  1.054960e-01    1.460491e-06
  1.057950e-01    1.450014e-06
  1.060939e-01    1.444712e-06
  1.063928e-01    1.447362e-06
  1.066917e-01    1.444459e-06
  1.069907e-01    1.459830e-06
  1.072896e-01    1.469989e-06
  1.075885e-01    1.461073e-06
  1.078875e-01    1.458068e-06
  1.081864e-01    1.455938e-06
  1.084853e-01    1.452980e-06
  1.087843e-01    1.458406e-06
  1.090832e-01    1.456769e-06
  1.093821e-01    1.477469e-06
  1.096810e-01    1.469296e-06
  1.099800e-01    1.465610e-06
  1.102789e-01    1.475579e-06
  1.105778e-01    1.461761e-06
  1.108768e-01    1.443866e-06
  1.111757e-01    1.437173e-06
  1.114746e-01    1.446059e-06
  1.117736e-01    1.431325e-06
  1.120725e-01    1.407905e-06
  1.123714e-01    1.419854e-06
  1.126704e-01    1.416280e-06
  1.129693e-01    1.404512e-06
  1.132682e-01    1.376288e-06
  1.135671e-01    1.344031e-06
  1.138661e-01    1.322643e-06
  1.141650e-01    1.309209e-06
  1.144639e-01    1.308461e-06
  1.147629e-01    1.307550e-06
  1.150618e-01    1.297182e-06
  1.153607e-01    1.292453e-06
  1.156597e-01    1.286388e-06
  1.159586e-01    1.271561e-06
  1.162575e-01    1.287931e-06
  1.165564e-01    1.296964e-06
  1.168554e-01    1.300997e-06
  1.171543e-01    1.272636e-06
  1.174532e-01    1.258514e-06
  1.177522e-01    1.276997e-06
  1.180511e-01    1.301003e-06
  1.183500e-01    1.323280e-06
  1.186490e-01    1.303190e-06
  1.189479e-01    1.275555e-06
  1.192468e-01    1.276021e-06
  1.195458e-01    1.307915e-06
  1.198447e-01    1.311526e-06
  1.201436e-01    1.319382e-06
  1.204425e-01    1.250457e-06
  1.207415e-01    1.114327e-06
  1.210404e-01    1.278777e-06
  1.213393e-01    0.000000e+00
  1.216383e-01    0.000000e+00
  1.219372e-01    0.000000e+00
  1.222361e-01    0.000000e+00
  1.225351e-01    0.000000e+00
  1.228340e-01    0.000000e+00
  1.231329e-01    0.000000e+00
  1.234318e-01    0.000000e+00
  1.237308e-01    0.000000e+00
  1.240297e-01    0.000000e+00
  1.243286e-01    0.000000e+00
  1.246276e-01    0.000000e+00
  1.249265e-01    0.000000e+00
  1.252254e-01    0.000000e+00
  1.255244e-01    0.000000e+00
  1.258233e-01    0.000000e+00
  1.261222e-01    0.000000e+00
  1.264212e-01    0.000000e+00
  1.267201e-01    0.000000e+00
  1.270190e-01    0.000000e+00
  1.273179e-01    0.000000e+00
  1.276169e-01    0.000000e+00
  1.279158e-01    0.000000e+00
  1.282147e-01    0.000000e+00
  1.285137e-01    0.000000e+00
  1.288126e-01    0.000000e+00
  1.291115e-01    0.000000e+00
  1.294105e-01    0.000000e+00
  1.297094e-01    0.000000e+00
  1.300083e-01    0.000000e+00
  1.303072e-01    0.000000e+00
  1.306062e-01    0.000000e+00
  1.309051e-01    0.000000e+00
  1.312040e-01    0.000000e+00
  1.315030e-01    0.000000e+00
  1.318019e-01    0.000000e+00
  1.321008e-01    0.000000e+00
  1.323998e-01    0.000000e+00
  1.326987e-01    0.000000e+00
  1.329976e-01    0.000000e+00
  1.332965e-01    0.000000e+00
  1.335955e-01    0.000000e+00
  1.338944e-01    0.000000e+00
  1.341933e-01    0.000000e+00
  1.344923e-01    0.000000e+00
  1.347912e-01    0.000000e+00
  1.350901e-01    0.000000e+00
  1.353891e-01    0.000000e+00
  1.356880e-01    0.000000e+00
  1.359869e-01    0.000000e+00
  1.362859e-01    0.000000e+00
  1.365848e-01    0.000000e+00
  1.368837e-01    0.000000e+00
  1.371826e-01    0.000000e+00
  1.374816e-01    0.000000e+00
  1.377805e-01    0.000000e+00
  1.380794e-01    0.000000e+00
  1.383784e-01    0.000000e+00
  1.386773e-01    0.000000e+00
  1.389762e-01    0.000000e+00
  1.392752e-01    0.000000e+00
  1.395741e-01    0.000000e+00
  1.398730e-01    0.000000e+00
  1.401719e-01    0.000000e+00
  1.404709e-01    0.000000e+00
  1.407698e-01    0.000000e+00
  1.410687e-01    0.000000e+00
  1.413677e-01    0.000000e+00
  1.416666e-01    0.000000e+00
  1.419655e-01    0.000000e+00
  1.422645e-01    0.000000e+00
  1.425634e-01    0.000000e+00
  1.428623e-01    0.000000e+00
  1.431613e-01    0.000000e+00
  1.434602e-01    0.000000e+00
  1.437591e-01    0.000000e+00
  1.440580e-01    0.000000e+00
  1.443570e-01    0.000000e+00
  1.446559e-01    0.000000e+00
  1.449548e-01    0.000000e+00
  1.452538e-01    0.000000e+00
  1.455527e-01    0.000000e+00
  1.458516e-01    0.000000e+00
  1.461506e-01    0.000000e+00
  1.464495e-01    0.000000e+00
  1.467484e-01    0.000000e+00
  1.470473e-01    0.000000e+00
  1.473463e-01    0.000000e+00
  1.476452e-01    0.000000e+00
  1.479441e-01    0.000000e+00
  1.482431e-01    0.000000e+00
  1.485420e-01    0.000000e+00
  1.488409e-01    0.000000e+00
  1.491399e-01    0.000000e+00
  1.494388e-01    0.000000e+00
  1.497377e-01    0.000000e+00
  1.500367e-01    0.000000e+00
  1.503356e-01    0.000000e+00
  1.506345e-01    0.000000e+00
  1.509334e-01    0.000000e+00
  1.512324e-01    0.000000e+00
  1.515313e-01    0.000000e+00
  1.518302e-01    0.000000e+00
  1.521292e-01    0.000000e+00
  1.524281e-01    0.000000e+00
  1.527270e-01    0.000000e+00
  1.530260e-01    0.000000e+00
  1.533249e-01    0.000000e+00
  1.536238e-01    0.000000e+00
