# == pyFAI calibration ==
# Distance Sample to Detector: 2.266 m
# PONI: 5.659e-02, 4.293e-02 m
# Rotations: 0.000000 0.000000 0.000000 rad
# 
# == Fit2d calibration ==
# Distance Sample-beamCenter: 2266.000 mm
# Center: x=249.594, y=329.012 pix
# Tilt: 0.000 deg  TiltPlanRot: 0.000 deg
# 
# Detector Pilatus 300k	 PixelSize= 1.720e-04, 1.720e-04 m
#    Detector has a mask: True 
#    Detector has a dark current: False 
#    detector has a flat field: False 
# 
# Wavelength: 1.27818e-10 m
# Mask applied: user provided
# Dark current applied: False
# Flat field applied: False
# Polarization factor: None
# Normalization factor: 26379632.600000005
# --> AL_F127_220301_19d91f89-8d36-4a06-9a4a-8378a2731e48_0_r1d.csv
#        q_A^-1             I 
  4.457554e-03    1.130460e-03
  4.756484e-03    8.759389e-04
  5.055415e-03    6.194077e-04
  5.354345e-03    4.319616e-04
  5.653276e-03    3.292840e-04
  5.952206e-03    5.268398e-04
  6.251136e-03    4.811632e-04
  6.550067e-03    4.180362e-04
  6.848997e-03    3.555619e-04
  7.147927e-03    3.000048e-04
  7.446858e-03    2.562324e-04
  7.745788e-03    2.196868e-04
  8.044719e-03    1.890566e-04
  8.343649e-03    1.649819e-04
  8.642579e-03    1.445134e-04
  8.941510e-03    1.269759e-04
  9.240440e-03    1.125541e-04
  9.539371e-03    1.000033e-04
  9.838301e-03    8.890729e-05
  1.013723e-02    7.969586e-05
  1.043616e-02    7.182251e-05
  1.073509e-02    6.468819e-05
  1.103402e-02    5.857615e-05
  1.133295e-02    5.319604e-05
  1.163188e-02    4.835134e-05
  1.193081e-02    4.425292e-05
  1.222974e-02    4.059066e-05
  1.252867e-02    3.723355e-05
  1.282760e-02    3.432215e-05
  1.312654e-02    3.160343e-05
  1.342547e-02    2.923629e-05
  1.372440e-02    2.711579e-05
  1.402333e-02    2.521235e-05
  1.432226e-02    2.349593e-05
  1.462119e-02    2.198536e-05
  1.492012e-02    2.066356e-05
  1.521905e-02    1.936522e-05
  1.551798e-02    1.813940e-05
  1.581691e-02    1.700904e-05
  1.611584e-02    1.602590e-05
  1.641477e-02    1.516590e-05
  1.671370e-02    1.427162e-05
  1.701263e-02    1.349840e-05
  1.731156e-02    1.291461e-05
  1.761049e-02    1.225531e-05
  1.790942e-02    1.169529e-05
  1.820835e-02    1.113593e-05
  1.850728e-02    1.064575e-05
  1.880621e-02    1.019881e-05
  1.910514e-02    9.781482e-06
  1.940407e-02    9.372855e-06
  1.970300e-02    9.021364e-06
  2.000193e-02    8.695071e-06
  2.030086e-02    8.384209e-06
  2.059979e-02    8.103337e-06
  2.089873e-02    7.854458e-06
  2.119766e-02    7.594284e-06
  2.149659e-02    7.335639e-06
  2.179552e-02    7.092209e-06
  2.209445e-02    6.906712e-06
  2.239338e-02    6.711447e-06
  2.269231e-02    6.519605e-06
  2.299124e-02    6.359414e-06
  2.329017e-02    6.196450e-06
  2.358910e-02    6.002048e-06
  2.388803e-02    5.842750e-06
  2.418696e-02    5.717571e-06
  2.448589e-02    5.605969e-06
  2.478482e-02    5.524680e-06
  2.508375e-02    5.423102e-06
  2.538268e-02    5.298139e-06
  2.568161e-02    5.213185e-06
  2.598054e-02    5.086908e-06
  2.627947e-02    5.005902e-06
  2.657840e-02    4.984697e-06
  2.687733e-02    4.883425e-06
  2.717626e-02    4.787275e-06
  2.747519e-02    4.728204e-06
  2.777412e-02    4.650007e-06
  2.807305e-02    4.610851e-06
  2.837198e-02    4.559477e-06
  2.867092e-02    4.469637e-06
  2.896985e-02    4.406647e-06
  2.926878e-02    4.364462e-06
  2.956771e-02    4.302516e-06
  2.986664e-02    4.256099e-06
  3.016557e-02    4.214886e-06
  3.046450e-02    4.169156e-06
  3.076343e-02    4.115846e-06
  3.106236e-02    4.077773e-06
  3.136129e-02    4.054027e-06
  3.166022e-02    4.034958e-06
  3.195915e-02    3.981981e-06
  3.225808e-02    3.946945e-06
  3.255701e-02    3.925533e-06
  3.285594e-02    3.875167e-06
  3.315487e-02    3.831984e-06
  3.345380e-02    3.804158e-06
  3.375273e-02    3.789732e-06
  3.405166e-02    3.749071e-06
  3.435059e-02    3.710778e-06
  3.464952e-02    3.662173e-06
  3.494845e-02    3.642460e-06
  3.524738e-02    3.618081e-06
  3.554631e-02    3.574608e-06
  3.584524e-02    3.542801e-06
  3.614417e-02    3.517390e-06
  3.644310e-02    3.512622e-06
  3.674204e-02    3.488102e-06
  3.704097e-02    3.432605e-06
  3.733990e-02    3.415073e-06
  3.763883e-02    3.391094e-06
  3.793776e-02    3.365330e-06
  3.823669e-02    3.354681e-06
  3.853562e-02    3.325989e-06
  3.883455e-02    3.302378e-06
  3.913348e-02    3.296242e-06
  3.943241e-02    3.281800e-06
  3.973134e-02    3.248171e-06
  4.003027e-02    3.222704e-06
  4.032920e-02    3.212184e-06
  4.062813e-02    3.216057e-06
  4.092706e-02    3.191097e-06
  4.122599e-02    3.176372e-06
  4.152492e-02    3.175506e-06
  4.182385e-02    3.158390e-06
  4.212278e-02    3.133452e-06
  4.242171e-02    3.126152e-06
  4.272064e-02    3.124120e-06
  4.301957e-02    3.122846e-06
  4.331850e-02    3.117859e-06
  4.361743e-02    3.102865e-06
  4.391636e-02    3.111686e-06
  4.421529e-02    3.102287e-06
  4.451423e-02    3.084028e-06
  4.481316e-02    3.070597e-06
  4.511209e-02    3.072506e-06
  4.541102e-02    3.071563e-06
  4.570995e-02    3.061093e-06
  4.600888e-02    3.069320e-06
  4.630781e-02    3.045229e-06
  4.660674e-02    3.047574e-06
  4.690567e-02    3.054084e-06
  4.720460e-02    3.054443e-06
  4.750353e-02    3.061027e-06
  4.780246e-02    3.044256e-06
  4.810139e-02    3.048145e-06
  4.840032e-02    3.038114e-06
  4.869925e-02    3.029602e-06
  4.899818e-02    3.036683e-06
  4.929711e-02    3.040334e-06
  4.959604e-02    3.045442e-06
  4.989497e-02    3.041617e-06
  5.019390e-02    3.055867e-06
  5.049283e-02    3.042120e-06
  5.079176e-02    3.034279e-06
  5.109069e-02    3.043335e-06
  5.138962e-02    3.081411e-06
  5.168855e-02    3.127585e-06
  5.198748e-02    3.159473e-06
  5.228642e-02    3.140754e-06
  5.258535e-02    3.042720e-06
  5.288428e-02    3.012909e-06
  5.318321e-02    3.017579e-06
  5.348214e-02    3.020222e-06
  5.378107e-02    3.021009e-06
  5.408000e-02    3.023948e-06
  5.437893e-02    3.013877e-06
  5.467786e-02    3.012233e-06
  5.497679e-02    3.020187e-06
  5.527572e-02    3.023842e-06
  5.557465e-02    3.018125e-06
  5.587358e-02    3.010264e-06
  5.617251e-02    3.022108e-06
  5.647144e-02    3.023943e-06
  5.677037e-02    3.025490e-06
  5.706930e-02    3.024415e-06
  5.736823e-02    3.012427e-06
  5.766716e-02    3.031618e-06
  5.796609e-02    3.044595e-06
  5.826502e-02    3.040709e-06
  5.856395e-02    3.043254e-06
  5.886288e-02    3.030572e-06
  5.916181e-02    3.035530e-06
  5.946074e-02    3.045096e-06
  5.975967e-02    3.052442e-06
  6.005861e-02    3.066760e-06
  6.035754e-02    3.073478e-06
  6.065647e-02    3.076617e-06
  6.095540e-02    3.088955e-06
  6.125433e-02    3.135238e-06
  6.155326e-02    3.148609e-06
  6.185219e-02    3.110791e-06
  6.215112e-02    3.104249e-06
  6.245005e-02    3.100843e-06
  6.274898e-02    3.087655e-06
  6.304791e-02    3.084915e-06
  6.334684e-02    3.096412e-06
  6.364577e-02    3.104554e-06
  6.394470e-02    3.103244e-06
  6.424363e-02    3.107318e-06
  6.454256e-02    3.113863e-06
  6.484149e-02    3.118848e-06
  6.514042e-02    3.125770e-06
  6.543935e-02    3.130484e-06
  6.573828e-02    3.133857e-06
  6.603721e-02    3.133907e-06
  6.633614e-02    3.139562e-06
  6.663507e-02    3.136316e-06
  6.693400e-02    3.141532e-06
  6.723293e-02    3.151475e-06
  6.753186e-02    3.149463e-06
  6.783080e-02    3.159436e-06
  6.812973e-02    3.176033e-06
  6.842866e-02    3.184456e-06
  6.872759e-02    3.178560e-06
  6.902652e-02    3.182420e-06
  6.932545e-02    3.179094e-06
  6.962438e-02    3.167204e-06
  6.992331e-02    3.172221e-06
  7.022224e-02    3.195549e-06
  7.052117e-02    3.202832e-06
  7.082010e-02    3.196574e-06
  7.111903e-02    3.207329e-06
  7.141796e-02    3.218399e-06
  7.171689e-02    3.202791e-06
  7.201582e-02    3.211029e-06
  7.231475e-02    3.216212e-06
  7.261368e-02    3.218854e-06
  7.291261e-02    3.232421e-06
  7.321154e-02    3.236436e-06
  7.351047e-02    3.234464e-06
  7.380940e-02    3.234288e-06
  7.410833e-02    3.230864e-06
  7.440726e-02    3.231045e-06
  7.470619e-02    3.237396e-06
  7.500512e-02    3.232602e-06
  7.530405e-02    3.234221e-06
  7.560299e-02    3.225010e-06
  7.590192e-02    3.241618e-06
  7.620085e-02    3.248244e-06
  7.649978e-02    3.245401e-06
  7.679871e-02    3.237603e-06
  7.709764e-02    3.233206e-06
  7.739657e-02    3.242935e-06
  7.769550e-02    3.247159e-06
  7.799443e-02    3.240251e-06
  7.829336e-02    3.225491e-06
  7.859229e-02    3.219836e-06
  7.889122e-02    3.213266e-06
  7.919015e-02    3.218316e-06
  7.948908e-02    3.219710e-06
  7.978801e-02    3.204335e-06
  8.008694e-02    3.208133e-06
  8.038587e-02    3.213655e-06
  8.068480e-02    3.215127e-06
  8.098373e-02    3.204770e-06
  8.128266e-02    3.200888e-06
  8.158159e-02    3.209833e-06
  8.188052e-02    3.198404e-06
  8.217945e-02    3.202625e-06
  8.247838e-02    3.202375e-06
  8.277731e-02    3.201546e-06
  8.307624e-02    3.204176e-06
  8.337518e-02    3.193620e-06
  8.367411e-02    3.175792e-06
  8.397304e-02    3.172271e-06
  8.427197e-02    3.172633e-06
  8.457090e-02    3.166082e-06
  8.486983e-02    3.171196e-06
  8.516876e-02    3.162169e-06
  8.546769e-02    3.160862e-06
  8.576662e-02    3.151469e-06
  8.606555e-02    3.146629e-06
  8.636448e-02    3.143826e-06
  8.666341e-02    3.131535e-06
  8.696234e-02    3.131828e-06
  8.726127e-02    3.128402e-06
  8.756020e-02    3.131144e-06
  8.785913e-02    3.129206e-06
  8.815806e-02    3.121912e-06
  8.845699e-02    3.107737e-06
  8.875592e-02    3.105973e-06
  8.905485e-02    3.111640e-06
  8.935378e-02    3.100914e-06
  8.965271e-02    3.091505e-06
  8.995164e-02    3.090366e-06
  9.025057e-02    3.062338e-06
  9.054950e-02    3.057253e-06
  9.084843e-02    3.069367e-06
  9.114737e-02    3.061348e-06
  9.144630e-02    3.046812e-06
  9.174523e-02    3.045307e-06
  9.204416e-02    3.052312e-06
  9.234309e-02    3.046077e-06
  9.264202e-02    3.036625e-06
  9.294095e-02    3.026581e-06
  9.323988e-02    3.018803e-06
  9.353881e-02    3.005728e-06
  9.383774e-02    2.997547e-06
  9.413667e-02    2.989477e-06
  9.443560e-02    2.998165e-06
  9.473453e-02    2.999078e-06
  9.503346e-02    2.990008e-06
  9.533239e-02    2.995521e-06
  9.563132e-02    2.997853e-06
  9.593025e-02    2.994621e-06
  9.622918e-02    2.990968e-06
  9.652811e-02    2.999609e-06
  9.682704e-02    2.998800e-06
  9.712597e-02    2.995216e-06
  9.742490e-02    2.974337e-06
  9.772383e-02    2.980953e-06
  9.802276e-02    2.958771e-06
  9.832169e-02    2.933965e-06
  9.862062e-02    2.928811e-06
  9.891956e-02    2.921658e-06
  9.921849e-02    2.913413e-06
  9.951742e-02    2.908358e-06
  9.981635e-02    2.915001e-06
  1.001153e-01    2.904417e-06
  1.004142e-01    2.894750e-06
  1.007131e-01    2.884351e-06
  1.010121e-01    2.879717e-06
  1.013110e-01    2.867706e-06
  1.016099e-01    2.877339e-06
  1.019089e-01    2.871270e-06
  1.022078e-01    2.850446e-06
  1.025067e-01    2.846628e-06
  1.028057e-01    2.853344e-06
  1.031046e-01    2.857346e-06
  1.034035e-01    2.842750e-06
  1.037024e-01    2.819977e-06
  1.040014e-01    2.821981e-06
  1.043003e-01    2.813237e-06
  1.045992e-01    2.824198e-06
  1.048982e-01    2.819219e-06
  1.051971e-01    2.805109e-06
  1.054960e-01    2.793023e-06
  1.057950e-01    2.797062e-06
  1.060939e-01    2.780814e-06
  1.063928e-01    2.775105e-06
  1.066917e-01    2.782322e-06
  1.069907e-01    2.773325e-06
  1.072896e-01    2.768581e-06
  1.075885e-01    2.758592e-06
  1.078875e-01    2.761116e-06
  1.081864e-01    2.764954e-06
  1.084853e-01    2.767483e-06
  1.087843e-01    2.755244e-06
  1.090832e-01    2.738477e-06
  1.093821e-01    2.733491e-06
  1.096810e-01    2.723931e-06
  1.099800e-01    2.718189e-06
  1.102789e-01    2.710178e-06
  1.105778e-01    2.706867e-06
  1.108768e-01    2.686166e-06
  1.111757e-01    2.681857e-06
  1.114746e-01    2.679955e-06
  1.117736e-01    2.674230e-06
  1.120725e-01    2.666009e-06
  1.123714e-01    2.658735e-06
  1.126704e-01    2.651842e-06
  1.129693e-01    2.631200e-06
  1.132682e-01    2.640440e-06
  1.135671e-01    2.616111e-06
  1.138661e-01    2.629028e-06
  1.141650e-01    2.640896e-06
  1.144639e-01    2.611349e-06
  1.147629e-01    2.617211e-06
  1.150618e-01    2.628444e-06
  1.153607e-01    2.604889e-06
  1.156597e-01    2.589529e-06
  1.159586e-01    2.618474e-06
  1.162575e-01    2.615639e-06
  1.165564e-01    2.594323e-06
  1.168554e-01    2.590351e-06
  1.171543e-01    2.590304e-06
  1.174532e-01    2.599583e-06
  1.177522e-01    2.637184e-06
  1.180511e-01    2.608088e-06
  1.183500e-01    2.589804e-06
  1.186490e-01    2.609048e-06
  1.189479e-01    2.573735e-06
  1.192468e-01    2.560821e-06
  1.195458e-01    2.574097e-06
  1.198447e-01    2.588538e-06
  1.201436e-01    2.572749e-06
  1.204425e-01    2.484210e-06
  1.207415e-01    2.412245e-06
  1.210404e-01    2.200658e-06
  1.213393e-01    0.000000e+00
  1.216383e-01    0.000000e+00
  1.219372e-01    0.000000e+00
  1.222361e-01    0.000000e+00
  1.225351e-01    0.000000e+00
  1.228340e-01    0.000000e+00
  1.231329e-01    0.000000e+00
  1.234318e-01    0.000000e+00
  1.237308e-01    0.000000e+00
  1.240297e-01    0.000000e+00
  1.243286e-01    0.000000e+00
  1.246276e-01    0.000000e+00
  1.249265e-01    0.000000e+00
  1.252254e-01    0.000000e+00
  1.255244e-01    0.000000e+00
  1.258233e-01    0.000000e+00
  1.261222e-01    0.000000e+00
  1.264212e-01    0.000000e+00
  1.267201e-01    0.000000e+00
  1.270190e-01    0.000000e+00
  1.273179e-01    0.000000e+00
  1.276169e-01    0.000000e+00
  1.279158e-01    0.000000e+00
  1.282147e-01    0.000000e+00
  1.285137e-01    0.000000e+00
  1.288126e-01    0.000000e+00
  1.291115e-01    0.000000e+00
  1.294105e-01    0.000000e+00
  1.297094e-01    0.000000e+00
  1.300083e-01    0.000000e+00
  1.303072e-01    0.000000e+00
  1.306062e-01    0.000000e+00
  1.309051e-01    0.000000e+00
  1.312040e-01    0.000000e+00
  1.315030e-01    0.000000e+00
  1.318019e-01    0.000000e+00
  1.321008e-01    0.000000e+00
  1.323998e-01    0.000000e+00
  1.326987e-01    0.000000e+00
  1.329976e-01    0.000000e+00
  1.332965e-01    0.000000e+00
  1.335955e-01    0.000000e+00
  1.338944e-01    0.000000e+00
  1.341933e-01    0.000000e+00
  1.344923e-01    0.000000e+00
  1.347912e-01    0.000000e+00
  1.350901e-01    0.000000e+00
  1.353891e-01    0.000000e+00
  1.356880e-01    0.000000e+00
  1.359869e-01    0.000000e+00
  1.362859e-01    0.000000e+00
  1.365848e-01    0.000000e+00
  1.368837e-01    0.000000e+00
  1.371826e-01    0.000000e+00
  1.374816e-01    0.000000e+00
  1.377805e-01    0.000000e+00
  1.380794e-01    0.000000e+00
  1.383784e-01    0.000000e+00
  1.386773e-01    0.000000e+00
  1.389762e-01    0.000000e+00
  1.392752e-01    0.000000e+00
  1.395741e-01    0.000000e+00
  1.398730e-01    0.000000e+00
  1.401719e-01    0.000000e+00
  1.404709e-01    0.000000e+00
  1.407698e-01    0.000000e+00
  1.410687e-01    0.000000e+00
  1.413677e-01    0.000000e+00
  1.416666e-01    0.000000e+00
  1.419655e-01    0.000000e+00
  1.422645e-01    0.000000e+00
  1.425634e-01    0.000000e+00
  1.428623e-01    0.000000e+00
  1.431613e-01    0.000000e+00
  1.434602e-01    0.000000e+00
  1.437591e-01    0.000000e+00
  1.440580e-01    0.000000e+00
  1.443570e-01    0.000000e+00
  1.446559e-01    0.000000e+00
  1.449548e-01    0.000000e+00
  1.452538e-01    0.000000e+00
  1.455527e-01    0.000000e+00
  1.458516e-01    0.000000e+00
  1.461506e-01    0.000000e+00
  1.464495e-01    0.000000e+00
  1.467484e-01    0.000000e+00
  1.470473e-01    0.000000e+00
  1.473463e-01    0.000000e+00
  1.476452e-01    0.000000e+00
  1.479441e-01    0.000000e+00
  1.482431e-01    0.000000e+00
  1.485420e-01    0.000000e+00
  1.488409e-01    0.000000e+00
  1.491399e-01    0.000000e+00
  1.494388e-01    0.000000e+00
  1.497377e-01    0.000000e+00
  1.500367e-01    0.000000e+00
  1.503356e-01    0.000000e+00
  1.506345e-01    0.000000e+00
  1.509334e-01    0.000000e+00
  1.512324e-01    0.000000e+00
  1.515313e-01    0.000000e+00
  1.518302e-01    0.000000e+00
  1.521292e-01    0.000000e+00
  1.524281e-01    0.000000e+00
  1.527270e-01    0.000000e+00
  1.530260e-01    0.000000e+00
  1.533249e-01    0.000000e+00
  1.536238e-01    0.000000e+00
