# == pyFAI calibration ==
# Distance Sample to Detector: 2.266 m
# PONI: 5.659e-02, 4.293e-02 m
# Rotations: 0.000000 0.000000 0.000000 rad
# 
# == Fit2d calibration ==
# Distance Sample-beamCenter: 2266.000 mm
# Center: x=249.594, y=329.012 pix
# Tilt: 0.000 deg  TiltPlanRot: 0.000 deg
# 
# Detector Pilatus 300k	 PixelSize= 1.720e-04, 1.720e-04 m
#    Detector has a mask: True 
#    Detector has a dark current: False 
#    detector has a flat field: False 
# 
# Wavelength: 1.27818e-10 m
# Mask applied: user provided
# Dark current applied: False
# Flat field applied: False
# Polarization factor: None
# Normalization factor: 165015.2
# --> AL_F127_220228_cffeb643-9c51-4958-b50e-d60746b7721f_2_r1d.csv
#        q_A^-1             I 
  4.457554e-03    2.438442e-03
  4.756484e-03    2.055126e-03
  5.055415e-03    1.697524e-03
  5.354345e-03    1.398496e-03
  5.653276e-03    1.252150e-03
  5.952206e-03    1.726453e-03
  6.251136e-03    1.602656e-03
  6.550067e-03    1.404220e-03
  6.848997e-03    1.229441e-03
  7.147927e-03    1.055975e-03
  7.446858e-03    9.324357e-04
  7.745788e-03    8.158471e-04
  8.044719e-03    7.166643e-04
  8.343649e-03    6.367462e-04
  8.642579e-03    5.677070e-04
  8.941510e-03    5.082724e-04
  9.240440e-03    4.569494e-04
  9.539371e-03    4.032074e-04
  9.838301e-03    3.633394e-04
  1.013723e-02    3.265418e-04
  1.043616e-02    2.951951e-04
  1.073509e-02    2.643446e-04
  1.103402e-02    2.393649e-04
  1.133295e-02    2.186351e-04
  1.163188e-02    1.975924e-04
  1.193081e-02    1.764482e-04
  1.222974e-02    1.606625e-04
  1.252867e-02    1.474837e-04
  1.282760e-02    1.380606e-04
  1.312654e-02    1.270059e-04
  1.342547e-02    1.136728e-04
  1.372440e-02    1.058869e-04
  1.402333e-02    9.616002e-05
  1.432226e-02    8.965567e-05
  1.462119e-02    8.095211e-05
  1.492012e-02    7.504073e-05
  1.521905e-02    6.879193e-05
  1.551798e-02    6.315773e-05
  1.581691e-02    5.899858e-05
  1.611584e-02    5.590415e-05
  1.641477e-02    5.307588e-05
  1.671370e-02    4.953352e-05
  1.701263e-02    4.567884e-05
  1.731156e-02    4.177597e-05
  1.761049e-02    4.002977e-05
  1.790942e-02    3.860713e-05
  1.820835e-02    3.586825e-05
  1.850728e-02    3.358389e-05
  1.880621e-02    3.077583e-05
  1.910514e-02    2.946729e-05
  1.940407e-02    2.775343e-05
  1.970300e-02    2.702153e-05
  2.000193e-02    2.501685e-05
  2.030086e-02    2.294318e-05
  2.059979e-02    2.143601e-05
  2.089873e-02    2.032730e-05
  2.119766e-02    1.974014e-05
  2.149659e-02    1.865920e-05
  2.179552e-02    1.752274e-05
  2.209445e-02    1.737661e-05
  2.239338e-02    1.691623e-05
  2.269231e-02    1.581644e-05
  2.299124e-02    1.451499e-05
  2.329017e-02    1.409803e-05
  2.358910e-02    1.403149e-05
  2.388803e-02    1.388023e-05
  2.418696e-02    1.294536e-05
  2.448589e-02    1.255201e-05
  2.478482e-02    1.202266e-05
  2.508375e-02    1.150716e-05
  2.538268e-02    1.146884e-05
  2.568161e-02    1.078457e-05
  2.598054e-02    9.920855e-06
  2.627947e-02    1.005097e-05
  2.657840e-02    9.697545e-06
  2.687733e-02    9.580332e-06
  2.717626e-02    9.476480e-06
  2.747519e-02    8.790282e-06
  2.777412e-02    8.510096e-06
  2.807305e-02    8.562169e-06
  2.837198e-02    8.733946e-06
  2.867092e-02    8.250456e-06
  2.896985e-02    8.144704e-06
  2.926878e-02    7.718699e-06
  2.956771e-02    7.665962e-06
  2.986664e-02    7.869681e-06
  3.016557e-02    7.535174e-06
  3.046450e-02    7.162710e-06
  3.076343e-02    6.837545e-06
  3.106236e-02    7.213225e-06
  3.136129e-02    7.323900e-06
  3.166022e-02    7.323412e-06
  3.195915e-02    6.753195e-06
  3.225808e-02    6.711088e-06
  3.255701e-02    6.421665e-06
  3.285594e-02    6.073476e-06
  3.315487e-02    5.828832e-06
  3.345380e-02    5.879874e-06
  3.375273e-02    6.127140e-06
  3.405166e-02    6.194661e-06
  3.435059e-02    5.748549e-06
  3.464952e-02    5.659188e-06
  3.494845e-02    5.556532e-06
  3.524738e-02    5.592359e-06
  3.554631e-02    5.489557e-06
  3.584524e-02    5.258035e-06
  3.614417e-02    5.179203e-06
  3.644310e-02    5.040093e-06
  3.674204e-02    5.029455e-06
  3.704097e-02    4.486798e-06
  3.733990e-02    4.467860e-06
  3.763883e-02    4.560169e-06
  3.793776e-02    4.643965e-06
  3.823669e-02    4.792157e-06
  3.853562e-02    4.711110e-06
  3.883455e-02    4.994536e-06
  3.913348e-02    4.694591e-06
  3.943241e-02    4.669679e-06
  3.973134e-02    4.609914e-06
  4.003027e-02    4.241262e-06
  4.032920e-02    4.102815e-06
  4.062813e-02    4.290476e-06
  4.092706e-02    4.454612e-06
  4.122599e-02    4.431206e-06
  4.152492e-02    4.211905e-06
  4.182385e-02    4.123835e-06
  4.212278e-02    3.909954e-06
  4.242171e-02    3.927338e-06
  4.272064e-02    3.728273e-06
  4.301957e-02    3.780907e-06
  4.331850e-02    3.733641e-06
  4.361743e-02    3.773020e-06
  4.391636e-02    3.754242e-06
  4.421529e-02    3.701225e-06
  4.451423e-02    3.451890e-06
  4.481316e-02    3.280401e-06
  4.511209e-02    3.604835e-06
  4.541102e-02    3.569198e-06
  4.570995e-02    3.530545e-06
  4.600888e-02    3.608329e-06
  4.630781e-02    3.579861e-06
  4.660674e-02    3.694381e-06
  4.690567e-02    3.599482e-06
  4.720460e-02    3.407679e-06
  4.750353e-02    3.440857e-06
  4.780246e-02    3.725544e-06
  4.810139e-02    3.803340e-06
  4.840032e-02    3.671608e-06
  4.869925e-02    3.644676e-06
  4.899818e-02    3.552570e-06
  4.929711e-02    3.488396e-06
  4.959604e-02    3.237002e-06
  4.989497e-02    3.311855e-06
  5.019390e-02    3.520026e-06
  5.049283e-02    3.465107e-06
  5.079176e-02    3.452425e-06
  5.109069e-02    3.522780e-06
  5.138962e-02    3.597608e-06
  5.168855e-02    3.496838e-06
  5.198748e-02    3.456207e-06
  5.228642e-02    3.458352e-06
  5.258535e-02    3.158128e-06
  5.288428e-02    3.182636e-06
  5.318321e-02    3.189369e-06
  5.348214e-02    3.121932e-06
  5.378107e-02    3.340721e-06
  5.408000e-02    3.525118e-06
  5.437893e-02    3.461121e-06
  5.467786e-02    3.219888e-06
  5.497679e-02    3.231176e-06
  5.527572e-02    3.336539e-06
  5.557465e-02    3.435383e-06
  5.587358e-02    3.347461e-06
  5.617251e-02    3.257546e-06
  5.647144e-02    3.210029e-06
  5.677037e-02    3.406190e-06
  5.706930e-02    3.329911e-06
  5.736823e-02    3.222822e-06
  5.766716e-02    3.233734e-06
  5.796609e-02    3.226401e-06
  5.826502e-02    3.137121e-06
  5.856395e-02    3.210278e-06
  5.886288e-02    3.294688e-06
  5.916181e-02    3.056634e-06
  5.946074e-02    3.144688e-06
  5.975967e-02    3.188834e-06
  6.005861e-02    3.105184e-06
  6.035754e-02    3.142045e-06
  6.065647e-02    3.262447e-06
  6.095540e-02    3.092713e-06
  6.125433e-02    3.175111e-06
  6.155326e-02    3.394677e-06
  6.185219e-02    3.404163e-06
  6.215112e-02    3.427664e-06
  6.245005e-02    3.357182e-06
  6.274898e-02    3.211469e-06
  6.304791e-02    3.106163e-06
  6.334684e-02    3.109571e-06
  6.364577e-02    3.122262e-06
  6.394470e-02    3.257636e-06
  6.424363e-02    3.349327e-06
  6.454256e-02    3.367311e-06
  6.484149e-02    3.219985e-06
  6.514042e-02    3.121410e-06
  6.543935e-02    3.389237e-06
  6.573828e-02    3.302439e-06
  6.603721e-02    3.369856e-06
  6.633614e-02    3.365403e-06
  6.663507e-02    3.194076e-06
  6.693400e-02    3.228045e-06
  6.723293e-02    3.248531e-06
  6.753186e-02    3.032783e-06
  6.783080e-02    3.037625e-06
  6.812973e-02    3.338816e-06
  6.842866e-02    3.199841e-06
  6.872759e-02    3.088566e-06
  6.902652e-02    3.143174e-06
  6.932545e-02    3.279817e-06
  6.962438e-02    3.282369e-06
  6.992331e-02    3.247035e-06
  7.022224e-02    3.229304e-06
  7.052117e-02    3.274277e-06
  7.082010e-02    3.577726e-06
  7.111903e-02    3.621888e-06
  7.141796e-02    3.326966e-06
  7.171689e-02    3.304746e-06
  7.201582e-02    3.258279e-06
  7.231475e-02    3.233857e-06
  7.261368e-02    3.311947e-06
  7.291261e-02    3.250417e-06
  7.321154e-02    3.301717e-06
  7.351047e-02    3.354952e-06
  7.380940e-02    3.267559e-06
  7.410833e-02    3.355387e-06
  7.440726e-02    3.326409e-06
  7.470619e-02    3.386713e-06
  7.500512e-02    3.388208e-06
  7.530405e-02    3.300599e-06
  7.560299e-02    3.232787e-06
  7.590192e-02    3.236338e-06
  7.620085e-02    3.287796e-06
  7.649978e-02    3.239485e-06
  7.679871e-02    3.386624e-06
  7.709764e-02    3.426759e-06
  7.739657e-02    3.247349e-06
  7.769550e-02    3.167287e-06
  7.799443e-02    3.158499e-06
  7.829336e-02    2.883915e-06
  7.859229e-02    2.978625e-06
  7.889122e-02    3.132779e-06
  7.919015e-02    3.188855e-06
  7.948908e-02    3.318353e-06
  7.978801e-02    3.413214e-06
  8.008694e-02    3.363404e-06
  8.038587e-02    3.313267e-06
  8.068480e-02    3.168208e-06
  8.098373e-02    3.200079e-06
  8.128266e-02    3.205666e-06
  8.158159e-02    3.365605e-06
  8.188052e-02    3.184733e-06
  8.217945e-02    3.263716e-06
  8.247838e-02    3.191419e-06
  8.277731e-02    3.159658e-06
  8.307624e-02    3.196889e-06
  8.337518e-02    3.177164e-06
  8.367411e-02    3.284036e-06
  8.397304e-02    3.268144e-06
  8.427197e-02    3.249925e-06
  8.457090e-02    3.053854e-06
  8.486983e-02    3.102201e-06
  8.516876e-02    3.164836e-06
  8.546769e-02    3.161780e-06
  8.576662e-02    3.121315e-06
  8.606555e-02    2.997918e-06
  8.636448e-02    2.910557e-06
  8.666341e-02    3.085906e-06
  8.696234e-02    3.168952e-06
  8.726127e-02    3.014302e-06
  8.756020e-02    3.040338e-06
  8.785913e-02    3.173561e-06
  8.815806e-02    3.155241e-06
  8.845699e-02    3.120111e-06
  8.875592e-02    3.124524e-06
  8.905485e-02    3.073895e-06
  8.935378e-02    3.048710e-06
  8.965271e-02    3.038351e-06
  8.995164e-02    3.167770e-06
  9.025057e-02    2.985716e-06
  9.054950e-02    3.093896e-06
  9.084843e-02    3.081982e-06
  9.114737e-02    3.031743e-06
  9.144630e-02    3.079075e-06
  9.174523e-02    3.010020e-06
  9.204416e-02    2.899149e-06
  9.234309e-02    2.802868e-06
  9.264202e-02    2.860822e-06
  9.294095e-02    2.893979e-06
  9.323988e-02    2.957483e-06
  9.353881e-02    2.899637e-06
  9.383774e-02    2.739395e-06
  9.413667e-02    2.795932e-06
  9.443560e-02    2.992139e-06
  9.473453e-02    2.963472e-06
  9.503346e-02    2.922057e-06
  9.533239e-02    3.011340e-06
  9.563132e-02    3.032236e-06
  9.593025e-02    2.963821e-06
  9.622918e-02    2.878739e-06
  9.652811e-02    2.857786e-06
  9.682704e-02    2.979302e-06
  9.712597e-02    2.953256e-06
  9.742490e-02    2.884478e-06
  9.772383e-02    3.002423e-06
  9.802276e-02    2.947621e-06
  9.832169e-02    2.831554e-06
  9.862062e-02    2.728021e-06
  9.891956e-02    2.811622e-06
  9.921849e-02    2.802568e-06
  9.951742e-02    2.711476e-06
  9.981635e-02    2.846514e-06
  1.001153e-01    2.905285e-06
  1.004142e-01    2.714268e-06
  1.007131e-01    2.752808e-06
  1.010121e-01    2.651449e-06
  1.013110e-01    2.712323e-06
  1.016099e-01    2.642799e-06
  1.019089e-01    2.847621e-06
  1.022078e-01    2.793078e-06
  1.025067e-01    2.697482e-06
  1.028057e-01    2.605780e-06
  1.031046e-01    2.595747e-06
  1.034035e-01    2.525929e-06
  1.037024e-01    2.531300e-06
  1.040014e-01    2.606092e-06
  1.043003e-01    2.612156e-06
  1.045992e-01    2.799654e-06
  1.048982e-01    2.670690e-06
  1.051971e-01    2.673222e-06
  1.054960e-01    2.718323e-06
  1.057950e-01    2.785180e-06
  1.060939e-01    2.765805e-06
  1.063928e-01    2.727616e-06
  1.066917e-01    2.810853e-06
  1.069907e-01    2.589928e-06
  1.072896e-01    2.667408e-06
  1.075885e-01    2.833176e-06
  1.078875e-01    2.654258e-06
  1.081864e-01    2.655837e-06
  1.084853e-01    2.670235e-06
  1.087843e-01    2.671232e-06
  1.090832e-01    2.600505e-06
  1.093821e-01    2.632857e-06
  1.096810e-01    2.731960e-06
  1.099800e-01    2.750340e-06
  1.102789e-01    2.641265e-06
  1.105778e-01    2.613770e-06
  1.108768e-01    2.717908e-06
  1.111757e-01    2.733499e-06
  1.114746e-01    2.606801e-06
  1.117736e-01    2.750930e-06
  1.120725e-01    2.791476e-06
  1.123714e-01    2.508659e-06
  1.126704e-01    2.567956e-06
  1.129693e-01    2.709834e-06
  1.132682e-01    2.574229e-06
  1.135671e-01    2.331484e-06
  1.138661e-01    2.462897e-06
  1.141650e-01    2.837380e-06
  1.144639e-01    2.697050e-06
  1.147629e-01    2.539135e-06
  1.150618e-01    2.485806e-06
  1.153607e-01    2.449518e-06
  1.156597e-01    2.566631e-06
  1.159586e-01    2.687712e-06
  1.162575e-01    2.528752e-06
  1.165564e-01    2.519807e-06
  1.168554e-01    2.422557e-06
  1.171543e-01    2.363203e-06
  1.174532e-01    2.548338e-06
  1.177522e-01    2.581776e-06
  1.180511e-01    2.758280e-06
  1.183500e-01    2.839336e-06
  1.186490e-01    2.501505e-06
  1.189479e-01    2.292589e-06
  1.192468e-01    2.264805e-06
  1.195458e-01    2.288102e-06
  1.198447e-01    2.602840e-06
  1.201436e-01    2.939089e-06
  1.204425e-01    3.429933e-06
  1.207415e-01    4.016785e-06
  1.210404e-01    6.065537e-06
  1.213393e-01    0.000000e+00
  1.216383e-01    0.000000e+00
  1.219372e-01    0.000000e+00
  1.222361e-01    0.000000e+00
  1.225351e-01    0.000000e+00
  1.228340e-01    0.000000e+00
  1.231329e-01    0.000000e+00
  1.234318e-01    0.000000e+00
  1.237308e-01    0.000000e+00
  1.240297e-01    0.000000e+00
  1.243286e-01    0.000000e+00
  1.246276e-01    0.000000e+00
  1.249265e-01    0.000000e+00
  1.252254e-01    0.000000e+00
  1.255244e-01    0.000000e+00
  1.258233e-01    0.000000e+00
  1.261222e-01    0.000000e+00
  1.264212e-01    0.000000e+00
  1.267201e-01    0.000000e+00
  1.270190e-01    0.000000e+00
  1.273179e-01    0.000000e+00
  1.276169e-01    0.000000e+00
  1.279158e-01    0.000000e+00
  1.282147e-01    0.000000e+00
  1.285137e-01    0.000000e+00
  1.288126e-01    0.000000e+00
  1.291115e-01    0.000000e+00
  1.294105e-01    0.000000e+00
  1.297094e-01    0.000000e+00
  1.300083e-01    0.000000e+00
  1.303072e-01    0.000000e+00
  1.306062e-01    0.000000e+00
  1.309051e-01    0.000000e+00
  1.312040e-01    0.000000e+00
  1.315030e-01    0.000000e+00
  1.318019e-01    0.000000e+00
  1.321008e-01    0.000000e+00
  1.323998e-01    0.000000e+00
  1.326987e-01    0.000000e+00
  1.329976e-01    0.000000e+00
  1.332965e-01    0.000000e+00
  1.335955e-01    0.000000e+00
  1.338944e-01    0.000000e+00
  1.341933e-01    0.000000e+00
  1.344923e-01    0.000000e+00
  1.347912e-01    0.000000e+00
  1.350901e-01    0.000000e+00
  1.353891e-01    0.000000e+00
  1.356880e-01    0.000000e+00
  1.359869e-01    0.000000e+00
  1.362859e-01    0.000000e+00
  1.365848e-01    0.000000e+00
  1.368837e-01    0.000000e+00
  1.371826e-01    0.000000e+00
  1.374816e-01    0.000000e+00
  1.377805e-01    0.000000e+00
  1.380794e-01    0.000000e+00
  1.383784e-01    0.000000e+00
  1.386773e-01    0.000000e+00
  1.389762e-01    0.000000e+00
  1.392752e-01    0.000000e+00
  1.395741e-01    0.000000e+00
  1.398730e-01    0.000000e+00
  1.401719e-01    0.000000e+00
  1.404709e-01    0.000000e+00
  1.407698e-01    0.000000e+00
  1.410687e-01    0.000000e+00
  1.413677e-01    0.000000e+00
  1.416666e-01    0.000000e+00
  1.419655e-01    0.000000e+00
  1.422645e-01    0.000000e+00
  1.425634e-01    0.000000e+00
  1.428623e-01    0.000000e+00
  1.431613e-01    0.000000e+00
  1.434602e-01    0.000000e+00
  1.437591e-01    0.000000e+00
  1.440580e-01    0.000000e+00
  1.443570e-01    0.000000e+00
  1.446559e-01    0.000000e+00
  1.449548e-01    0.000000e+00
  1.452538e-01    0.000000e+00
  1.455527e-01    0.000000e+00
  1.458516e-01    0.000000e+00
  1.461506e-01    0.000000e+00
  1.464495e-01    0.000000e+00
  1.467484e-01    0.000000e+00
  1.470473e-01    0.000000e+00
  1.473463e-01    0.000000e+00
  1.476452e-01    0.000000e+00
  1.479441e-01    0.000000e+00
  1.482431e-01    0.000000e+00
  1.485420e-01    0.000000e+00
  1.488409e-01    0.000000e+00
  1.491399e-01    0.000000e+00
  1.494388e-01    0.000000e+00
  1.497377e-01    0.000000e+00
  1.500367e-01    0.000000e+00
  1.503356e-01    0.000000e+00
  1.506345e-01    0.000000e+00
  1.509334e-01    0.000000e+00
  1.512324e-01    0.000000e+00
  1.515313e-01    0.000000e+00
  1.518302e-01    0.000000e+00
  1.521292e-01    0.000000e+00
  1.524281e-01    0.000000e+00
  1.527270e-01    0.000000e+00
  1.530260e-01    0.000000e+00
  1.533249e-01    0.000000e+00
  1.536238e-01    0.000000e+00
