# == pyFAI calibration ==
# Distance Sample to Detector: 2.266 m
# PONI: 5.659e-02, 4.293e-02 m
# Rotations: 0.000000 0.000000 0.000000 rad
# 
# == Fit2d calibration ==
# Distance Sample-beamCenter: 2266.000 mm
# Center: x=249.594, y=329.012 pix
# Tilt: 0.000 deg  TiltPlanRot: 0.000 deg
# 
# Detector Pilatus 300k	 PixelSize= 1.720e-04, 1.720e-04 m
#    Detector has a mask: True 
#    Detector has a dark current: False 
#    detector has a flat field: False 
# 
# Wavelength: 1.27818e-10 m
# Mask applied: user provided
# Dark current applied: False
# Flat field applied: False
# Polarization factor: None
# Normalization factor: 1475135.4000000001
# --> AL_F127_220225_d090e637-7f8e-4728-b42a-6115fadd64bc_1_r1d.csv
#        q_A^-1             I 
  4.457554e-03    2.424120e-03
  4.756484e-03    1.918065e-03
  5.055415e-03    1.360073e-03
  5.354345e-03    9.188755e-04
  5.653276e-03    6.779783e-04
  5.952206e-03    1.053050e-03
  6.251136e-03    9.548475e-04
  6.550067e-03    8.300869e-04
  6.848997e-03    7.101164e-04
  7.147927e-03    5.981119e-04
  7.446858e-03    5.125318e-04
  7.745788e-03    4.394210e-04
  8.044719e-03    3.763921e-04
  8.343649e-03    3.305954e-04
  8.642579e-03    2.908804e-04
  8.941510e-03    2.578724e-04
  9.240440e-03    2.299328e-04
  9.539371e-03    2.049053e-04
  9.838301e-03    1.846878e-04
  1.013723e-02    1.662205e-04
  1.043616e-02    1.493912e-04
  1.073509e-02    1.347645e-04
  1.103402e-02    1.236476e-04
  1.133295e-02    1.130691e-04
  1.163188e-02    1.037886e-04
  1.193081e-02    9.612804e-05
  1.222974e-02    8.899162e-05
  1.252867e-02    8.229670e-05
  1.282760e-02    7.628035e-05
  1.312654e-02    7.153814e-05
  1.342547e-02    6.697460e-05
  1.372440e-02    6.251618e-05
  1.402333e-02    5.861707e-05
  1.432226e-02    5.485334e-05
  1.462119e-02    5.165987e-05
  1.492012e-02    4.931107e-05
  1.521905e-02    4.634318e-05
  1.551798e-02    4.379304e-05
  1.581691e-02    4.189425e-05
  1.611584e-02    4.025832e-05
  1.641477e-02    3.865978e-05
  1.671370e-02    3.679608e-05
  1.701263e-02    3.513467e-05
  1.731156e-02    3.347259e-05
  1.761049e-02    3.196470e-05
  1.790942e-02    3.082825e-05
  1.820835e-02    2.945578e-05
  1.850728e-02    2.852179e-05
  1.880621e-02    2.773118e-05
  1.910514e-02    2.711871e-05
  1.940407e-02    2.643151e-05
  1.970300e-02    2.575561e-05
  2.000193e-02    2.514104e-05
  2.030086e-02    2.443628e-05
  2.059979e-02    2.361109e-05
  2.089873e-02    2.315509e-05
  2.119766e-02    2.285269e-05
  2.149659e-02    2.221178e-05
  2.179552e-02    2.194761e-05
  2.209445e-02    2.182376e-05
  2.239338e-02    2.131877e-05
  2.269231e-02    2.104699e-05
  2.299124e-02    2.094677e-05
  2.329017e-02    2.051462e-05
  2.358910e-02    1.995060e-05
  2.388803e-02    1.951624e-05
  2.418696e-02    1.927433e-05
  2.448589e-02    1.900068e-05
  2.478482e-02    1.866652e-05
  2.508375e-02    1.855090e-05
  2.538268e-02    1.823595e-05
  2.568161e-02    1.788593e-05
  2.598054e-02    1.790865e-05
  2.627947e-02    1.782634e-05
  2.657840e-02    1.747022e-05
  2.687733e-02    1.749355e-05
  2.717626e-02    1.728247e-05
  2.747519e-02    1.701536e-05
  2.777412e-02    1.670869e-05
  2.807305e-02    1.671066e-05
  2.837198e-02    1.654157e-05
  2.867092e-02    1.622893e-05
  2.896985e-02    1.601733e-05
  2.926878e-02    1.576000e-05
  2.956771e-02    1.564156e-05
  2.986664e-02    1.552768e-05
  3.016557e-02    1.529348e-05
  3.046450e-02    1.508044e-05
  3.076343e-02    1.490729e-05
  3.106236e-02    1.463390e-05
  3.136129e-02    1.468704e-05
  3.166022e-02    1.454365e-05
  3.195915e-02    1.427685e-05
  3.225808e-02    1.417809e-05
  3.255701e-02    1.414755e-05
  3.285594e-02    1.400837e-05
  3.315487e-02    1.380874e-05
  3.345380e-02    1.376956e-05
  3.375273e-02    1.358564e-05
  3.405166e-02    1.334748e-05
  3.435059e-02    1.329153e-05
  3.464952e-02    1.319146e-05
  3.494845e-02    1.303104e-05
  3.524738e-02    1.298476e-05
  3.554631e-02    1.289499e-05
  3.584524e-02    1.285635e-05
  3.614417e-02    1.282557e-05
  3.644310e-02    1.275924e-05
  3.674204e-02    1.264975e-05
  3.704097e-02    1.263189e-05
  3.733990e-02    1.248734e-05
  3.763883e-02    1.239125e-05
  3.793776e-02    1.238398e-05
  3.823669e-02    1.226744e-05
  3.853562e-02    1.209608e-05
  3.883455e-02    1.197468e-05
  3.913348e-02    1.196321e-05
  3.943241e-02    1.194796e-05
  3.973134e-02    1.178423e-05
  4.003027e-02    1.181406e-05
  4.032920e-02    1.186705e-05
  4.062813e-02    1.180632e-05
  4.092706e-02    1.165544e-05
  4.122599e-02    1.153212e-05
  4.152492e-02    1.156347e-05
  4.182385e-02    1.146559e-05
  4.212278e-02    1.131214e-05
  4.242171e-02    1.126350e-05
  4.272064e-02    1.132020e-05
  4.301957e-02    1.127903e-05
  4.331850e-02    1.119228e-05
  4.361743e-02    1.112042e-05
  4.391636e-02    1.104926e-05
  4.421529e-02    1.102293e-05
  4.451423e-02    1.096078e-05
  4.481316e-02    1.082686e-05
  4.511209e-02    1.091061e-05
  4.541102e-02    1.093455e-05
  4.570995e-02    1.093055e-05
  4.600888e-02    1.079770e-05
  4.630781e-02    1.060916e-05
  4.660674e-02    1.055580e-05
  4.690567e-02    1.058435e-05
  4.720460e-02    1.052326e-05
  4.750353e-02    1.043431e-05
  4.780246e-02    1.040074e-05
  4.810139e-02    1.045745e-05
  4.840032e-02    1.042621e-05
  4.869925e-02    1.042391e-05
  4.899818e-02    1.032392e-05
  4.929711e-02    1.035625e-05
  4.959604e-02    1.040947e-05
  4.989497e-02    1.022224e-05
  5.019390e-02    1.017883e-05
  5.049283e-02    1.020995e-05
  5.079176e-02    1.028956e-05
  5.109069e-02    1.032383e-05
  5.138962e-02    1.031986e-05
  5.168855e-02    1.034490e-05
  5.198748e-02    1.042389e-05
  5.228642e-02    1.036567e-05
  5.258535e-02    1.018268e-05
  5.288428e-02    1.000847e-05
  5.318321e-02    9.984080e-06
  5.348214e-02    9.976097e-06
  5.378107e-02    1.007599e-05
  5.408000e-02    1.007185e-05
  5.437893e-02    9.989999e-06
  5.467786e-02    9.984307e-06
  5.497679e-02    9.991248e-06
  5.527572e-02    9.961791e-06
  5.557465e-02    9.960217e-06
  5.587358e-02    9.986626e-06
  5.617251e-02    9.955861e-06
  5.647144e-02    9.995352e-06
  5.677037e-02    9.975216e-06
  5.706930e-02    9.798019e-06
  5.736823e-02    9.891507e-06
  5.766716e-02    9.959547e-06
  5.796609e-02    9.895328e-06
  5.826502e-02    9.866190e-06
  5.856395e-02    9.854802e-06
  5.886288e-02    9.924274e-06
  5.916181e-02    9.814858e-06
  5.946074e-02    9.733884e-06
  5.975967e-02    9.762041e-06
  6.005861e-02    9.700316e-06
  6.035754e-02    9.602326e-06
  6.065647e-02    9.710367e-06
  6.095540e-02    9.779988e-06
  6.125433e-02    9.873270e-06
  6.155326e-02    9.909012e-06
  6.185219e-02    9.871516e-06
  6.215112e-02    9.871931e-06
  6.245005e-02    9.759610e-06
  6.274898e-02    9.706345e-06
  6.304791e-02    9.768107e-06
  6.334684e-02    9.700702e-06
  6.364577e-02    9.719786e-06
  6.394470e-02    9.698050e-06
  6.424363e-02    9.705934e-06
  6.454256e-02    9.725600e-06
  6.484149e-02    9.710257e-06
  6.514042e-02    9.736440e-06
  6.543935e-02    9.654323e-06
  6.573828e-02    9.601567e-06
  6.603721e-02    9.702789e-06
  6.633614e-02    9.726403e-06
  6.663507e-02    9.676352e-06
  6.693400e-02    9.734072e-06
  6.723293e-02    9.732359e-06
  6.753186e-02    9.705146e-06
  6.783080e-02    9.648705e-06
  6.812973e-02    9.667898e-06
  6.842866e-02    9.558835e-06
  6.872759e-02    9.573728e-06
  6.902652e-02    9.636224e-06
  6.932545e-02    9.690345e-06
  6.962438e-02    9.550829e-06
  6.992331e-02    9.579269e-06
  7.022224e-02    9.676253e-06
  7.052117e-02    9.756451e-06
  7.082010e-02    9.613944e-06
  7.111903e-02    9.558862e-06
  7.141796e-02    9.588998e-06
  7.171689e-02    9.668298e-06
  7.201582e-02    9.579179e-06
  7.231475e-02    9.635884e-06
  7.261368e-02    9.772404e-06
  7.291261e-02    9.803322e-06
  7.321154e-02    9.741949e-06
  7.351047e-02    9.665948e-06
  7.380940e-02    9.680283e-06
  7.410833e-02    9.723983e-06
  7.440726e-02    9.742655e-06
  7.470619e-02    9.648533e-06
  7.500512e-02    9.558597e-06
  7.530405e-02    9.550621e-06
  7.560299e-02    9.673898e-06
  7.590192e-02    9.625974e-06
  7.620085e-02    9.513304e-06
  7.649978e-02    9.454264e-06
  7.679871e-02    9.516648e-06
  7.709764e-02    9.532107e-06
  7.739657e-02    9.537868e-06
  7.769550e-02    9.579718e-06
  7.799443e-02    9.529660e-06
  7.829336e-02    9.426838e-06
  7.859229e-02    9.407163e-06
  7.889122e-02    9.553423e-06
  7.919015e-02    9.573007e-06
  7.948908e-02    9.607929e-06
  7.978801e-02    9.675254e-06
  8.008694e-02    9.594231e-06
  8.038587e-02    9.687236e-06
  8.068480e-02    9.579432e-06
  8.098373e-02    9.504030e-06
  8.128266e-02    9.503004e-06
  8.158159e-02    9.505841e-06
  8.188052e-02    9.433370e-06
  8.217945e-02    9.373433e-06
  8.247838e-02    9.373457e-06
  8.277731e-02    9.423150e-06
  8.307624e-02    9.370473e-06
  8.337518e-02    9.273769e-06
  8.367411e-02    9.307434e-06
  8.397304e-02    9.336521e-06
  8.427197e-02    9.353225e-06
  8.457090e-02    9.336261e-06
  8.486983e-02    9.319024e-06
  8.516876e-02    9.283217e-06
  8.546769e-02    9.303050e-06
  8.576662e-02    9.384748e-06
  8.606555e-02    9.336023e-06
  8.636448e-02    9.326039e-06
  8.666341e-02    9.305416e-06
  8.696234e-02    9.307672e-06
  8.726127e-02    9.318080e-06
  8.756020e-02    9.243958e-06
  8.785913e-02    9.261372e-06
  8.815806e-02    9.283071e-06
  8.845699e-02    9.265083e-06
  8.875592e-02    9.275854e-06
  8.905485e-02    9.337889e-06
  8.935378e-02    9.316899e-06
  8.965271e-02    9.267766e-06
  8.995164e-02    9.288143e-06
  9.025057e-02    9.268625e-06
  9.054950e-02    9.256941e-06
  9.084843e-02    9.298446e-06
  9.114737e-02    9.340558e-06
  9.144630e-02    9.251443e-06
  9.174523e-02    9.194327e-06
  9.204416e-02    9.275475e-06
  9.234309e-02    9.271806e-06
  9.264202e-02    9.228727e-06
  9.294095e-02    9.231364e-06
  9.323988e-02    9.189540e-06
  9.353881e-02    9.206708e-06
  9.383774e-02    9.245048e-06
  9.413667e-02    9.278921e-06
  9.443560e-02    9.305526e-06
  9.473453e-02    9.203541e-06
  9.503346e-02    9.232008e-06
  9.533239e-02    9.322296e-06
  9.563132e-02    9.244753e-06
  9.593025e-02    9.211290e-06
  9.622918e-02    9.145486e-06
  9.652811e-02    9.188154e-06
  9.682704e-02    9.303717e-06
  9.712597e-02    9.358888e-06
  9.742490e-02    9.314723e-06
  9.772383e-02    9.307823e-06
  9.802276e-02    9.252224e-06
  9.832169e-02    9.238222e-06
  9.862062e-02    9.280328e-06
  9.891956e-02    9.156670e-06
  9.921849e-02    9.056242e-06
  9.951742e-02    9.182790e-06
  9.981635e-02    9.220015e-06
  1.001153e-01    9.305150e-06
  1.004142e-01    9.294109e-06
  1.007131e-01    9.238074e-06
  1.010121e-01    9.203419e-06
  1.013110e-01    9.177187e-06
  1.016099e-01    9.296093e-06
  1.019089e-01    9.280026e-06
  1.022078e-01    9.180260e-06
  1.025067e-01    9.175084e-06
  1.028057e-01    9.151756e-06
  1.031046e-01    9.266623e-06
  1.034035e-01    9.263774e-06
  1.037024e-01    9.227236e-06
  1.040014e-01    9.157776e-06
  1.043003e-01    9.151908e-06
  1.045992e-01    9.233781e-06
  1.048982e-01    9.240007e-06
  1.051971e-01    9.197039e-06
  1.054960e-01    9.074058e-06
  1.057950e-01    9.003389e-06
  1.060939e-01    9.142607e-06
  1.063928e-01    9.158352e-06
  1.066917e-01    9.141349e-06
  1.069907e-01    9.208172e-06
  1.072896e-01    9.229148e-06
  1.075885e-01    9.245746e-06
  1.078875e-01    9.266790e-06
  1.081864e-01    9.305297e-06
  1.084853e-01    9.321743e-06
  1.087843e-01    9.292934e-06
  1.090832e-01    9.242677e-06
  1.093821e-01    9.256008e-06
  1.096810e-01    9.207171e-06
  1.099800e-01    9.266612e-06
  1.102789e-01    9.252741e-06
  1.105778e-01    9.191317e-06
  1.108768e-01    9.100354e-06
  1.111757e-01    9.087024e-06
  1.114746e-01    9.069578e-06
  1.117736e-01    8.950818e-06
  1.120725e-01    8.855177e-06
  1.123714e-01    8.777832e-06
  1.126704e-01    8.713080e-06
  1.129693e-01    8.644834e-06
  1.132682e-01    8.443367e-06
  1.135671e-01    8.357641e-06
  1.138661e-01    8.344042e-06
  1.141650e-01    8.277418e-06
  1.144639e-01    8.212124e-06
  1.147629e-01    7.955811e-06
  1.150618e-01    8.021523e-06
  1.153607e-01    7.997382e-06
  1.156597e-01    7.799246e-06
  1.159586e-01    7.824291e-06
  1.162575e-01    8.009391e-06
  1.165564e-01    7.948148e-06
  1.168554e-01    7.875242e-06
  1.171543e-01    7.811385e-06
  1.174532e-01    7.716368e-06
  1.177522e-01    7.646046e-06
  1.180511e-01    7.807913e-06
  1.183500e-01    7.867751e-06
  1.186490e-01    7.814074e-06
  1.189479e-01    7.948893e-06
  1.192468e-01    7.929692e-06
  1.195458e-01    7.955566e-06
  1.198447e-01    8.136584e-06
  1.201436e-01    8.279049e-06
  1.204425e-01    7.919976e-06
  1.207415e-01    7.852223e-06
  1.210404e-01    1.017777e-05
  1.213393e-01    0.000000e+00
  1.216383e-01    0.000000e+00
  1.219372e-01    0.000000e+00
  1.222361e-01    0.000000e+00
  1.225351e-01    0.000000e+00
  1.228340e-01    0.000000e+00
  1.231329e-01    0.000000e+00
  1.234318e-01    0.000000e+00
  1.237308e-01    0.000000e+00
  1.240297e-01    0.000000e+00
  1.243286e-01    0.000000e+00
  1.246276e-01    0.000000e+00
  1.249265e-01    0.000000e+00
  1.252254e-01    0.000000e+00
  1.255244e-01    0.000000e+00
  1.258233e-01    0.000000e+00
  1.261222e-01    0.000000e+00
  1.264212e-01    0.000000e+00
  1.267201e-01    0.000000e+00
  1.270190e-01    0.000000e+00
  1.273179e-01    0.000000e+00
  1.276169e-01    0.000000e+00
  1.279158e-01    0.000000e+00
  1.282147e-01    0.000000e+00
  1.285137e-01    0.000000e+00
  1.288126e-01    0.000000e+00
  1.291115e-01    0.000000e+00
  1.294105e-01    0.000000e+00
  1.297094e-01    0.000000e+00
  1.300083e-01    0.000000e+00
  1.303072e-01    0.000000e+00
  1.306062e-01    0.000000e+00
  1.309051e-01    0.000000e+00
  1.312040e-01    0.000000e+00
  1.315030e-01    0.000000e+00
  1.318019e-01    0.000000e+00
  1.321008e-01    0.000000e+00
  1.323998e-01    0.000000e+00
  1.326987e-01    0.000000e+00
  1.329976e-01    0.000000e+00
  1.332965e-01    0.000000e+00
  1.335955e-01    0.000000e+00
  1.338944e-01    0.000000e+00
  1.341933e-01    0.000000e+00
  1.344923e-01    0.000000e+00
  1.347912e-01    0.000000e+00
  1.350901e-01    0.000000e+00
  1.353891e-01    0.000000e+00
  1.356880e-01    0.000000e+00
  1.359869e-01    0.000000e+00
  1.362859e-01    0.000000e+00
  1.365848e-01    0.000000e+00
  1.368837e-01    0.000000e+00
  1.371826e-01    0.000000e+00
  1.374816e-01    0.000000e+00
  1.377805e-01    0.000000e+00
  1.380794e-01    0.000000e+00
  1.383784e-01    0.000000e+00
  1.386773e-01    0.000000e+00
  1.389762e-01    0.000000e+00
  1.392752e-01    0.000000e+00
  1.395741e-01    0.000000e+00
  1.398730e-01    0.000000e+00
  1.401719e-01    0.000000e+00
  1.404709e-01    0.000000e+00
  1.407698e-01    0.000000e+00
  1.410687e-01    0.000000e+00
  1.413677e-01    0.000000e+00
  1.416666e-01    0.000000e+00
  1.419655e-01    0.000000e+00
  1.422645e-01    0.000000e+00
  1.425634e-01    0.000000e+00
  1.428623e-01    0.000000e+00
  1.431613e-01    0.000000e+00
  1.434602e-01    0.000000e+00
  1.437591e-01    0.000000e+00
  1.440580e-01    0.000000e+00
  1.443570e-01    0.000000e+00
  1.446559e-01    0.000000e+00
  1.449548e-01    0.000000e+00
  1.452538e-01    0.000000e+00
  1.455527e-01    0.000000e+00
  1.458516e-01    0.000000e+00
  1.461506e-01    0.000000e+00
  1.464495e-01    0.000000e+00
  1.467484e-01    0.000000e+00
  1.470473e-01    0.000000e+00
  1.473463e-01    0.000000e+00
  1.476452e-01    0.000000e+00
  1.479441e-01    0.000000e+00
  1.482431e-01    0.000000e+00
  1.485420e-01    0.000000e+00
  1.488409e-01    0.000000e+00
  1.491399e-01    0.000000e+00
  1.494388e-01    0.000000e+00
  1.497377e-01    0.000000e+00
  1.500367e-01    0.000000e+00
  1.503356e-01    0.000000e+00
  1.506345e-01    0.000000e+00
  1.509334e-01    0.000000e+00
  1.512324e-01    0.000000e+00
  1.515313e-01    0.000000e+00
  1.518302e-01    0.000000e+00
  1.521292e-01    0.000000e+00
  1.524281e-01    0.000000e+00
  1.527270e-01    0.000000e+00
  1.530260e-01    0.000000e+00
  1.533249e-01    0.000000e+00
  1.536238e-01    0.000000e+00
