# == pyFAI calibration ==
# Distance Sample to Detector: 2.266 m
# PONI: 5.659e-02, 4.293e-02 m
# Rotations: 0.000000 0.000000 0.000000 rad
# 
# == Fit2d calibration ==
# Distance Sample-beamCenter: 2266.000 mm
# Center: x=249.594, y=329.012 pix
# Tilt: 0.000 deg  TiltPlanRot: 0.000 deg
# 
# Detector Pilatus 300k	 PixelSize= 1.720e-04, 1.720e-04 m
#    Detector has a mask: True 
#    Detector has a dark current: False 
#    detector has a flat field: False 
# 
# Wavelength: 1.27818e-10 m
# Mask applied: user provided
# Dark current applied: False
# Flat field applied: False
# Polarization factor: None
# Normalization factor: 12314915.0
# --> AL_F127_220301_dd101086-72da-4bd0-8fc4-fc9f06668594_1_r1d.csv
#        q_A^-1             I 
  4.457554e-03    1.919756e-03
  4.756484e-03    1.494479e-03
  5.055415e-03    1.050489e-03
  5.354345e-03    7.214816e-04
  5.653276e-03    5.433771e-04
  5.952206e-03    8.654405e-04
  6.251136e-03    7.904692e-04
  6.550067e-03    6.873042e-04
  6.848997e-03    5.848288e-04
  7.147927e-03    4.944058e-04
  7.446858e-03    4.220259e-04
  7.745788e-03    3.615650e-04
  8.044719e-03    3.108749e-04
  8.343649e-03    2.709140e-04
  8.642579e-03    2.371527e-04
  8.941510e-03    2.084810e-04
  9.240440e-03    1.844551e-04
  9.539371e-03    1.640072e-04
  9.838301e-03    1.460267e-04
  1.013723e-02    1.304511e-04
  1.043616e-02    1.174519e-04
  1.073509e-02    1.059820e-04
  1.103402e-02    9.588445e-05
  1.133295e-02    8.683251e-05
  1.163188e-02    7.920212e-05
  1.193081e-02    7.236503e-05
  1.222974e-02    6.648454e-05
  1.252867e-02    6.133572e-05
  1.282760e-02    5.634507e-05
  1.312654e-02    5.179982e-05
  1.342547e-02    4.802397e-05
  1.372440e-02    4.470879e-05
  1.402333e-02    4.154691e-05
  1.432226e-02    3.880195e-05
  1.462119e-02    3.610948e-05
  1.492012e-02    3.371125e-05
  1.521905e-02    3.165346e-05
  1.551798e-02    2.981013e-05
  1.581691e-02    2.804494e-05
  1.611584e-02    2.640160e-05
  1.641477e-02    2.497055e-05
  1.671370e-02    2.359185e-05
  1.701263e-02    2.240830e-05
  1.731156e-02    2.133292e-05
  1.761049e-02    2.033432e-05
  1.790942e-02    1.936649e-05
  1.820835e-02    1.842894e-05
  1.850728e-02    1.760701e-05
  1.880621e-02    1.685826e-05
  1.910514e-02    1.612302e-05
  1.940407e-02    1.544780e-05
  1.970300e-02    1.482505e-05
  2.000193e-02    1.432419e-05
  2.030086e-02    1.383076e-05
  2.059979e-02    1.333942e-05
  2.089873e-02    1.298116e-05
  2.119766e-02    1.260029e-05
  2.149659e-02    1.221273e-05
  2.179552e-02    1.181776e-05
  2.209445e-02    1.143645e-05
  2.239338e-02    1.113419e-05
  2.269231e-02    1.082547e-05
  2.299124e-02    1.049635e-05
  2.329017e-02    1.031744e-05
  2.358910e-02    1.012495e-05
  2.388803e-02    9.851321e-06
  2.418696e-02    9.611866e-06
  2.448589e-02    9.455373e-06
  2.478482e-02    9.228424e-06
  2.508375e-02    9.050199e-06
  2.538268e-02    8.879902e-06
  2.568161e-02    8.754583e-06
  2.598054e-02    8.640149e-06
  2.627947e-02    8.448680e-06
  2.657840e-02    8.315839e-06
  2.687733e-02    8.253505e-06
  2.717626e-02    8.138663e-06
  2.747519e-02    8.001512e-06
  2.777412e-02    7.895778e-06
  2.807305e-02    7.788551e-06
  2.837198e-02    7.670415e-06
  2.867092e-02    7.579432e-06
  2.896985e-02    7.477959e-06
  2.926878e-02    7.399382e-06
  2.956771e-02    7.365727e-06
  2.986664e-02    7.294485e-06
  3.016557e-02    7.173872e-06
  3.046450e-02    7.094040e-06
  3.076343e-02    7.037180e-06
  3.106236e-02    6.961593e-06
  3.136129e-02    6.918597e-06
  3.166022e-02    6.841357e-06
  3.195915e-02    6.783574e-06
  3.225808e-02    6.729899e-06
  3.255701e-02    6.693997e-06
  3.285594e-02    6.594945e-06
  3.315487e-02    6.491667e-06
  3.345380e-02    6.479242e-06
  3.375273e-02    6.470501e-06
  3.405166e-02    6.375597e-06
  3.435059e-02    6.314609e-06
  3.464952e-02    6.240866e-06
  3.494845e-02    6.200536e-06
  3.524738e-02    6.132298e-06
  3.554631e-02    6.044934e-06
  3.584524e-02    6.036150e-06
  3.614417e-02    6.009122e-06
  3.644310e-02    5.989519e-06
  3.674204e-02    5.911515e-06
  3.704097e-02    5.834690e-06
  3.733990e-02    5.784435e-06
  3.763883e-02    5.759322e-06
  3.793776e-02    5.693737e-06
  3.823669e-02    5.660545e-06
  3.853562e-02    5.647527e-06
  3.883455e-02    5.614588e-06
  3.913348e-02    5.565330e-06
  3.943241e-02    5.530335e-06
  3.973134e-02    5.524841e-06
  4.003027e-02    5.478488e-06
  4.032920e-02    5.473920e-06
  4.062813e-02    5.482598e-06
  4.092706e-02    5.449749e-06
  4.122599e-02    5.398090e-06
  4.152492e-02    5.333063e-06
  4.182385e-02    5.309559e-06
  4.212278e-02    5.320202e-06
  4.242171e-02    5.302881e-06
  4.272064e-02    5.273554e-06
  4.301957e-02    5.234477e-06
  4.331850e-02    5.235741e-06
  4.361743e-02    5.228067e-06
  4.391636e-02    5.212927e-06
  4.421529e-02    5.208868e-06
  4.451423e-02    5.205898e-06
  4.481316e-02    5.175992e-06
  4.511209e-02    5.167599e-06
  4.541102e-02    5.191924e-06
  4.570995e-02    5.164403e-06
  4.600888e-02    5.167085e-06
  4.630781e-02    5.169899e-06
  4.660674e-02    5.154714e-06
  4.690567e-02    5.183826e-06
  4.720460e-02    5.185896e-06
  4.750353e-02    5.174949e-06
  4.780246e-02    5.160828e-06
  4.810139e-02    5.169119e-06
  4.840032e-02    5.153187e-06
  4.869925e-02    5.132216e-06
  4.899818e-02    5.128883e-06
  4.929711e-02    5.133086e-06
  4.959604e-02    5.111472e-06
  4.989497e-02    5.117255e-06
  5.019390e-02    5.111645e-06
  5.049283e-02    5.092772e-06
  5.079176e-02    5.074356e-06
  5.109069e-02    5.093827e-06
  5.138962e-02    5.173018e-06
  5.168855e-02    5.310877e-06
  5.198748e-02    5.374800e-06
  5.228642e-02    5.302821e-06
  5.258535e-02    5.147459e-06
  5.288428e-02    5.078768e-06
  5.318321e-02    5.081041e-06
  5.348214e-02    5.073277e-06
  5.378107e-02    5.053979e-06
  5.408000e-02    5.083179e-06
  5.437893e-02    5.092175e-06
  5.467786e-02    5.067851e-06
  5.497679e-02    5.068646e-06
  5.527572e-02    5.042319e-06
  5.557465e-02    5.033076e-06
  5.587358e-02    5.063433e-06
  5.617251e-02    5.067468e-06
  5.647144e-02    5.054508e-06
  5.677037e-02    5.059892e-06
  5.706930e-02    5.074768e-06
  5.736823e-02    5.063733e-06
  5.766716e-02    5.053866e-06
  5.796609e-02    5.100434e-06
  5.826502e-02    5.106660e-06
  5.856395e-02    5.108722e-06
  5.886288e-02    5.124229e-06
  5.916181e-02    5.108110e-06
  5.946074e-02    5.122242e-06
  5.975967e-02    5.149172e-06
  6.005861e-02    5.159509e-06
  6.035754e-02    5.157876e-06
  6.065647e-02    5.149473e-06
  6.095540e-02    5.185241e-06
  6.125433e-02    5.264013e-06
  6.155326e-02    5.322343e-06
  6.185219e-02    5.228643e-06
  6.215112e-02    5.189909e-06
  6.245005e-02    5.173024e-06
  6.274898e-02    5.167178e-06
  6.304791e-02    5.170610e-06
  6.334684e-02    5.199766e-06
  6.364577e-02    5.200161e-06
  6.394470e-02    5.208802e-06
  6.424363e-02    5.205285e-06
  6.454256e-02    5.207480e-06
  6.484149e-02    5.224081e-06
  6.514042e-02    5.235877e-06
  6.543935e-02    5.246876e-06
  6.573828e-02    5.252592e-06
  6.603721e-02    5.253990e-06
  6.633614e-02    5.229686e-06
  6.663507e-02    5.217406e-06
  6.693400e-02    5.261245e-06
  6.723293e-02    5.290826e-06
  6.753186e-02    5.292807e-06
  6.783080e-02    5.286196e-06
  6.812973e-02    5.298330e-06
  6.842866e-02    5.313398e-06
  6.872759e-02    5.352618e-06
  6.902652e-02    5.350878e-06
  6.932545e-02    5.352550e-06
  6.962438e-02    5.361899e-06
  6.992331e-02    5.344850e-06
  7.022224e-02    5.350424e-06
  7.052117e-02    5.348755e-06
  7.082010e-02    5.369214e-06
  7.111903e-02    5.390743e-06
  7.141796e-02    5.364826e-06
  7.171689e-02    5.376682e-06
  7.201582e-02    5.408844e-06
  7.231475e-02    5.393263e-06
  7.261368e-02    5.410386e-06
  7.291261e-02    5.416328e-06
  7.321154e-02    5.412423e-06
  7.351047e-02    5.406391e-06
  7.380940e-02    5.392949e-06
  7.410833e-02    5.421288e-06
  7.440726e-02    5.439143e-06
  7.470619e-02    5.430833e-06
  7.500512e-02    5.430633e-06
  7.530405e-02    5.440563e-06
  7.560299e-02    5.424009e-06
  7.590192e-02    5.425004e-06
  7.620085e-02    5.400585e-06
  7.649978e-02    5.399647e-06
  7.679871e-02    5.427754e-06
  7.709764e-02    5.451874e-06
  7.739657e-02    5.440691e-06
  7.769550e-02    5.412849e-06
  7.799443e-02    5.422941e-06
  7.829336e-02    5.417113e-06
  7.859229e-02    5.412297e-06
  7.889122e-02    5.403010e-06
  7.919015e-02    5.404672e-06
  7.948908e-02    5.419686e-06
  7.978801e-02    5.424923e-06
  8.008694e-02    5.408832e-06
  8.038587e-02    5.395157e-06
  8.068480e-02    5.398557e-06
  8.098373e-02    5.388458e-06
  8.128266e-02    5.359142e-06
  8.158159e-02    5.346802e-06
  8.188052e-02    5.346343e-06
  8.217945e-02    5.346881e-06
  8.247838e-02    5.333444e-06
  8.277731e-02    5.334368e-06
  8.307624e-02    5.315805e-06
  8.337518e-02    5.309985e-06
  8.367411e-02    5.329884e-06
  8.397304e-02    5.341544e-06
  8.427197e-02    5.350271e-06
  8.457090e-02    5.314250e-06
  8.486983e-02    5.311428e-06
  8.516876e-02    5.319966e-06
  8.546769e-02    5.303322e-06
  8.576662e-02    5.299049e-06
  8.606555e-02    5.296583e-06
  8.636448e-02    5.282130e-06
  8.666341e-02    5.271654e-06
  8.696234e-02    5.261894e-06
  8.726127e-02    5.249666e-06
  8.756020e-02    5.253599e-06
  8.785913e-02    5.232771e-06
  8.815806e-02    5.216271e-06
  8.845699e-02    5.213363e-06
  8.875592e-02    5.201539e-06
  8.905485e-02    5.187117e-06
  8.935378e-02    5.175468e-06
  8.965271e-02    5.166264e-06
  8.995164e-02    5.156958e-06
  9.025057e-02    5.160035e-06
  9.054950e-02    5.134666e-06
  9.084843e-02    5.121393e-06
  9.114737e-02    5.129838e-06
  9.144630e-02    5.130986e-06
  9.174523e-02    5.117513e-06
  9.204416e-02    5.089405e-06
  9.234309e-02    5.091728e-06
  9.264202e-02    5.070485e-06
  9.294095e-02    5.056180e-06
  9.323988e-02    5.072004e-06
  9.353881e-02    5.041197e-06
  9.383774e-02    5.023073e-06
  9.413667e-02    5.009765e-06
  9.443560e-02    5.013426e-06
  9.473453e-02    5.015054e-06
  9.503346e-02    5.005904e-06
  9.533239e-02    4.992518e-06
  9.563132e-02    5.006835e-06
  9.593025e-02    5.018009e-06
  9.622918e-02    5.011619e-06
  9.652811e-02    5.012103e-06
  9.682704e-02    5.022948e-06
  9.712597e-02    5.013022e-06
  9.742490e-02    5.029553e-06
  9.772383e-02    4.996718e-06
  9.802276e-02    4.949825e-06
  9.832169e-02    4.919281e-06
  9.862062e-02    4.904375e-06
  9.891956e-02    4.893654e-06
  9.921849e-02    4.877754e-06
  9.951742e-02    4.830054e-06
  9.981635e-02    4.814704e-06
  1.001153e-01    4.845826e-06
  1.004142e-01    4.848078e-06
  1.007131e-01    4.851273e-06
  1.010121e-01    4.852211e-06
  1.013110e-01    4.828511e-06
  1.016099e-01    4.822492e-06
  1.019089e-01    4.786444e-06
  1.022078e-01    4.768130e-06
  1.025067e-01    4.770804e-06
  1.028057e-01    4.759807e-06
  1.031046e-01    4.732964e-06
  1.034035e-01    4.740732e-06
  1.037024e-01    4.749404e-06
  1.040014e-01    4.729489e-06
  1.043003e-01    4.718780e-06
  1.045992e-01    4.710619e-06
  1.048982e-01    4.702385e-06
  1.051971e-01    4.699908e-06
  1.054960e-01    4.680925e-06
  1.057950e-01    4.647372e-06
  1.060939e-01    4.648626e-06
  1.063928e-01    4.648090e-06
  1.066917e-01    4.624745e-06
  1.069907e-01    4.639723e-06
  1.072896e-01    4.653730e-06
  1.075885e-01    4.647570e-06
  1.078875e-01    4.628290e-06
  1.081864e-01    4.616056e-06
  1.084853e-01    4.608957e-06
  1.087843e-01    4.595075e-06
  1.090832e-01    4.575257e-06
  1.093821e-01    4.541982e-06
  1.096810e-01    4.558573e-06
  1.099800e-01    4.544090e-06
  1.102789e-01    4.521627e-06
  1.105778e-01    4.505023e-06
  1.108768e-01    4.480010e-06
  1.111757e-01    4.475609e-06
  1.114746e-01    4.485970e-06
  1.117736e-01    4.498341e-06
  1.120725e-01    4.444097e-06
  1.123714e-01    4.438523e-06
  1.126704e-01    4.457055e-06
  1.129693e-01    4.452450e-06
  1.132682e-01    4.389096e-06
  1.135671e-01    4.371135e-06
  1.138661e-01    4.379997e-06
  1.141650e-01    4.346806e-06
  1.144639e-01    4.355578e-06
  1.147629e-01    4.394222e-06
  1.150618e-01    4.387742e-06
  1.153607e-01    4.360554e-06
  1.156597e-01    4.338212e-06
  1.159586e-01    4.334201e-06
  1.162575e-01    4.337184e-06
  1.165564e-01    4.343387e-06
  1.168554e-01    4.358023e-06
  1.171543e-01    4.360810e-06
  1.174532e-01    4.362507e-06
  1.177522e-01    4.303670e-06
  1.180511e-01    4.327911e-06
  1.183500e-01    4.336666e-06
  1.186490e-01    4.340809e-06
  1.189479e-01    4.363611e-06
  1.192468e-01    4.364772e-06
  1.195458e-01    4.311077e-06
  1.198447e-01    4.313154e-06
  1.201436e-01    4.307177e-06
  1.204425e-01    4.318489e-06
  1.207415e-01    4.364746e-06
  1.210404e-01    4.145071e-06
  1.213393e-01    0.000000e+00
  1.216383e-01    0.000000e+00
  1.219372e-01    0.000000e+00
  1.222361e-01    0.000000e+00
  1.225351e-01    0.000000e+00
  1.228340e-01    0.000000e+00
  1.231329e-01    0.000000e+00
  1.234318e-01    0.000000e+00
  1.237308e-01    0.000000e+00
  1.240297e-01    0.000000e+00
  1.243286e-01    0.000000e+00
  1.246276e-01    0.000000e+00
  1.249265e-01    0.000000e+00
  1.252254e-01    0.000000e+00
  1.255244e-01    0.000000e+00
  1.258233e-01    0.000000e+00
  1.261222e-01    0.000000e+00
  1.264212e-01    0.000000e+00
  1.267201e-01    0.000000e+00
  1.270190e-01    0.000000e+00
  1.273179e-01    0.000000e+00
  1.276169e-01    0.000000e+00
  1.279158e-01    0.000000e+00
  1.282147e-01    0.000000e+00
  1.285137e-01    0.000000e+00
  1.288126e-01    0.000000e+00
  1.291115e-01    0.000000e+00
  1.294105e-01    0.000000e+00
  1.297094e-01    0.000000e+00
  1.300083e-01    0.000000e+00
  1.303072e-01    0.000000e+00
  1.306062e-01    0.000000e+00
  1.309051e-01    0.000000e+00
  1.312040e-01    0.000000e+00
  1.315030e-01    0.000000e+00
  1.318019e-01    0.000000e+00
  1.321008e-01    0.000000e+00
  1.323998e-01    0.000000e+00
  1.326987e-01    0.000000e+00
  1.329976e-01    0.000000e+00
  1.332965e-01    0.000000e+00
  1.335955e-01    0.000000e+00
  1.338944e-01    0.000000e+00
  1.341933e-01    0.000000e+00
  1.344923e-01    0.000000e+00
  1.347912e-01    0.000000e+00
  1.350901e-01    0.000000e+00
  1.353891e-01    0.000000e+00
  1.356880e-01    0.000000e+00
  1.359869e-01    0.000000e+00
  1.362859e-01    0.000000e+00
  1.365848e-01    0.000000e+00
  1.368837e-01    0.000000e+00
  1.371826e-01    0.000000e+00
  1.374816e-01    0.000000e+00
  1.377805e-01    0.000000e+00
  1.380794e-01    0.000000e+00
  1.383784e-01    0.000000e+00
  1.386773e-01    0.000000e+00
  1.389762e-01    0.000000e+00
  1.392752e-01    0.000000e+00
  1.395741e-01    0.000000e+00
  1.398730e-01    0.000000e+00
  1.401719e-01    0.000000e+00
  1.404709e-01    0.000000e+00
  1.407698e-01    0.000000e+00
  1.410687e-01    0.000000e+00
  1.413677e-01    0.000000e+00
  1.416666e-01    0.000000e+00
  1.419655e-01    0.000000e+00
  1.422645e-01    0.000000e+00
  1.425634e-01    0.000000e+00
  1.428623e-01    0.000000e+00
  1.431613e-01    0.000000e+00
  1.434602e-01    0.000000e+00
  1.437591e-01    0.000000e+00
  1.440580e-01    0.000000e+00
  1.443570e-01    0.000000e+00
  1.446559e-01    0.000000e+00
  1.449548e-01    0.000000e+00
  1.452538e-01    0.000000e+00
  1.455527e-01    0.000000e+00
  1.458516e-01    0.000000e+00
  1.461506e-01    0.000000e+00
  1.464495e-01    0.000000e+00
  1.467484e-01    0.000000e+00
  1.470473e-01    0.000000e+00
  1.473463e-01    0.000000e+00
  1.476452e-01    0.000000e+00
  1.479441e-01    0.000000e+00
  1.482431e-01    0.000000e+00
  1.485420e-01    0.000000e+00
  1.488409e-01    0.000000e+00
  1.491399e-01    0.000000e+00
  1.494388e-01    0.000000e+00
  1.497377e-01    0.000000e+00
  1.500367e-01    0.000000e+00
  1.503356e-01    0.000000e+00
  1.506345e-01    0.000000e+00
  1.509334e-01    0.000000e+00
  1.512324e-01    0.000000e+00
  1.515313e-01    0.000000e+00
  1.518302e-01    0.000000e+00
  1.521292e-01    0.000000e+00
  1.524281e-01    0.000000e+00
  1.527270e-01    0.000000e+00
  1.530260e-01    0.000000e+00
  1.533249e-01    0.000000e+00
  1.536238e-01    0.000000e+00
