# == pyFAI calibration ==
# Distance Sample to Detector: 2.266 m
# PONI: 5.659e-02, 4.293e-02 m
# Rotations: 0.000000 0.000000 0.000000 rad
# 
# == Fit2d calibration ==
# Distance Sample-beamCenter: 2266.000 mm
# Center: x=249.594, y=329.012 pix
# Tilt: 0.000 deg  TiltPlanRot: 0.000 deg
# 
# Detector Pilatus 300k	 PixelSize= 1.720e-04, 1.720e-04 m
#    Detector has a mask: True 
#    Detector has a dark current: False 
#    detector has a flat field: False 
# 
# Wavelength: 1.27818e-10 m
# Mask applied: user provided
# Dark current applied: False
# Flat field applied: False
# Polarization factor: None
# Normalization factor: 18501025.8
# --> AL_F127_220301_7e86b91e-5f0e-46e2-8699-367a29297452_0_r1d.csv
#        q_A^-1             I 
  4.457554e-03    2.299388e-03
  4.756484e-03    1.815447e-03
  5.055415e-03    1.316071e-03
  5.354345e-03    9.435922e-04
  5.653276e-03    7.421119e-04
  5.952206e-03    1.208073e-03
  6.251136e-03    1.096161e-03
  6.550067e-03    9.456231e-04
  6.848997e-03    8.000773e-04
  7.147927e-03    6.757892e-04
  7.446858e-03    5.766278e-04
  7.745788e-03    4.952061e-04
  8.044719e-03    4.274292e-04
  8.343649e-03    3.739693e-04
  8.642579e-03    3.268001e-04
  8.941510e-03    2.873379e-04
  9.240440e-03    2.551944e-04
  9.539371e-03    2.268429e-04
  9.838301e-03    2.018936e-04
  1.013723e-02    1.809730e-04
  1.043616e-02    1.629935e-04
  1.073509e-02    1.463579e-04
  1.103402e-02    1.325933e-04
  1.133295e-02    1.205229e-04
  1.163188e-02    1.099760e-04
  1.193081e-02    1.008179e-04
  1.222974e-02    9.215170e-05
  1.252867e-02    8.460113e-05
  1.282760e-02    7.771368e-05
  1.312654e-02    7.171230e-05
  1.342547e-02    6.638255e-05
  1.372440e-02    6.159658e-05
  1.402333e-02    5.714396e-05
  1.432226e-02    5.302028e-05
  1.462119e-02    4.946811e-05
  1.492012e-02    4.636128e-05
  1.521905e-02    4.352264e-05
  1.551798e-02    4.085942e-05
  1.581691e-02    3.833474e-05
  1.611584e-02    3.601563e-05
  1.641477e-02    3.401377e-05
  1.671370e-02    3.218452e-05
  1.701263e-02    3.047076e-05
  1.731156e-02    2.883371e-05
  1.761049e-02    2.738884e-05
  1.790942e-02    2.607593e-05
  1.820835e-02    2.492023e-05
  1.850728e-02    2.386648e-05
  1.880621e-02    2.277489e-05
  1.910514e-02    2.177951e-05
  1.940407e-02    2.092279e-05
  1.970300e-02    2.014394e-05
  2.000193e-02    1.935331e-05
  2.030086e-02    1.859985e-05
  2.059979e-02    1.792308e-05
  2.089873e-02    1.724457e-05
  2.119766e-02    1.665008e-05
  2.149659e-02    1.611365e-05
  2.179552e-02    1.568335e-05
  2.209445e-02    1.524197e-05
  2.239338e-02    1.477427e-05
  2.269231e-02    1.432404e-05
  2.299124e-02    1.398741e-05
  2.329017e-02    1.359530e-05
  2.358910e-02    1.319234e-05
  2.388803e-02    1.287663e-05
  2.418696e-02    1.257367e-05
  2.448589e-02    1.227917e-05
  2.478482e-02    1.196537e-05
  2.508375e-02    1.180027e-05
  2.538268e-02    1.158799e-05
  2.568161e-02    1.135819e-05
  2.598054e-02    1.113584e-05
  2.627947e-02    1.098630e-05
  2.657840e-02    1.077377e-05
  2.687733e-02    1.060190e-05
  2.717626e-02    1.042351e-05
  2.747519e-02    1.024701e-05
  2.777412e-02    1.006838e-05
  2.807305e-02    9.914574e-06
  2.837198e-02    9.807588e-06
  2.867092e-02    9.711849e-06
  2.896985e-02    9.571580e-06
  2.926878e-02    9.429381e-06
  2.956771e-02    9.348188e-06
  2.986664e-02    9.188753e-06
  3.016557e-02    9.075436e-06
  3.046450e-02    9.012335e-06
  3.076343e-02    8.873794e-06
  3.106236e-02    8.823717e-06
  3.136129e-02    8.763360e-06
  3.166022e-02    8.687551e-06
  3.195915e-02    8.585699e-06
  3.225808e-02    8.492126e-06
  3.255701e-02    8.410596e-06
  3.285594e-02    8.313517e-06
  3.315487e-02    8.257599e-06
  3.345380e-02    8.213632e-06
  3.375273e-02    8.136599e-06
  3.405166e-02    8.087211e-06
  3.435059e-02    8.014652e-06
  3.464952e-02    7.914182e-06
  3.494845e-02    7.866199e-06
  3.524738e-02    7.765288e-06
  3.554631e-02    7.707143e-06
  3.584524e-02    7.654544e-06
  3.614417e-02    7.587725e-06
  3.644310e-02    7.536119e-06
  3.674204e-02    7.516838e-06
  3.704097e-02    7.442258e-06
  3.733990e-02    7.359135e-06
  3.763883e-02    7.345107e-06
  3.793776e-02    7.264611e-06
  3.823669e-02    7.184253e-06
  3.853562e-02    7.160549e-06
  3.883455e-02    7.102246e-06
  3.913348e-02    7.065386e-06
  3.943241e-02    7.045643e-06
  3.973134e-02    7.019850e-06
  4.003027e-02    6.989222e-06
  4.032920e-02    6.951052e-06
  4.062813e-02    6.927003e-06
  4.092706e-02    6.905266e-06
  4.122599e-02    6.890088e-06
  4.152492e-02    6.871077e-06
  4.182385e-02    6.842103e-06
  4.212278e-02    6.836434e-06
  4.242171e-02    6.783710e-06
  4.272064e-02    6.725810e-06
  4.301957e-02    6.730344e-06
  4.331850e-02    6.701935e-06
  4.361743e-02    6.699442e-06
  4.391636e-02    6.705937e-06
  4.421529e-02    6.685401e-06
  4.451423e-02    6.648765e-06
  4.481316e-02    6.637805e-06
  4.511209e-02    6.643432e-06
  4.541102e-02    6.661961e-06
  4.570995e-02    6.629124e-06
  4.600888e-02    6.603972e-06
  4.630781e-02    6.592317e-06
  4.660674e-02    6.586032e-06
  4.690567e-02    6.558056e-06
  4.720460e-02    6.566604e-06
  4.750353e-02    6.599863e-06
  4.780246e-02    6.614187e-06
  4.810139e-02    6.603030e-06
  4.840032e-02    6.570531e-06
  4.869925e-02    6.560012e-06
  4.899818e-02    6.532843e-06
  4.929711e-02    6.572746e-06
  4.959604e-02    6.564040e-06
  4.989497e-02    6.540404e-06
  5.019390e-02    6.557726e-06
  5.049283e-02    6.559678e-06
  5.079176e-02    6.553609e-06
  5.109069e-02    6.581914e-06
  5.138962e-02    6.611911e-06
  5.168855e-02    6.688460e-06
  5.198748e-02    6.788979e-06
  5.228642e-02    6.693251e-06
  5.258535e-02    6.546664e-06
  5.288428e-02    6.502309e-06
  5.318321e-02    6.535898e-06
  5.348214e-02    6.535776e-06
  5.378107e-02    6.515679e-06
  5.408000e-02    6.510856e-06
  5.437893e-02    6.524751e-06
  5.467786e-02    6.537402e-06
  5.497679e-02    6.541324e-06
  5.527572e-02    6.542596e-06
  5.557465e-02    6.564556e-06
  5.587358e-02    6.578372e-06
  5.617251e-02    6.578596e-06
  5.647144e-02    6.558082e-06
  5.677037e-02    6.563988e-06
  5.706930e-02    6.557736e-06
  5.736823e-02    6.568984e-06
  5.766716e-02    6.577392e-06
  5.796609e-02    6.570720e-06
  5.826502e-02    6.592182e-06
  5.856395e-02    6.588704e-06
  5.886288e-02    6.590987e-06
  5.916181e-02    6.611103e-06
  5.946074e-02    6.656443e-06
  5.975967e-02    6.677386e-06
  6.005861e-02    6.665221e-06
  6.035754e-02    6.659058e-06
  6.065647e-02    6.672285e-06
  6.095540e-02    6.709497e-06
  6.125433e-02    6.793917e-06
  6.155326e-02    6.820300e-06
  6.185219e-02    6.760818e-06
  6.215112e-02    6.714937e-06
  6.245005e-02    6.717506e-06
  6.274898e-02    6.744095e-06
  6.304791e-02    6.748924e-06
  6.334684e-02    6.739514e-06
  6.364577e-02    6.726053e-06
  6.394470e-02    6.743852e-06
  6.424363e-02    6.761241e-06
  6.454256e-02    6.787289e-06
  6.484149e-02    6.797374e-06
  6.514042e-02    6.797403e-06
  6.543935e-02    6.812274e-06
  6.573828e-02    6.835316e-06
  6.603721e-02    6.823976e-06
  6.633614e-02    6.815775e-06
  6.663507e-02    6.829766e-06
  6.693400e-02    6.858968e-06
  6.723293e-02    6.862955e-06
  6.753186e-02    6.861740e-06
  6.783080e-02    6.880493e-06
  6.812973e-02    6.911445e-06
  6.842866e-02    6.907227e-06
  6.872759e-02    6.897993e-06
  6.902652e-02    6.922997e-06
  6.932545e-02    6.934725e-06
  6.962438e-02    6.949307e-06
  6.992331e-02    6.954357e-06
  7.022224e-02    6.939269e-06
  7.052117e-02    6.958689e-06
  7.082010e-02    6.976801e-06
  7.111903e-02    6.966672e-06
  7.141796e-02    6.960176e-06
  7.171689e-02    6.984379e-06
  7.201582e-02    7.010865e-06
  7.231475e-02    7.014706e-06
  7.261368e-02    7.013314e-06
  7.291261e-02    7.034886e-06
  7.321154e-02    7.036900e-06
  7.351047e-02    7.028026e-06
  7.380940e-02    7.033178e-06
  7.410833e-02    7.058445e-06
  7.440726e-02    7.055632e-06
  7.470619e-02    7.043579e-06
  7.500512e-02    7.057025e-06
  7.530405e-02    7.040396e-06
  7.560299e-02    7.021218e-06
  7.590192e-02    7.035716e-06
  7.620085e-02    7.064000e-06
  7.649978e-02    7.057620e-06
  7.679871e-02    7.045549e-06
  7.709764e-02    7.046806e-06
  7.739657e-02    7.061445e-06
  7.769550e-02    7.070433e-06
  7.799443e-02    7.048718e-06
  7.829336e-02    7.034116e-06
  7.859229e-02    7.061918e-06
  7.889122e-02    7.076720e-06
  7.919015e-02    7.070591e-06
  7.948908e-02    7.058910e-06
  7.978801e-02    7.034153e-06
  8.008694e-02    7.032702e-06
  8.038587e-02    7.007938e-06
  8.068480e-02    7.026214e-06
  8.098373e-02    7.027296e-06
  8.128266e-02    7.024721e-06
  8.158159e-02    7.002576e-06
  8.188052e-02    6.989817e-06
  8.217945e-02    6.999990e-06
  8.247838e-02    7.012747e-06
  8.277731e-02    7.001563e-06
  8.307624e-02    6.992198e-06
  8.337518e-02    6.976700e-06
  8.367411e-02    6.972488e-06
  8.397304e-02    6.946220e-06
  8.427197e-02    6.920978e-06
  8.457090e-02    6.903630e-06
  8.486983e-02    6.914514e-06
  8.516876e-02    6.906930e-06
  8.546769e-02    6.912361e-06
  8.576662e-02    6.888095e-06
  8.606555e-02    6.890402e-06
  8.636448e-02    6.875987e-06
  8.666341e-02    6.871961e-06
  8.696234e-02    6.888582e-06
  8.726127e-02    6.894082e-06
  8.756020e-02    6.870036e-06
  8.785913e-02    6.863203e-06
  8.815806e-02    6.838368e-06
  8.845699e-02    6.808571e-06
  8.875592e-02    6.808611e-06
  8.905485e-02    6.813187e-06
  8.935378e-02    6.784172e-06
  8.965271e-02    6.747186e-06
  8.995164e-02    6.743784e-06
  9.025057e-02    6.743009e-06
  9.054950e-02    6.734441e-06
  9.084843e-02    6.722308e-06
  9.114737e-02    6.715886e-06
  9.144630e-02    6.694962e-06
  9.174523e-02    6.688867e-06
  9.204416e-02    6.688525e-06
  9.234309e-02    6.669942e-06
  9.264202e-02    6.640956e-06
  9.294095e-02    6.626960e-06
  9.323988e-02    6.625222e-06
  9.353881e-02    6.636230e-06
  9.383774e-02    6.613172e-06
  9.413667e-02    6.576386e-06
  9.443560e-02    6.583597e-06
  9.473453e-02    6.583707e-06
  9.503346e-02    6.541175e-06
  9.533239e-02    6.554054e-06
  9.563132e-02    6.546506e-06
  9.593025e-02    6.536653e-06
  9.622918e-02    6.529792e-06
  9.652811e-02    6.557453e-06
  9.682704e-02    6.561927e-06
  9.712597e-02    6.561635e-06
  9.742490e-02    6.544192e-06
  9.772383e-02    6.519221e-06
  9.802276e-02    6.484832e-06
  9.832169e-02    6.443409e-06
  9.862062e-02    6.410027e-06
  9.891956e-02    6.395179e-06
  9.921849e-02    6.391521e-06
  9.951742e-02    6.399611e-06
  9.981635e-02    6.386911e-06
  1.001153e-01    6.387465e-06
  1.004142e-01    6.370670e-06
  1.007131e-01    6.352926e-06
  1.010121e-01    6.314420e-06
  1.013110e-01    6.297031e-06
  1.016099e-01    6.291597e-06
  1.019089e-01    6.298870e-06
  1.022078e-01    6.304980e-06
  1.025067e-01    6.260779e-06
  1.028057e-01    6.267574e-06
  1.031046e-01    6.259882e-06
  1.034035e-01    6.233667e-06
  1.037024e-01    6.221209e-06
  1.040014e-01    6.211551e-06
  1.043003e-01    6.193162e-06
  1.045992e-01    6.203016e-06
  1.048982e-01    6.190636e-06
  1.051971e-01    6.146303e-06
  1.054960e-01    6.142741e-06
  1.057950e-01    6.131713e-06
  1.060939e-01    6.130672e-06
  1.063928e-01    6.106721e-06
  1.066917e-01    6.074019e-06
  1.069907e-01    6.072584e-06
  1.072896e-01    6.071283e-06
  1.075885e-01    6.038071e-06
  1.078875e-01    6.030631e-06
  1.081864e-01    6.025368e-06
  1.084853e-01    6.026014e-06
  1.087843e-01    6.043009e-06
  1.090832e-01    6.023453e-06
  1.093821e-01    5.999550e-06
  1.096810e-01    5.989538e-06
  1.099800e-01    5.988120e-06
  1.102789e-01    5.982440e-06
  1.105778e-01    5.962690e-06
  1.108768e-01    5.933840e-06
  1.111757e-01    5.911915e-06
  1.114746e-01    5.890969e-06
  1.117736e-01    5.861480e-06
  1.120725e-01    5.840228e-06
  1.123714e-01    5.824146e-06
  1.126704e-01    5.848298e-06
  1.129693e-01    5.849152e-06
  1.132682e-01    5.790071e-06
  1.135671e-01    5.801649e-06
  1.138661e-01    5.810783e-06
  1.141650e-01    5.787208e-06
  1.144639e-01    5.763232e-06
  1.147629e-01    5.763811e-06
  1.150618e-01    5.714165e-06
  1.153607e-01    5.678050e-06
  1.156597e-01    5.651997e-06
  1.159586e-01    5.660498e-06
  1.162575e-01    5.712695e-06
  1.165564e-01    5.718722e-06
  1.168554e-01    5.681230e-06
  1.171543e-01    5.651501e-06
  1.174532e-01    5.615168e-06
  1.177522e-01    5.638063e-06
  1.180511e-01    5.667761e-06
  1.183500e-01    5.612273e-06
  1.186490e-01    5.613793e-06
  1.189479e-01    5.655704e-06
  1.192468e-01    5.641027e-06
  1.195458e-01    5.615560e-06
  1.198447e-01    5.565871e-06
  1.201436e-01    5.510016e-06
  1.204425e-01    5.660197e-06
  1.207415e-01    5.813891e-06
  1.210404e-01    5.410002e-06
  1.213393e-01    0.000000e+00
  1.216383e-01    0.000000e+00
  1.219372e-01    0.000000e+00
  1.222361e-01    0.000000e+00
  1.225351e-01    0.000000e+00
  1.228340e-01    0.000000e+00
  1.231329e-01    0.000000e+00
  1.234318e-01    0.000000e+00
  1.237308e-01    0.000000e+00
  1.240297e-01    0.000000e+00
  1.243286e-01    0.000000e+00
  1.246276e-01    0.000000e+00
  1.249265e-01    0.000000e+00
  1.252254e-01    0.000000e+00
  1.255244e-01    0.000000e+00
  1.258233e-01    0.000000e+00
  1.261222e-01    0.000000e+00
  1.264212e-01    0.000000e+00
  1.267201e-01    0.000000e+00
  1.270190e-01    0.000000e+00
  1.273179e-01    0.000000e+00
  1.276169e-01    0.000000e+00
  1.279158e-01    0.000000e+00
  1.282147e-01    0.000000e+00
  1.285137e-01    0.000000e+00
  1.288126e-01    0.000000e+00
  1.291115e-01    0.000000e+00
  1.294105e-01    0.000000e+00
  1.297094e-01    0.000000e+00
  1.300083e-01    0.000000e+00
  1.303072e-01    0.000000e+00
  1.306062e-01    0.000000e+00
  1.309051e-01    0.000000e+00
  1.312040e-01    0.000000e+00
  1.315030e-01    0.000000e+00
  1.318019e-01    0.000000e+00
  1.321008e-01    0.000000e+00
  1.323998e-01    0.000000e+00
  1.326987e-01    0.000000e+00
  1.329976e-01    0.000000e+00
  1.332965e-01    0.000000e+00
  1.335955e-01    0.000000e+00
  1.338944e-01    0.000000e+00
  1.341933e-01    0.000000e+00
  1.344923e-01    0.000000e+00
  1.347912e-01    0.000000e+00
  1.350901e-01    0.000000e+00
  1.353891e-01    0.000000e+00
  1.356880e-01    0.000000e+00
  1.359869e-01    0.000000e+00
  1.362859e-01    0.000000e+00
  1.365848e-01    0.000000e+00
  1.368837e-01    0.000000e+00
  1.371826e-01    0.000000e+00
  1.374816e-01    0.000000e+00
  1.377805e-01    0.000000e+00
  1.380794e-01    0.000000e+00
  1.383784e-01    0.000000e+00
  1.386773e-01    0.000000e+00
  1.389762e-01    0.000000e+00
  1.392752e-01    0.000000e+00
  1.395741e-01    0.000000e+00
  1.398730e-01    0.000000e+00
  1.401719e-01    0.000000e+00
  1.404709e-01    0.000000e+00
  1.407698e-01    0.000000e+00
  1.410687e-01    0.000000e+00
  1.413677e-01    0.000000e+00
  1.416666e-01    0.000000e+00
  1.419655e-01    0.000000e+00
  1.422645e-01    0.000000e+00
  1.425634e-01    0.000000e+00
  1.428623e-01    0.000000e+00
  1.431613e-01    0.000000e+00
  1.434602e-01    0.000000e+00
  1.437591e-01    0.000000e+00
  1.440580e-01    0.000000e+00
  1.443570e-01    0.000000e+00
  1.446559e-01    0.000000e+00
  1.449548e-01    0.000000e+00
  1.452538e-01    0.000000e+00
  1.455527e-01    0.000000e+00
  1.458516e-01    0.000000e+00
  1.461506e-01    0.000000e+00
  1.464495e-01    0.000000e+00
  1.467484e-01    0.000000e+00
  1.470473e-01    0.000000e+00
  1.473463e-01    0.000000e+00
  1.476452e-01    0.000000e+00
  1.479441e-01    0.000000e+00
  1.482431e-01    0.000000e+00
  1.485420e-01    0.000000e+00
  1.488409e-01    0.000000e+00
  1.491399e-01    0.000000e+00
  1.494388e-01    0.000000e+00
  1.497377e-01    0.000000e+00
  1.500367e-01    0.000000e+00
  1.503356e-01    0.000000e+00
  1.506345e-01    0.000000e+00
  1.509334e-01    0.000000e+00
  1.512324e-01    0.000000e+00
  1.515313e-01    0.000000e+00
  1.518302e-01    0.000000e+00
  1.521292e-01    0.000000e+00
  1.524281e-01    0.000000e+00
  1.527270e-01    0.000000e+00
  1.530260e-01    0.000000e+00
  1.533249e-01    0.000000e+00
  1.536238e-01    0.000000e+00
