# == pyFAI calibration ==
# Distance Sample to Detector: 2.266 m
# PONI: 5.659e-02, 4.293e-02 m
# Rotations: 0.000000 0.000000 0.000000 rad
# 
# == Fit2d calibration ==
# Distance Sample-beamCenter: 2266.000 mm
# Center: x=249.594, y=329.012 pix
# Tilt: 0.000 deg  TiltPlanRot: 0.000 deg
# 
# Detector Pilatus 300k	 PixelSize= 1.720e-04, 1.720e-04 m
#    Detector has a mask: True 
#    Detector has a dark current: False 
#    detector has a flat field: False 
# 
# Wavelength: 1.27818e-10 m
# Mask applied: user provided
# Dark current applied: False
# Flat field applied: False
# Polarization factor: None
# Normalization factor: 859330.4000000003
# --> AL_F127_220301_c5fcf3f6-29e8-40b5-9ec7-6529272ceb82_1_r1d.csv
#        q_A^-1             I 
  4.457554e-03    2.406692e-03
  4.756484e-03    1.905697e-03
  5.055415e-03    1.357442e-03
  5.354345e-03    9.223982e-04
  5.653276e-03    6.826186e-04
  5.952206e-03    1.000905e-03
  6.251136e-03    9.208163e-04
  6.550067e-03    8.134322e-04
  6.848997e-03    6.952361e-04
  7.147927e-03    5.971440e-04
  7.446858e-03    5.236308e-04
  7.745788e-03    4.597184e-04
  8.044719e-03    4.071001e-04
  8.343649e-03    3.642093e-04
  8.642579e-03    3.258536e-04
  8.941510e-03    2.947246e-04
  9.240440e-03    2.710655e-04
  9.539371e-03    2.520156e-04
  9.838301e-03    2.354652e-04
  1.013723e-02    2.179496e-04
  1.043616e-02    2.043689e-04
  1.073509e-02    1.929382e-04
  1.103402e-02    1.855765e-04
  1.133295e-02    1.793662e-04
  1.163188e-02    1.717222e-04
  1.193081e-02    1.654365e-04
  1.222974e-02    1.624719e-04
  1.252867e-02    1.585858e-04
  1.282760e-02    1.561801e-04
  1.312654e-02    1.543994e-04
  1.342547e-02    1.525496e-04
  1.372440e-02    1.517232e-04
  1.402333e-02    1.501177e-04
  1.432226e-02    1.497741e-04
  1.462119e-02    1.492473e-04
  1.492012e-02    1.499438e-04
  1.521905e-02    1.506846e-04
  1.551798e-02    1.524571e-04
  1.581691e-02    1.548348e-04
  1.611584e-02    1.567243e-04
  1.641477e-02    1.580785e-04
  1.671370e-02    1.607284e-04
  1.701263e-02    1.653034e-04
  1.731156e-02    1.694985e-04
  1.761049e-02    1.743650e-04
  1.790942e-02    1.782883e-04
  1.820835e-02    1.838640e-04
  1.850728e-02    1.896942e-04
  1.880621e-02    1.940965e-04
  1.910514e-02    2.000214e-04
  1.940407e-02    2.079054e-04
  1.970300e-02    2.145368e-04
  2.000193e-02    2.214803e-04
  2.030086e-02    2.300580e-04
  2.059979e-02    2.376499e-04
  2.089873e-02    2.454379e-04
  2.119766e-02    2.540220e-04
  2.149659e-02    2.613377e-04
  2.179552e-02    2.683187e-04
  2.209445e-02    2.754416e-04
  2.239338e-02    2.821101e-04
  2.269231e-02    2.881663e-04
  2.299124e-02    2.947121e-04
  2.329017e-02    3.006757e-04
  2.358910e-02    3.039905e-04
  2.388803e-02    3.080247e-04
  2.418696e-02    3.093416e-04
  2.448589e-02    3.102293e-04
  2.478482e-02    3.108158e-04
  2.508375e-02    3.114742e-04
  2.538268e-02    3.093769e-04
  2.568161e-02    3.053068e-04
  2.598054e-02    3.010487e-04
  2.627947e-02    2.958998e-04
  2.657840e-02    2.909797e-04
  2.687733e-02    2.843269e-04
  2.717626e-02    2.772821e-04
  2.747519e-02    2.697665e-04
  2.777412e-02    2.620170e-04
  2.807305e-02    2.539204e-04
  2.837198e-02    2.449861e-04
  2.867092e-02    2.366772e-04
  2.896985e-02    2.284597e-04
  2.926878e-02    2.196778e-04
  2.956771e-02    2.112903e-04
  2.986664e-02    2.038428e-04
  3.016557e-02    1.962449e-04
  3.046450e-02    1.882720e-04
  3.076343e-02    1.817414e-04
  3.106236e-02    1.749946e-04
  3.136129e-02    1.686681e-04
  3.166022e-02    1.626536e-04
  3.195915e-02    1.564127e-04
  3.225808e-02    1.501161e-04
  3.255701e-02    1.445919e-04
  3.285594e-02    1.397610e-04
  3.315487e-02    1.352677e-04
  3.345380e-02    1.307510e-04
  3.375273e-02    1.255556e-04
  3.405166e-02    1.220055e-04
  3.435059e-02    1.181698e-04
  3.464952e-02    1.143755e-04
  3.494845e-02    1.107908e-04
  3.524738e-02    1.077257e-04
  3.554631e-02    1.052736e-04
  3.584524e-02    1.027450e-04
  3.614417e-02    9.962238e-05
  3.644310e-02    9.669310e-05
  3.674204e-02    9.425754e-05
  3.704097e-02    9.232391e-05
  3.733990e-02    8.990203e-05
  3.763883e-02    8.777034e-05
  3.793776e-02    8.586268e-05
  3.823669e-02    8.417292e-05
  3.853562e-02    8.218928e-05
  3.883455e-02    8.076882e-05
  3.913348e-02    7.926961e-05
  3.943241e-02    7.768035e-05
  3.973134e-02    7.636424e-05
  4.003027e-02    7.515658e-05
  4.032920e-02    7.370910e-05
  4.062813e-02    7.221170e-05
  4.092706e-02    7.100146e-05
  4.122599e-02    7.027232e-05
  4.152492e-02    6.921540e-05
  4.182385e-02    6.801014e-05
  4.212278e-02    6.693649e-05
  4.242171e-02    6.614505e-05
  4.272064e-02    6.507069e-05
  4.301957e-02    6.402752e-05
  4.331850e-02    6.312827e-05
  4.361743e-02    6.187392e-05
  4.391636e-02    6.078426e-05
  4.421529e-02    5.976600e-05
  4.451423e-02    5.928073e-05
  4.481316e-02    5.835257e-05
  4.511209e-02    5.689137e-05
  4.541102e-02    5.655141e-05
  4.570995e-02    5.634888e-05
  4.600888e-02    5.478218e-05
  4.630781e-02    5.343422e-05
  4.660674e-02    5.265156e-05
  4.690567e-02    5.206987e-05
  4.720460e-02    5.141125e-05
  4.750353e-02    5.035798e-05
  4.780246e-02    4.994420e-05
  4.810139e-02    4.924473e-05
  4.840032e-02    4.842881e-05
  4.869925e-02    4.732557e-05
  4.899818e-02    4.616445e-05
  4.929711e-02    4.519293e-05
  4.959604e-02    4.477432e-05
  4.989497e-02    4.386130e-05
  5.019390e-02    4.262665e-05
  5.049283e-02    4.189489e-05
  5.079176e-02    4.149671e-05
  5.109069e-02    4.026175e-05
  5.138962e-02    3.936053e-05
  5.168855e-02    3.888020e-05
  5.198748e-02    3.803920e-05
  5.228642e-02    3.694860e-05
  5.258535e-02    3.629553e-05
  5.288428e-02    3.520810e-05
  5.318321e-02    3.432829e-05
  5.348214e-02    3.369206e-05
  5.378107e-02    3.319673e-05
  5.408000e-02    3.253251e-05
  5.437893e-02    3.163566e-05
  5.467786e-02    3.069698e-05
  5.497679e-02    2.992609e-05
  5.527572e-02    2.915837e-05
  5.557465e-02    2.841543e-05
  5.587358e-02    2.781748e-05
  5.617251e-02    2.692811e-05
  5.647144e-02    2.664889e-05
  5.677037e-02    2.628281e-05
  5.706930e-02    2.554865e-05
  5.736823e-02    2.482447e-05
  5.766716e-02    2.425137e-05
  5.796609e-02    2.386608e-05
  5.826502e-02    2.318824e-05
  5.856395e-02    2.264293e-05
  5.886288e-02    2.223615e-05
  5.916181e-02    2.189800e-05
  5.946074e-02    2.126289e-05
  5.975967e-02    2.084484e-05
  6.005861e-02    2.043072e-05
  6.035754e-02    1.988816e-05
  6.065647e-02    1.930117e-05
  6.095540e-02    1.887604e-05
  6.125433e-02    1.882813e-05
  6.155326e-02    1.858578e-05
  6.185219e-02    1.809938e-05
  6.215112e-02    1.765939e-05
  6.245005e-02    1.724322e-05
  6.274898e-02    1.698489e-05
  6.304791e-02    1.682353e-05
  6.334684e-02    1.640965e-05
  6.364577e-02    1.601361e-05
  6.394470e-02    1.576629e-05
  6.424363e-02    1.554699e-05
  6.454256e-02    1.515771e-05
  6.484149e-02    1.493456e-05
  6.514042e-02    1.476387e-05
  6.543935e-02    1.445984e-05
  6.573828e-02    1.415305e-05
  6.603721e-02    1.398767e-05
  6.633614e-02    1.398994e-05
  6.663507e-02    1.372329e-05
  6.693400e-02    1.344699e-05
  6.723293e-02    1.317728e-05
  6.753186e-02    1.300342e-05
  6.783080e-02    1.279727e-05
  6.812973e-02    1.260991e-05
  6.842866e-02    1.240196e-05
  6.872759e-02    1.232116e-05
  6.902652e-02    1.213946e-05
  6.932545e-02    1.190653e-05
  6.962438e-02    1.186085e-05
  6.992331e-02    1.184050e-05
  7.022224e-02    1.171937e-05
  7.052117e-02    1.153366e-05
  7.082010e-02    1.136769e-05
  7.111903e-02    1.124576e-05
  7.141796e-02    1.127346e-05
  7.171689e-02    1.121229e-05
  7.201582e-02    1.098620e-05
  7.231475e-02    1.079111e-05
  7.261368e-02    1.076791e-05
  7.291261e-02    1.070254e-05
  7.321154e-02    1.059045e-05
  7.351047e-02    1.055113e-05
  7.380940e-02    1.041686e-05
  7.410833e-02    1.024579e-05
  7.440726e-02    1.018223e-05
  7.470619e-02    1.009250e-05
  7.500512e-02    1.007558e-05
  7.530405e-02    1.005887e-05
  7.560299e-02    9.939754e-06
  7.590192e-02    9.987692e-06
  7.620085e-02    9.966700e-06
  7.649978e-02    9.956216e-06
  7.679871e-02    1.003778e-05
  7.709764e-02    9.990176e-06
  7.739657e-02    9.750236e-06
  7.769550e-02    9.583776e-06
  7.799443e-02    9.584539e-06
  7.829336e-02    9.652075e-06
  7.859229e-02    9.589327e-06
  7.889122e-02    9.695107e-06
  7.919015e-02    9.526744e-06
  7.948908e-02    9.551823e-06
  7.978801e-02    9.568435e-06
  8.008694e-02    9.513376e-06
  8.038587e-02    9.612501e-06
  8.068480e-02    9.521846e-06
  8.098373e-02    9.425394e-06
  8.128266e-02    9.525109e-06
  8.158159e-02    9.421076e-06
  8.188052e-02    9.335373e-06
  8.217945e-02    9.493332e-06
  8.247838e-02    9.608579e-06
  8.277731e-02    9.472942e-06
  8.307624e-02    9.447809e-06
  8.337518e-02    9.402915e-06
  8.367411e-02    9.378570e-06
  8.397304e-02    9.401779e-06
  8.427197e-02    9.452336e-06
  8.457090e-02    9.473959e-06
  8.486983e-02    9.442214e-06
  8.516876e-02    9.302218e-06
  8.546769e-02    9.306315e-06
  8.576662e-02    9.367656e-06
  8.606555e-02    9.382749e-06
  8.636448e-02    9.377874e-06
  8.666341e-02    9.371814e-06
  8.696234e-02    9.426753e-06
  8.726127e-02    9.413429e-06
  8.756020e-02    9.385438e-06
  8.785913e-02    9.422719e-06
  8.815806e-02    9.420928e-06
  8.845699e-02    9.339084e-06
  8.875592e-02    9.393058e-06
  8.905485e-02    9.525424e-06
  8.935378e-02    9.446399e-06
  8.965271e-02    9.376510e-06
  8.995164e-02    9.449864e-06
  9.025057e-02    9.397237e-06
  9.054950e-02    9.408324e-06
  9.084843e-02    9.542622e-06
  9.114737e-02    9.539315e-06
  9.144630e-02    9.444557e-06
  9.174523e-02    9.514574e-06
  9.204416e-02    9.614724e-06
  9.234309e-02    9.589763e-06
  9.264202e-02    9.561816e-06
  9.294095e-02    9.406311e-06
  9.323988e-02    9.400193e-06
  9.353881e-02    9.504252e-06
  9.383774e-02    9.523669e-06
  9.413667e-02    9.571151e-06
  9.443560e-02    9.583097e-06
  9.473453e-02    9.539271e-06
  9.503346e-02    9.575419e-06
  9.533239e-02    9.581438e-06
  9.563132e-02    9.422301e-06
  9.593025e-02    9.420128e-06
  9.622918e-02    9.581049e-06
  9.652811e-02    9.595361e-06
  9.682704e-02    9.616852e-06
  9.712597e-02    9.529594e-06
  9.742490e-02    9.442349e-06
  9.772383e-02    9.521104e-06
  9.802276e-02    9.629493e-06
  9.832169e-02    9.566525e-06
  9.862062e-02    9.493024e-06
  9.891956e-02    9.535631e-06
  9.921849e-02    9.556677e-06
  9.951742e-02    9.569379e-06
  9.981635e-02    9.592005e-06
  1.001153e-01    9.644389e-06
  1.004142e-01    9.556859e-06
  1.007131e-01    9.591788e-06
  1.010121e-01    9.553005e-06
  1.013110e-01    9.520194e-06
  1.016099e-01    9.633902e-06
  1.019089e-01    9.452622e-06
  1.022078e-01    9.409843e-06
  1.025067e-01    9.509569e-06
  1.028057e-01    9.505078e-06
  1.031046e-01    9.482117e-06
  1.034035e-01    9.476068e-06
  1.037024e-01    9.358710e-06
  1.040014e-01    9.383400e-06
  1.043003e-01    9.360999e-06
  1.045992e-01    9.335958e-06
  1.048982e-01    9.445963e-06
  1.051971e-01    9.276623e-06
  1.054960e-01    9.298541e-06
  1.057950e-01    9.356428e-06
  1.060939e-01    9.360293e-06
  1.063928e-01    9.264512e-06
  1.066917e-01    9.373483e-06
  1.069907e-01    9.356590e-06
  1.072896e-01    9.409583e-06
  1.075885e-01    9.449471e-06
  1.078875e-01    9.403542e-06
  1.081864e-01    9.263867e-06
  1.084853e-01    9.269512e-06
  1.087843e-01    9.380517e-06
  1.090832e-01    9.374115e-06
  1.093821e-01    9.386348e-06
  1.096810e-01    9.328442e-06
  1.099800e-01    9.376727e-06
  1.102789e-01    9.433696e-06
  1.105778e-01    9.304527e-06
  1.108768e-01    9.333226e-06
  1.111757e-01    9.176251e-06
  1.114746e-01    9.175692e-06
  1.117736e-01    9.055420e-06
  1.120725e-01    8.723103e-06
  1.123714e-01    8.835521e-06
  1.126704e-01    8.837150e-06
  1.129693e-01    8.409398e-06
  1.132682e-01    8.337493e-06
  1.135671e-01    8.214959e-06
  1.138661e-01    8.166428e-06
  1.141650e-01    8.016303e-06
  1.144639e-01    7.913532e-06
  1.147629e-01    7.670737e-06
  1.150618e-01    7.584069e-06
  1.153607e-01    8.000044e-06
  1.156597e-01    8.114982e-06
  1.159586e-01    7.972438e-06
  1.162575e-01    8.083051e-06
  1.165564e-01    7.817478e-06
  1.168554e-01    7.552293e-06
  1.171543e-01    7.754046e-06
  1.174532e-01    7.560806e-06
  1.177522e-01    7.544049e-06
  1.180511e-01    7.690604e-06
  1.183500e-01    7.508950e-06
  1.186490e-01    7.352103e-06
  1.189479e-01    7.271379e-06
  1.192468e-01    7.586524e-06
  1.195458e-01    7.618853e-06
  1.198447e-01    7.596484e-06
  1.201436e-01    7.749949e-06
  1.204425e-01    7.565661e-06
  1.207415e-01    6.606466e-06
  1.210404e-01    4.659004e-06
  1.213393e-01    0.000000e+00
  1.216383e-01    0.000000e+00
  1.219372e-01    0.000000e+00
  1.222361e-01    0.000000e+00
  1.225351e-01    0.000000e+00
  1.228340e-01    0.000000e+00
  1.231329e-01    0.000000e+00
  1.234318e-01    0.000000e+00
  1.237308e-01    0.000000e+00
  1.240297e-01    0.000000e+00
  1.243286e-01    0.000000e+00
  1.246276e-01    0.000000e+00
  1.249265e-01    0.000000e+00
  1.252254e-01    0.000000e+00
  1.255244e-01    0.000000e+00
  1.258233e-01    0.000000e+00
  1.261222e-01    0.000000e+00
  1.264212e-01    0.000000e+00
  1.267201e-01    0.000000e+00
  1.270190e-01    0.000000e+00
  1.273179e-01    0.000000e+00
  1.276169e-01    0.000000e+00
  1.279158e-01    0.000000e+00
  1.282147e-01    0.000000e+00
  1.285137e-01    0.000000e+00
  1.288126e-01    0.000000e+00
  1.291115e-01    0.000000e+00
  1.294105e-01    0.000000e+00
  1.297094e-01    0.000000e+00
  1.300083e-01    0.000000e+00
  1.303072e-01    0.000000e+00
  1.306062e-01    0.000000e+00
  1.309051e-01    0.000000e+00
  1.312040e-01    0.000000e+00
  1.315030e-01    0.000000e+00
  1.318019e-01    0.000000e+00
  1.321008e-01    0.000000e+00
  1.323998e-01    0.000000e+00
  1.326987e-01    0.000000e+00
  1.329976e-01    0.000000e+00
  1.332965e-01    0.000000e+00
  1.335955e-01    0.000000e+00
  1.338944e-01    0.000000e+00
  1.341933e-01    0.000000e+00
  1.344923e-01    0.000000e+00
  1.347912e-01    0.000000e+00
  1.350901e-01    0.000000e+00
  1.353891e-01    0.000000e+00
  1.356880e-01    0.000000e+00
  1.359869e-01    0.000000e+00
  1.362859e-01    0.000000e+00
  1.365848e-01    0.000000e+00
  1.368837e-01    0.000000e+00
  1.371826e-01    0.000000e+00
  1.374816e-01    0.000000e+00
  1.377805e-01    0.000000e+00
  1.380794e-01    0.000000e+00
  1.383784e-01    0.000000e+00
  1.386773e-01    0.000000e+00
  1.389762e-01    0.000000e+00
  1.392752e-01    0.000000e+00
  1.395741e-01    0.000000e+00
  1.398730e-01    0.000000e+00
  1.401719e-01    0.000000e+00
  1.404709e-01    0.000000e+00
  1.407698e-01    0.000000e+00
  1.410687e-01    0.000000e+00
  1.413677e-01    0.000000e+00
  1.416666e-01    0.000000e+00
  1.419655e-01    0.000000e+00
  1.422645e-01    0.000000e+00
  1.425634e-01    0.000000e+00
  1.428623e-01    0.000000e+00
  1.431613e-01    0.000000e+00
  1.434602e-01    0.000000e+00
  1.437591e-01    0.000000e+00
  1.440580e-01    0.000000e+00
  1.443570e-01    0.000000e+00
  1.446559e-01    0.000000e+00
  1.449548e-01    0.000000e+00
  1.452538e-01    0.000000e+00
  1.455527e-01    0.000000e+00
  1.458516e-01    0.000000e+00
  1.461506e-01    0.000000e+00
  1.464495e-01    0.000000e+00
  1.467484e-01    0.000000e+00
  1.470473e-01    0.000000e+00
  1.473463e-01    0.000000e+00
  1.476452e-01    0.000000e+00
  1.479441e-01    0.000000e+00
  1.482431e-01    0.000000e+00
  1.485420e-01    0.000000e+00
  1.488409e-01    0.000000e+00
  1.491399e-01    0.000000e+00
  1.494388e-01    0.000000e+00
  1.497377e-01    0.000000e+00
  1.500367e-01    0.000000e+00
  1.503356e-01    0.000000e+00
  1.506345e-01    0.000000e+00
  1.509334e-01    0.000000e+00
  1.512324e-01    0.000000e+00
  1.515313e-01    0.000000e+00
  1.518302e-01    0.000000e+00
  1.521292e-01    0.000000e+00
  1.524281e-01    0.000000e+00
  1.527270e-01    0.000000e+00
  1.530260e-01    0.000000e+00
  1.533249e-01    0.000000e+00
  1.536238e-01    0.000000e+00
