# == pyFAI calibration ==
# Distance Sample to Detector: 2.266 m
# PONI: 5.659e-02, 4.293e-02 m
# Rotations: 0.000000 0.000000 0.000000 rad
# 
# == Fit2d calibration ==
# Distance Sample-beamCenter: 2266.000 mm
# Center: x=249.594, y=329.012 pix
# Tilt: 0.000 deg  TiltPlanRot: 0.000 deg
# 
# Detector Pilatus 300k	 PixelSize= 1.720e-04, 1.720e-04 m
#    Detector has a mask: True 
#    Detector has a dark current: False 
#    detector has a flat field: False 
# 
# Wavelength: 1.27818e-10 m
# Mask applied: user provided
# Dark current applied: False
# Flat field applied: False
# Polarization factor: None
# Normalization factor: 18453088.6
# --> AL_F127_220301_6bebabd1-b661-408b-88e4-ab924f344022_1_r1d.csv
#        q_A^-1             I 
  4.457554e-03    1.836630e-04
  4.756484e-03    1.445739e-04
  5.055415e-03    1.022154e-04
  5.354345e-03    7.106680e-05
  5.653276e-03    5.443090e-05
  5.952206e-03    7.948435e-05
  6.251136e-03    7.280157e-05
  6.550067e-03    6.403399e-05
  6.848997e-03    5.510189e-05
  7.147927e-03    4.761788e-05
  7.446858e-03    4.178051e-05
  7.745788e-03    3.705850e-05
  8.044719e-03    3.298377e-05
  8.343649e-03    2.965615e-05
  8.642579e-03    2.702361e-05
  8.941510e-03    2.461489e-05
  9.240440e-03    2.271015e-05
  9.539371e-03    2.112649e-05
  9.838301e-03    1.988114e-05
  1.013723e-02    1.871526e-05
  1.043616e-02    1.770827e-05
  1.073509e-02    1.696635e-05
  1.103402e-02    1.631192e-05
  1.133295e-02    1.570433e-05
  1.163188e-02    1.515716e-05
  1.193081e-02    1.476427e-05
  1.222974e-02    1.451355e-05
  1.252867e-02    1.416970e-05
  1.282760e-02    1.400024e-05
  1.312654e-02    1.385350e-05
  1.342547e-02    1.361740e-05
  1.372440e-02    1.354180e-05
  1.402333e-02    1.358154e-05
  1.432226e-02    1.348475e-05
  1.462119e-02    1.343257e-05
  1.492012e-02    1.353408e-05
  1.521905e-02    1.366274e-05
  1.551798e-02    1.385683e-05
  1.581691e-02    1.394762e-05
  1.611584e-02    1.406970e-05
  1.641477e-02    1.426451e-05
  1.671370e-02    1.451454e-05
  1.701263e-02    1.480775e-05
  1.731156e-02    1.510962e-05
  1.761049e-02    1.548202e-05
  1.790942e-02    1.576076e-05
  1.820835e-02    1.613794e-05
  1.850728e-02    1.658684e-05
  1.880621e-02    1.691110e-05
  1.910514e-02    1.736638e-05
  1.940407e-02    1.782546e-05
  1.970300e-02    1.833991e-05
  2.000193e-02    1.891229e-05
  2.030086e-02    1.941910e-05
  2.059979e-02    2.001338e-05
  2.089873e-02    2.053481e-05
  2.119766e-02    2.107105e-05
  2.149659e-02    2.170840e-05
  2.179552e-02    2.225432e-05
  2.209445e-02    2.284825e-05
  2.239338e-02    2.334390e-05
  2.269231e-02    2.380220e-05
  2.299124e-02    2.428747e-05
  2.329017e-02    2.480206e-05
  2.358910e-02    2.514980e-05
  2.388803e-02    2.536667e-05
  2.418696e-02    2.555175e-05
  2.448589e-02    2.567575e-05
  2.478482e-02    2.583848e-05
  2.508375e-02    2.577862e-05
  2.538268e-02    2.559342e-05
  2.568161e-02    2.542803e-05
  2.598054e-02    2.512969e-05
  2.627947e-02    2.475179e-05
  2.657840e-02    2.434748e-05
  2.687733e-02    2.386988e-05
  2.717626e-02    2.328471e-05
  2.747519e-02    2.264478e-05
  2.777412e-02    2.202109e-05
  2.807305e-02    2.131506e-05
  2.837198e-02    2.052716e-05
  2.867092e-02    1.984250e-05
  2.896985e-02    1.911272e-05
  2.926878e-02    1.842660e-05
  2.956771e-02    1.777673e-05
  2.986664e-02    1.704277e-05
  3.016557e-02    1.632757e-05
  3.046450e-02    1.567092e-05
  3.076343e-02    1.504957e-05
  3.106236e-02    1.446598e-05
  3.136129e-02    1.389902e-05
  3.166022e-02    1.335247e-05
  3.195915e-02    1.282010e-05
  3.225808e-02    1.234106e-05
  3.255701e-02    1.192650e-05
  3.285594e-02    1.146575e-05
  3.315487e-02    1.099684e-05
  3.345380e-02    1.061704e-05
  3.375273e-02    1.026829e-05
  3.405166e-02    9.972628e-06
  3.435059e-02    9.622941e-06
  3.464952e-02    9.281859e-06
  3.494845e-02    9.004239e-06
  3.524738e-02    8.739776e-06
  3.554631e-02    8.511382e-06
  3.584524e-02    8.233521e-06
  3.614417e-02    7.976962e-06
  3.644310e-02    7.789135e-06
  3.674204e-02    7.592656e-06
  3.704097e-02    7.392193e-06
  3.733990e-02    7.207091e-06
  3.763883e-02    7.063503e-06
  3.793776e-02    6.863709e-06
  3.823669e-02    6.695705e-06
  3.853562e-02    6.560259e-06
  3.883455e-02    6.431355e-06
  3.913348e-02    6.292064e-06
  3.943241e-02    6.146006e-06
  3.973134e-02    6.014501e-06
  4.003027e-02    5.922411e-06
  4.032920e-02    5.800448e-06
  4.062813e-02    5.717566e-06
  4.092706e-02    5.599601e-06
  4.122599e-02    5.482204e-06
  4.152492e-02    5.379522e-06
  4.182385e-02    5.271543e-06
  4.212278e-02    5.221728e-06
  4.242171e-02    5.153976e-06
  4.272064e-02    5.076190e-06
  4.301957e-02    4.986143e-06
  4.331850e-02    4.919946e-06
  4.361743e-02    4.843786e-06
  4.391636e-02    4.745983e-06
  4.421529e-02    4.660423e-06
  4.451423e-02    4.607633e-06
  4.481316e-02    4.535924e-06
  4.511209e-02    4.468521e-06
  4.541102e-02    4.395591e-06
  4.570995e-02    4.319460e-06
  4.600888e-02    4.220331e-06
  4.630781e-02    4.160554e-06
  4.660674e-02    4.110253e-06
  4.690567e-02    4.046963e-06
  4.720460e-02    3.981739e-06
  4.750353e-02    3.931721e-06
  4.780246e-02    3.850102e-06
  4.810139e-02    3.788107e-06
  4.840032e-02    3.728169e-06
  4.869925e-02    3.661537e-06
  4.899818e-02    3.589423e-06
  4.929711e-02    3.518352e-06
  4.959604e-02    3.453771e-06
  4.989497e-02    3.383145e-06
  5.019390e-02    3.336002e-06
  5.049283e-02    3.284629e-06
  5.079176e-02    3.203882e-06
  5.109069e-02    3.146148e-06
  5.138962e-02    3.089503e-06
  5.168855e-02    3.023871e-06
  5.198748e-02    2.961325e-06
  5.228642e-02    2.885535e-06
  5.258535e-02    2.795084e-06
  5.288428e-02    2.738433e-06
  5.318321e-02    2.687804e-06
  5.348214e-02    2.622563e-06
  5.378107e-02    2.552228e-06
  5.408000e-02    2.489568e-06
  5.437893e-02    2.455549e-06
  5.467786e-02    2.410413e-06
  5.497679e-02    2.367298e-06
  5.527572e-02    2.300321e-06
  5.557465e-02    2.237788e-06
  5.587358e-02    2.180336e-06
  5.617251e-02    2.112607e-06
  5.647144e-02    2.079898e-06
  5.677037e-02    2.023637e-06
  5.706930e-02    1.976460e-06
  5.736823e-02    1.937155e-06
  5.766716e-02    1.893550e-06
  5.796609e-02    1.849686e-06
  5.826502e-02    1.804412e-06
  5.856395e-02    1.761523e-06
  5.886288e-02    1.727907e-06
  5.916181e-02    1.685528e-06
  5.946074e-02    1.648663e-06
  5.975967e-02    1.608944e-06
  6.005861e-02    1.583338e-06
  6.035754e-02    1.544398e-06
  6.065647e-02    1.521367e-06
  6.095540e-02    1.510406e-06
  6.125433e-02    1.479915e-06
  6.155326e-02    1.446701e-06
  6.185219e-02    1.410409e-06
  6.215112e-02    1.377255e-06
  6.245005e-02    1.348018e-06
  6.274898e-02    1.322203e-06
  6.304791e-02    1.299729e-06
  6.334684e-02    1.269580e-06
  6.364577e-02    1.254681e-06
  6.394470e-02    1.240974e-06
  6.424363e-02    1.214578e-06
  6.454256e-02    1.186845e-06
  6.484149e-02    1.177692e-06
  6.514042e-02    1.157614e-06
  6.543935e-02    1.138388e-06
  6.573828e-02    1.121158e-06
  6.603721e-02    1.103962e-06
  6.633614e-02    1.090917e-06
  6.663507e-02    1.072298e-06
  6.693400e-02    1.054082e-06
  6.723293e-02    1.032841e-06
  6.753186e-02    1.029085e-06
  6.783080e-02    1.010523e-06
  6.812973e-02    9.921408e-07
  6.842866e-02    9.903360e-07
  6.872759e-02    9.737006e-07
  6.902652e-02    9.544372e-07
  6.932545e-02    9.550616e-07
  6.962438e-02    9.518253e-07
  6.992331e-02    9.357828e-07
  7.022224e-02    9.201369e-07
  7.052117e-02    9.126275e-07
  7.082010e-02    9.063500e-07
  7.111903e-02    8.991491e-07
  7.141796e-02    8.956327e-07
  7.171689e-02    8.876285e-07
  7.201582e-02    8.738381e-07
  7.231475e-02    8.737990e-07
  7.261368e-02    8.683326e-07
  7.291261e-02    8.596109e-07
  7.321154e-02    8.608434e-07
  7.351047e-02    8.515777e-07
  7.380940e-02    8.292756e-07
  7.410833e-02    8.227000e-07
  7.440726e-02    8.287021e-07
  7.470619e-02    8.288524e-07
  7.500512e-02    8.250391e-07
  7.530405e-02    8.208171e-07
  7.560299e-02    8.178569e-07
  7.590192e-02    8.127520e-07
  7.620085e-02    8.089060e-07
  7.649978e-02    8.037668e-07
  7.679871e-02    8.041036e-07
  7.709764e-02    8.086885e-07
  7.739657e-02    8.013614e-07
  7.769550e-02    7.935856e-07
  7.799443e-02    7.968936e-07
  7.829336e-02    7.865326e-07
  7.859229e-02    7.857197e-07
  7.889122e-02    7.871974e-07
  7.919015e-02    7.776986e-07
  7.948908e-02    7.817764e-07
  7.978801e-02    7.760405e-07
  8.008694e-02    7.733444e-07
  8.038587e-02    7.809381e-07
  8.068480e-02    7.785985e-07
  8.098373e-02    7.713771e-07
  8.128266e-02    7.760043e-07
  8.158159e-02    7.858660e-07
  8.188052e-02    7.846326e-07
  8.217945e-02    7.726081e-07
  8.247838e-02    7.731859e-07
  8.277731e-02    7.805998e-07
  8.307624e-02    7.746639e-07
  8.337518e-02    7.781273e-07
  8.367411e-02    7.767032e-07
  8.397304e-02    7.718530e-07
  8.427197e-02    7.776765e-07
  8.457090e-02    7.756038e-07
  8.486983e-02    7.753484e-07
  8.516876e-02    7.762922e-07
  8.546769e-02    7.835553e-07
  8.576662e-02    7.855521e-07
  8.606555e-02    7.727338e-07
  8.636448e-02    7.767022e-07
  8.666341e-02    7.779700e-07
  8.696234e-02    7.785840e-07
  8.726127e-02    7.798516e-07
  8.756020e-02    7.759192e-07
  8.785913e-02    7.741024e-07
  8.815806e-02    7.772549e-07
  8.845699e-02    7.743747e-07
  8.875592e-02    7.799724e-07
  8.905485e-02    7.884588e-07
  8.935378e-02    7.834109e-07
  8.965271e-02    7.835216e-07
  8.995164e-02    7.877089e-07
  9.025057e-02    7.856871e-07
  9.054950e-02    7.808235e-07
  9.084843e-02    7.841143e-07
  9.114737e-02    7.931966e-07
  9.144630e-02    7.941894e-07
  9.174523e-02    7.923365e-07
  9.204416e-02    7.898991e-07
  9.234309e-02    7.924125e-07
  9.264202e-02    7.937786e-07
  9.294095e-02    7.907398e-07
  9.323988e-02    7.926394e-07
  9.353881e-02    7.978675e-07
  9.383774e-02    8.044224e-07
  9.413667e-02    7.983674e-07
  9.443560e-02    7.936008e-07
  9.473453e-02    7.997311e-07
  9.503346e-02    7.953284e-07
  9.533239e-02    7.902698e-07
  9.563132e-02    7.929145e-07
  9.593025e-02    7.964842e-07
  9.622918e-02    7.966165e-07
  9.652811e-02    8.049090e-07
  9.682704e-02    8.082245e-07
  9.712597e-02    8.097840e-07
  9.742490e-02    8.078586e-07
  9.772383e-02    7.990525e-07
  9.802276e-02    7.921954e-07
  9.832169e-02    7.933901e-07
  9.862062e-02    7.956609e-07
  9.891956e-02    7.983359e-07
  9.921849e-02    8.098567e-07
  9.951742e-02    8.116628e-07
  9.981635e-02    8.075698e-07
  1.001153e-01    8.014414e-07
  1.004142e-01    7.976800e-07
  1.007131e-01    7.980861e-07
  1.010121e-01    7.970565e-07
  1.013110e-01    7.951397e-07
  1.016099e-01    8.009486e-07
  1.019089e-01    7.919319e-07
  1.022078e-01    7.932602e-07
  1.025067e-01    7.989179e-07
  1.028057e-01    7.950345e-07
  1.031046e-01    7.909799e-07
  1.034035e-01    7.949799e-07
  1.037024e-01    7.988999e-07
  1.040014e-01    7.988122e-07
  1.043003e-01    7.889270e-07
  1.045992e-01    7.901130e-07
  1.048982e-01    7.961433e-07
  1.051971e-01    7.900750e-07
  1.054960e-01    7.828760e-07
  1.057950e-01    7.866143e-07
  1.060939e-01    7.905848e-07
  1.063928e-01    7.911640e-07
  1.066917e-01    7.919519e-07
  1.069907e-01    7.935619e-07
  1.072896e-01    7.971252e-07
  1.075885e-01    7.907659e-07
  1.078875e-01    7.934456e-07
  1.081864e-01    7.984063e-07
  1.084853e-01    7.896048e-07
  1.087843e-01    7.911938e-07
  1.090832e-01    7.907188e-07
  1.093821e-01    7.969664e-07
  1.096810e-01    7.874655e-07
  1.099800e-01    7.790788e-07
  1.102789e-01    7.773862e-07
  1.105778e-01    7.757351e-07
  1.108768e-01    7.729419e-07
  1.111757e-01    7.650021e-07
  1.114746e-01    7.628371e-07
  1.117736e-01    7.561891e-07
  1.120725e-01    7.385887e-07
  1.123714e-01    7.378476e-07
  1.126704e-01    7.408082e-07
  1.129693e-01    7.332603e-07
  1.132682e-01    7.124642e-07
  1.135671e-01    6.946951e-07
  1.138661e-01    6.947720e-07
  1.141650e-01    6.761443e-07
  1.144639e-01    6.566548e-07
  1.147629e-01    6.619446e-07
  1.150618e-01    6.533767e-07
  1.153607e-01    6.592034e-07
  1.156597e-01    6.769100e-07
  1.159586e-01    6.599413e-07
  1.162575e-01    6.431677e-07
  1.165564e-01    6.361257e-07
  1.168554e-01    6.596467e-07
  1.171543e-01    6.684281e-07
  1.174532e-01    6.399998e-07
  1.177522e-01    6.447243e-07
  1.180511e-01    6.569039e-07
  1.183500e-01    6.390634e-07
  1.186490e-01    6.399218e-07
  1.189479e-01    6.400726e-07
  1.192468e-01    6.458548e-07
  1.195458e-01    6.505568e-07
  1.198447e-01    6.486985e-07
  1.201436e-01    6.226700e-07
  1.204425e-01    6.406335e-07
  1.207415e-01    7.189631e-07
  1.210404e-01    7.051273e-07
  1.213393e-01    0.000000e+00
  1.216383e-01    0.000000e+00
  1.219372e-01    0.000000e+00
  1.222361e-01    0.000000e+00
  1.225351e-01    0.000000e+00
  1.228340e-01    0.000000e+00
  1.231329e-01    0.000000e+00
  1.234318e-01    0.000000e+00
  1.237308e-01    0.000000e+00
  1.240297e-01    0.000000e+00
  1.243286e-01    0.000000e+00
  1.246276e-01    0.000000e+00
  1.249265e-01    0.000000e+00
  1.252254e-01    0.000000e+00
  1.255244e-01    0.000000e+00
  1.258233e-01    0.000000e+00
  1.261222e-01    0.000000e+00
  1.264212e-01    0.000000e+00
  1.267201e-01    0.000000e+00
  1.270190e-01    0.000000e+00
  1.273179e-01    0.000000e+00
  1.276169e-01    0.000000e+00
  1.279158e-01    0.000000e+00
  1.282147e-01    0.000000e+00
  1.285137e-01    0.000000e+00
  1.288126e-01    0.000000e+00
  1.291115e-01    0.000000e+00
  1.294105e-01    0.000000e+00
  1.297094e-01    0.000000e+00
  1.300083e-01    0.000000e+00
  1.303072e-01    0.000000e+00
  1.306062e-01    0.000000e+00
  1.309051e-01    0.000000e+00
  1.312040e-01    0.000000e+00
  1.315030e-01    0.000000e+00
  1.318019e-01    0.000000e+00
  1.321008e-01    0.000000e+00
  1.323998e-01    0.000000e+00
  1.326987e-01    0.000000e+00
  1.329976e-01    0.000000e+00
  1.332965e-01    0.000000e+00
  1.335955e-01    0.000000e+00
  1.338944e-01    0.000000e+00
  1.341933e-01    0.000000e+00
  1.344923e-01    0.000000e+00
  1.347912e-01    0.000000e+00
  1.350901e-01    0.000000e+00
  1.353891e-01    0.000000e+00
  1.356880e-01    0.000000e+00
  1.359869e-01    0.000000e+00
  1.362859e-01    0.000000e+00
  1.365848e-01    0.000000e+00
  1.368837e-01    0.000000e+00
  1.371826e-01    0.000000e+00
  1.374816e-01    0.000000e+00
  1.377805e-01    0.000000e+00
  1.380794e-01    0.000000e+00
  1.383784e-01    0.000000e+00
  1.386773e-01    0.000000e+00
  1.389762e-01    0.000000e+00
  1.392752e-01    0.000000e+00
  1.395741e-01    0.000000e+00
  1.398730e-01    0.000000e+00
  1.401719e-01    0.000000e+00
  1.404709e-01    0.000000e+00
  1.407698e-01    0.000000e+00
  1.410687e-01    0.000000e+00
  1.413677e-01    0.000000e+00
  1.416666e-01    0.000000e+00
  1.419655e-01    0.000000e+00
  1.422645e-01    0.000000e+00
  1.425634e-01    0.000000e+00
  1.428623e-01    0.000000e+00
  1.431613e-01    0.000000e+00
  1.434602e-01    0.000000e+00
  1.437591e-01    0.000000e+00
  1.440580e-01    0.000000e+00
  1.443570e-01    0.000000e+00
  1.446559e-01    0.000000e+00
  1.449548e-01    0.000000e+00
  1.452538e-01    0.000000e+00
  1.455527e-01    0.000000e+00
  1.458516e-01    0.000000e+00
  1.461506e-01    0.000000e+00
  1.464495e-01    0.000000e+00
  1.467484e-01    0.000000e+00
  1.470473e-01    0.000000e+00
  1.473463e-01    0.000000e+00
  1.476452e-01    0.000000e+00
  1.479441e-01    0.000000e+00
  1.482431e-01    0.000000e+00
  1.485420e-01    0.000000e+00
  1.488409e-01    0.000000e+00
  1.491399e-01    0.000000e+00
  1.494388e-01    0.000000e+00
  1.497377e-01    0.000000e+00
  1.500367e-01    0.000000e+00
  1.503356e-01    0.000000e+00
  1.506345e-01    0.000000e+00
  1.509334e-01    0.000000e+00
  1.512324e-01    0.000000e+00
  1.515313e-01    0.000000e+00
  1.518302e-01    0.000000e+00
  1.521292e-01    0.000000e+00
  1.524281e-01    0.000000e+00
  1.527270e-01    0.000000e+00
  1.530260e-01    0.000000e+00
  1.533249e-01    0.000000e+00
  1.536238e-01    0.000000e+00
