# == pyFAI calibration ==
# Distance Sample to Detector: 2.266 m
# PONI: 5.659e-02, 4.293e-02 m
# Rotations: 0.000000 0.000000 0.000000 rad
# 
# == Fit2d calibration ==
# Distance Sample-beamCenter: 2266.000 mm
# Center: x=249.594, y=329.012 pix
# Tilt: 0.000 deg  TiltPlanRot: 0.000 deg
# 
# Detector Pilatus 300k	 PixelSize= 1.720e-04, 1.720e-04 m
#    Detector has a mask: True 
#    Detector has a dark current: False 
#    detector has a flat field: False 
# 
# Wavelength: 1.27818e-10 m
# Mask applied: user provided
# Dark current applied: False
# Flat field applied: False
# Polarization factor: None
# Normalization factor: 1409486.4000000001
# --> AL_F127_220226_0486faf3-a745-4788-ba71-73c548139f54_2_r1d.csv
#        q_A^-1             I 
  4.457554e-03    2.374308e-03
  4.756484e-03    1.849799e-03
  5.055415e-03    1.326988e-03
  5.354345e-03    9.403431e-04
  5.653276e-03    7.212936e-04
  5.952206e-03    1.083290e-03
  6.251136e-03    1.002433e-03
  6.550067e-03    8.768715e-04
  6.848997e-03    7.487133e-04
  7.147927e-03    6.370825e-04
  7.446858e-03    5.491783e-04
  7.745788e-03    4.721564e-04
  8.044719e-03    4.080882e-04
  8.343649e-03    3.578881e-04
  8.642579e-03    3.140270e-04
  8.941510e-03    2.760095e-04
  9.240440e-03    2.457383e-04
  9.539371e-03    2.183915e-04
  9.838301e-03    1.944637e-04
  1.013723e-02    1.735023e-04
  1.043616e-02    1.560983e-04
  1.073509e-02    1.403413e-04
  1.103402e-02    1.269996e-04
  1.133295e-02    1.158909e-04
  1.163188e-02    1.052576e-04
  1.193081e-02    9.589428e-05
  1.222974e-02    8.677303e-05
  1.252867e-02    7.959060e-05
  1.282760e-02    7.324578e-05
  1.312654e-02    6.715653e-05
  1.342547e-02    6.143123e-05
  1.372440e-02    5.709481e-05
  1.402333e-02    5.307630e-05
  1.432226e-02    4.913988e-05
  1.462119e-02    4.545601e-05
  1.492012e-02    4.229888e-05
  1.521905e-02    3.959647e-05
  1.551798e-02    3.736131e-05
  1.581691e-02    3.500014e-05
  1.611584e-02    3.283624e-05
  1.641477e-02    3.036913e-05
  1.671370e-02    2.839777e-05
  1.701263e-02    2.693195e-05
  1.731156e-02    2.567754e-05
  1.761049e-02    2.433778e-05
  1.790942e-02    2.301718e-05
  1.820835e-02    2.178367e-05
  1.850728e-02    2.067984e-05
  1.880621e-02    1.972261e-05
  1.910514e-02    1.886667e-05
  1.940407e-02    1.816012e-05
  1.970300e-02    1.756714e-05
  2.000193e-02    1.668217e-05
  2.030086e-02    1.580334e-05
  2.059979e-02    1.526539e-05
  2.089873e-02    1.470047e-05
  2.119766e-02    1.406728e-05
  2.149659e-02    1.360171e-05
  2.179552e-02    1.316074e-05
  2.209445e-02    1.264206e-05
  2.239338e-02    1.244532e-05
  2.269231e-02    1.183706e-05
  2.299124e-02    1.151657e-05
  2.329017e-02    1.116476e-05
  2.358910e-02    1.095010e-05
  2.388803e-02    1.071029e-05
  2.418696e-02    1.049861e-05
  2.448589e-02    1.027913e-05
  2.478482e-02    9.909898e-06
  2.508375e-02    9.720627e-06
  2.538268e-02    9.551110e-06
  2.568161e-02    9.273698e-06
  2.598054e-02    9.179468e-06
  2.627947e-02    8.964336e-06
  2.657840e-02    8.807589e-06
  2.687733e-02    8.844234e-06
  2.717626e-02    8.521717e-06
  2.747519e-02    8.306690e-06
  2.777412e-02    8.371642e-06
  2.807305e-02    8.290171e-06
  2.837198e-02    8.087170e-06
  2.867092e-02    8.000025e-06
  2.896985e-02    7.872732e-06
  2.926878e-02    7.777482e-06
  2.956771e-02    7.681834e-06
  2.986664e-02    7.558322e-06
  3.016557e-02    7.557082e-06
  3.046450e-02    7.561146e-06
  3.076343e-02    7.336858e-06
  3.106236e-02    7.199732e-06
  3.136129e-02    7.273521e-06
  3.166022e-02    7.192661e-06
  3.195915e-02    7.157055e-06
  3.225808e-02    7.166824e-06
  3.255701e-02    7.069394e-06
  3.285594e-02    6.904529e-06
  3.315487e-02    6.755199e-06
  3.345380e-02    6.712353e-06
  3.375273e-02    6.628312e-06
  3.405166e-02    6.600425e-06
  3.435059e-02    6.544868e-06
  3.464952e-02    6.396570e-06
  3.494845e-02    6.370032e-06
  3.524738e-02    6.378150e-06
  3.554631e-02    6.301817e-06
  3.584524e-02    6.334364e-06
  3.614417e-02    6.290741e-06
  3.644310e-02    6.150295e-06
  3.674204e-02    6.040321e-06
  3.704097e-02    5.972013e-06
  3.733990e-02    5.963087e-06
  3.763883e-02    5.904049e-06
  3.793776e-02    5.839177e-06
  3.823669e-02    5.770839e-06
  3.853562e-02    5.663544e-06
  3.883455e-02    5.610338e-06
  3.913348e-02    5.517077e-06
  3.943241e-02    5.468896e-06
  3.973134e-02    5.470015e-06
  4.003027e-02    5.413381e-06
  4.032920e-02    5.481703e-06
  4.062813e-02    5.458644e-06
  4.092706e-02    5.408747e-06
  4.122599e-02    5.402713e-06
  4.152492e-02    5.348992e-06
  4.182385e-02    5.254424e-06
  4.212278e-02    5.276876e-06
  4.242171e-02    5.259143e-06
  4.272064e-02    5.242254e-06
  4.301957e-02    5.163228e-06
  4.331850e-02    5.038550e-06
  4.361743e-02    5.107498e-06
  4.391636e-02    5.098100e-06
  4.421529e-02    5.103052e-06
  4.451423e-02    5.199616e-06
  4.481316e-02    5.105868e-06
  4.511209e-02    5.079981e-06
  4.541102e-02    5.018548e-06
  4.570995e-02    4.987889e-06
  4.600888e-02    4.960599e-06
  4.630781e-02    4.957149e-06
  4.660674e-02    5.005442e-06
  4.690567e-02    4.944398e-06
  4.720460e-02    4.988050e-06
  4.750353e-02    5.028821e-06
  4.780246e-02    4.940984e-06
  4.810139e-02    4.968408e-06
  4.840032e-02    4.996903e-06
  4.869925e-02    4.958481e-06
  4.899818e-02    4.896968e-06
  4.929711e-02    4.998579e-06
  4.959604e-02    4.997372e-06
  4.989497e-02    4.918037e-06
  5.019390e-02    4.831809e-06
  5.049283e-02    4.842742e-06
  5.079176e-02    4.829445e-06
  5.109069e-02    4.851431e-06
  5.138962e-02    4.993467e-06
  5.168855e-02    5.104010e-06
  5.198748e-02    5.283388e-06
  5.228642e-02    5.172437e-06
  5.258535e-02    4.934926e-06
  5.288428e-02    4.825164e-06
  5.318321e-02    4.893524e-06
  5.348214e-02    4.831707e-06
  5.378107e-02    4.794302e-06
  5.408000e-02    4.815745e-06
  5.437893e-02    4.805070e-06
  5.467786e-02    4.757966e-06
  5.497679e-02    4.788074e-06
  5.527572e-02    4.780487e-06
  5.557465e-02    4.761928e-06
  5.587358e-02    4.696141e-06
  5.617251e-02    4.698793e-06
  5.647144e-02    4.777217e-06
  5.677037e-02    4.822082e-06
  5.706930e-02    4.801666e-06
  5.736823e-02    4.751852e-06
  5.766716e-02    4.739728e-06
  5.796609e-02    4.726695e-06
  5.826502e-02    4.716723e-06
  5.856395e-02    4.758765e-06
  5.886288e-02    4.851267e-06
  5.916181e-02    4.816378e-06
  5.946074e-02    4.756491e-06
  5.975967e-02    4.807058e-06
  6.005861e-02    4.829875e-06
  6.035754e-02    4.862128e-06
  6.065647e-02    4.885812e-06
  6.095540e-02    4.924124e-06
  6.125433e-02    5.087605e-06
  6.155326e-02    5.020705e-06
  6.185219e-02    4.896264e-06
  6.215112e-02    4.883976e-06
  6.245005e-02    4.909533e-06
  6.274898e-02    4.836506e-06
  6.304791e-02    4.857377e-06
  6.334684e-02    4.745173e-06
  6.364577e-02    4.801181e-06
  6.394470e-02    4.872308e-06
  6.424363e-02    4.852835e-06
  6.454256e-02    4.866083e-06
  6.484149e-02    4.802505e-06
  6.514042e-02    4.757645e-06
  6.543935e-02    4.882146e-06
  6.573828e-02    4.932759e-06
  6.603721e-02    4.971989e-06
  6.633614e-02    5.022786e-06
  6.663507e-02    4.964005e-06
  6.693400e-02    4.918748e-06
  6.723293e-02    5.030591e-06
  6.753186e-02    5.121193e-06
  6.783080e-02    5.007369e-06
  6.812973e-02    4.974238e-06
  6.842866e-02    4.971484e-06
  6.872759e-02    4.999606e-06
  6.902652e-02    5.015589e-06
  6.932545e-02    5.027476e-06
  6.962438e-02    5.001468e-06
  6.992331e-02    5.063777e-06
  7.022224e-02    5.170286e-06
  7.052117e-02    5.022470e-06
  7.082010e-02    5.010554e-06
  7.111903e-02    5.069970e-06
  7.141796e-02    5.097571e-06
  7.171689e-02    5.165195e-06
  7.201582e-02    5.128546e-06
  7.231475e-02    5.082359e-06
  7.261368e-02    5.069061e-06
  7.291261e-02    5.106640e-06
  7.321154e-02    5.161725e-06
  7.351047e-02    5.168898e-06
  7.380940e-02    5.110567e-06
  7.410833e-02    5.132176e-06
  7.440726e-02    5.213905e-06
  7.470619e-02    5.131076e-06
  7.500512e-02    5.144378e-06
  7.530405e-02    5.124577e-06
  7.560299e-02    5.101083e-06
  7.590192e-02    5.013386e-06
  7.620085e-02    5.005424e-06
  7.649978e-02    5.044370e-06
  7.679871e-02    5.068704e-06
  7.709764e-02    5.066943e-06
  7.739657e-02    5.073769e-06
  7.769550e-02    5.037470e-06
  7.799443e-02    5.073987e-06
  7.829336e-02    5.040089e-06
  7.859229e-02    5.044130e-06
  7.889122e-02    5.080039e-06
  7.919015e-02    5.035845e-06
  7.948908e-02    4.965080e-06
  7.978801e-02    4.984772e-06
  8.008694e-02    5.060693e-06
  8.038587e-02    5.009699e-06
  8.068480e-02    5.002007e-06
  8.098373e-02    4.974449e-06
  8.128266e-02    5.079025e-06
  8.158159e-02    5.110979e-06
  8.188052e-02    5.012261e-06
  8.217945e-02    4.980823e-06
  8.247838e-02    4.988054e-06
  8.277731e-02    5.006049e-06
  8.307624e-02    4.946984e-06
  8.337518e-02    4.922161e-06
  8.367411e-02    4.927263e-06
  8.397304e-02    4.946254e-06
  8.427197e-02    5.004495e-06
  8.457090e-02    4.984960e-06
  8.486983e-02    4.925761e-06
  8.516876e-02    4.929374e-06
  8.546769e-02    4.865389e-06
  8.576662e-02    4.862292e-06
  8.606555e-02    4.926729e-06
  8.636448e-02    4.958851e-06
  8.666341e-02    4.892191e-06
  8.696234e-02    4.878046e-06
  8.726127e-02    4.870659e-06
  8.756020e-02    4.928408e-06
  8.785913e-02    4.919779e-06
  8.815806e-02    4.898099e-06
  8.845699e-02    4.893217e-06
  8.875592e-02    4.874904e-06
  8.905485e-02    4.812353e-06
  8.935378e-02    4.844798e-06
  8.965271e-02    4.779418e-06
  8.995164e-02    4.786097e-06
  9.025057e-02    4.734171e-06
  9.054950e-02    4.768366e-06
  9.084843e-02    4.745115e-06
  9.114737e-02    4.708861e-06
  9.144630e-02    4.735507e-06
  9.174523e-02    4.732278e-06
  9.204416e-02    4.675795e-06
  9.234309e-02    4.695482e-06
  9.264202e-02    4.715465e-06
  9.294095e-02    4.711599e-06
  9.323988e-02    4.675193e-06
  9.353881e-02    4.638340e-06
  9.383774e-02    4.612140e-06
  9.413667e-02    4.579287e-06
  9.443560e-02    4.632355e-06
  9.473453e-02    4.594913e-06
  9.503346e-02    4.585538e-06
  9.533239e-02    4.571275e-06
  9.563132e-02    4.578561e-06
  9.593025e-02    4.643252e-06
  9.622918e-02    4.648406e-06
  9.652811e-02    4.613221e-06
  9.682704e-02    4.630293e-06
  9.712597e-02    4.639218e-06
  9.742490e-02    4.639386e-06
  9.772383e-02    4.616963e-06
  9.802276e-02    4.533150e-06
  9.832169e-02    4.495004e-06
  9.862062e-02    4.536345e-06
  9.891956e-02    4.562349e-06
  9.921849e-02    4.485209e-06
  9.951742e-02    4.453132e-06
  9.981635e-02    4.482811e-06
  1.001153e-01    4.417835e-06
  1.004142e-01    4.421923e-06
  1.007131e-01    4.434517e-06
  1.010121e-01    4.443193e-06
  1.013110e-01    4.457553e-06
  1.016099e-01    4.429231e-06
  1.019089e-01    4.399993e-06
  1.022078e-01    4.381115e-06
  1.025067e-01    4.397727e-06
  1.028057e-01    4.387572e-06
  1.031046e-01    4.390548e-06
  1.034035e-01    4.413122e-06
  1.037024e-01    4.343073e-06
  1.040014e-01    4.362435e-06
  1.043003e-01    4.329033e-06
  1.045992e-01    4.300341e-06
  1.048982e-01    4.275931e-06
  1.051971e-01    4.273546e-06
  1.054960e-01    4.279998e-06
  1.057950e-01    4.252949e-06
  1.060939e-01    4.232541e-06
  1.063928e-01    4.234537e-06
  1.066917e-01    4.231448e-06
  1.069907e-01    4.235166e-06
  1.072896e-01    4.225409e-06
  1.075885e-01    4.246730e-06
  1.078875e-01    4.211780e-06
  1.081864e-01    4.168563e-06
  1.084853e-01    4.234512e-06
  1.087843e-01    4.265113e-06
  1.090832e-01    4.223933e-06
  1.093821e-01    4.261987e-06
  1.096810e-01    4.300256e-06
  1.099800e-01    4.219087e-06
  1.102789e-01    4.213192e-06
  1.105778e-01    4.243180e-06
  1.108768e-01    4.184077e-06
  1.111757e-01    4.117175e-06
  1.114746e-01    4.093422e-06
  1.117736e-01    4.134164e-06
  1.120725e-01    4.247127e-06
  1.123714e-01    4.169836e-06
  1.126704e-01    4.052733e-06
  1.129693e-01    4.076919e-06
  1.132682e-01    4.054140e-06
  1.135671e-01    4.092370e-06
  1.138661e-01    4.114450e-06
  1.141650e-01    4.005428e-06
  1.144639e-01    4.097662e-06
  1.147629e-01    4.029933e-06
  1.150618e-01    3.872019e-06
  1.153607e-01    3.913913e-06
  1.156597e-01    3.962924e-06
  1.159586e-01    3.905988e-06
  1.162575e-01    3.891709e-06
  1.165564e-01    3.811287e-06
  1.168554e-01    3.825842e-06
  1.171543e-01    4.077677e-06
  1.174532e-01    4.159625e-06
  1.177522e-01    4.009968e-06
  1.180511e-01    3.886519e-06
  1.183500e-01    3.915955e-06
  1.186490e-01    3.974312e-06
  1.189479e-01    4.027670e-06
  1.192468e-01    3.982104e-06
  1.195458e-01    3.977631e-06
  1.198447e-01    4.002651e-06
  1.201436e-01    4.202551e-06
  1.204425e-01    4.229450e-06
  1.207415e-01    4.051160e-06
  1.210404e-01    2.840484e-06
  1.213393e-01    0.000000e+00
  1.216383e-01    0.000000e+00
  1.219372e-01    0.000000e+00
  1.222361e-01    0.000000e+00
  1.225351e-01    0.000000e+00
  1.228340e-01    0.000000e+00
  1.231329e-01    0.000000e+00
  1.234318e-01    0.000000e+00
  1.237308e-01    0.000000e+00
  1.240297e-01    0.000000e+00
  1.243286e-01    0.000000e+00
  1.246276e-01    0.000000e+00
  1.249265e-01    0.000000e+00
  1.252254e-01    0.000000e+00
  1.255244e-01    0.000000e+00
  1.258233e-01    0.000000e+00
  1.261222e-01    0.000000e+00
  1.264212e-01    0.000000e+00
  1.267201e-01    0.000000e+00
  1.270190e-01    0.000000e+00
  1.273179e-01    0.000000e+00
  1.276169e-01    0.000000e+00
  1.279158e-01    0.000000e+00
  1.282147e-01    0.000000e+00
  1.285137e-01    0.000000e+00
  1.288126e-01    0.000000e+00
  1.291115e-01    0.000000e+00
  1.294105e-01    0.000000e+00
  1.297094e-01    0.000000e+00
  1.300083e-01    0.000000e+00
  1.303072e-01    0.000000e+00
  1.306062e-01    0.000000e+00
  1.309051e-01    0.000000e+00
  1.312040e-01    0.000000e+00
  1.315030e-01    0.000000e+00
  1.318019e-01    0.000000e+00
  1.321008e-01    0.000000e+00
  1.323998e-01    0.000000e+00
  1.326987e-01    0.000000e+00
  1.329976e-01    0.000000e+00
  1.332965e-01    0.000000e+00
  1.335955e-01    0.000000e+00
  1.338944e-01    0.000000e+00
  1.341933e-01    0.000000e+00
  1.344923e-01    0.000000e+00
  1.347912e-01    0.000000e+00
  1.350901e-01    0.000000e+00
  1.353891e-01    0.000000e+00
  1.356880e-01    0.000000e+00
  1.359869e-01    0.000000e+00
  1.362859e-01    0.000000e+00
  1.365848e-01    0.000000e+00
  1.368837e-01    0.000000e+00
  1.371826e-01    0.000000e+00
  1.374816e-01    0.000000e+00
  1.377805e-01    0.000000e+00
  1.380794e-01    0.000000e+00
  1.383784e-01    0.000000e+00
  1.386773e-01    0.000000e+00
  1.389762e-01    0.000000e+00
  1.392752e-01    0.000000e+00
  1.395741e-01    0.000000e+00
  1.398730e-01    0.000000e+00
  1.401719e-01    0.000000e+00
  1.404709e-01    0.000000e+00
  1.407698e-01    0.000000e+00
  1.410687e-01    0.000000e+00
  1.413677e-01    0.000000e+00
  1.416666e-01    0.000000e+00
  1.419655e-01    0.000000e+00
  1.422645e-01    0.000000e+00
  1.425634e-01    0.000000e+00
  1.428623e-01    0.000000e+00
  1.431613e-01    0.000000e+00
  1.434602e-01    0.000000e+00
  1.437591e-01    0.000000e+00
  1.440580e-01    0.000000e+00
  1.443570e-01    0.000000e+00
  1.446559e-01    0.000000e+00
  1.449548e-01    0.000000e+00
  1.452538e-01    0.000000e+00
  1.455527e-01    0.000000e+00
  1.458516e-01    0.000000e+00
  1.461506e-01    0.000000e+00
  1.464495e-01    0.000000e+00
  1.467484e-01    0.000000e+00
  1.470473e-01    0.000000e+00
  1.473463e-01    0.000000e+00
  1.476452e-01    0.000000e+00
  1.479441e-01    0.000000e+00
  1.482431e-01    0.000000e+00
  1.485420e-01    0.000000e+00
  1.488409e-01    0.000000e+00
  1.491399e-01    0.000000e+00
  1.494388e-01    0.000000e+00
  1.497377e-01    0.000000e+00
  1.500367e-01    0.000000e+00
  1.503356e-01    0.000000e+00
  1.506345e-01    0.000000e+00
  1.509334e-01    0.000000e+00
  1.512324e-01    0.000000e+00
  1.515313e-01    0.000000e+00
  1.518302e-01    0.000000e+00
  1.521292e-01    0.000000e+00
  1.524281e-01    0.000000e+00
  1.527270e-01    0.000000e+00
  1.530260e-01    0.000000e+00
  1.533249e-01    0.000000e+00
  1.536238e-01    0.000000e+00
