# == pyFAI calibration ==
# Distance Sample to Detector: 2.266 m
# PONI: 5.659e-02, 4.293e-02 m
# Rotations: 0.000000 0.000000 0.000000 rad
# 
# == Fit2d calibration ==
# Distance Sample-beamCenter: 2266.000 mm
# Center: x=249.594, y=329.012 pix
# Tilt: 0.000 deg  TiltPlanRot: 0.000 deg
# 
# Detector Pilatus 300k	 PixelSize= 1.720e-04, 1.720e-04 m
#    Detector has a mask: True 
#    Detector has a dark current: False 
#    detector has a flat field: False 
# 
# Wavelength: 1.27818e-10 m
# Mask applied: user provided
# Dark current applied: False
# Flat field applied: False
# Polarization factor: None
# Normalization factor: 1752172.6
# --> AL_F127_220301_8998a976-ecfc-4220-861c-2ed148312fab_2_r1d.csv
#        q_A^-1             I 
  4.457554e-03    2.343602e-03
  4.756484e-03    1.858833e-03
  5.055415e-03    1.314375e-03
  5.354345e-03    8.953064e-04
  5.653276e-03    6.767829e-04
  5.952206e-03    9.703164e-04
  6.251136e-03    8.895186e-04
  6.550067e-03    7.819184e-04
  6.848997e-03    6.729821e-04
  7.147927e-03    5.762557e-04
  7.446858e-03    5.028017e-04
  7.745788e-03    4.406983e-04
  8.044719e-03    3.886829e-04
  8.343649e-03    3.481400e-04
  8.642579e-03    3.116108e-04
  8.941510e-03    2.821323e-04
  9.240440e-03    2.569238e-04
  9.539371e-03    2.358391e-04
  9.838301e-03    2.181484e-04
  1.013723e-02    2.041824e-04
  1.043616e-02    1.914596e-04
  1.073509e-02    1.800478e-04
  1.103402e-02    1.708587e-04
  1.133295e-02    1.635912e-04
  1.163188e-02    1.562783e-04
  1.193081e-02    1.499647e-04
  1.222974e-02    1.452525e-04
  1.252867e-02    1.421637e-04
  1.282760e-02    1.390631e-04
  1.312654e-02    1.358237e-04
  1.342547e-02    1.332861e-04
  1.372440e-02    1.314646e-04
  1.402333e-02    1.307936e-04
  1.432226e-02    1.299714e-04
  1.462119e-02    1.295238e-04
  1.492012e-02    1.295788e-04
  1.521905e-02    1.293397e-04
  1.551798e-02    1.302931e-04
  1.581691e-02    1.323289e-04
  1.611584e-02    1.347352e-04
  1.641477e-02    1.363578e-04
  1.671370e-02    1.381471e-04
  1.701263e-02    1.401811e-04
  1.731156e-02    1.420716e-04
  1.761049e-02    1.454736e-04
  1.790942e-02    1.490724e-04
  1.820835e-02    1.526100e-04
  1.850728e-02    1.556841e-04
  1.880621e-02    1.594215e-04
  1.910514e-02    1.636592e-04
  1.940407e-02    1.677427e-04
  1.970300e-02    1.721149e-04
  2.000193e-02    1.770121e-04
  2.030086e-02    1.813024e-04
  2.059979e-02    1.852106e-04
  2.089873e-02    1.890686e-04
  2.119766e-02    1.931775e-04
  2.149659e-02    1.965874e-04
  2.179552e-02    2.007077e-04
  2.209445e-02    2.034501e-04
  2.239338e-02    2.059433e-04
  2.269231e-02    2.079368e-04
  2.299124e-02    2.091007e-04
  2.329017e-02    2.102951e-04
  2.358910e-02    2.107519e-04
  2.388803e-02    2.107080e-04
  2.418696e-02    2.092209e-04
  2.448589e-02    2.074553e-04
  2.478482e-02    2.058722e-04
  2.508375e-02    2.037801e-04
  2.538268e-02    2.001043e-04
  2.568161e-02    1.968870e-04
  2.598054e-02    1.929077e-04
  2.627947e-02    1.886784e-04
  2.657840e-02    1.841241e-04
  2.687733e-02    1.798877e-04
  2.717626e-02    1.749744e-04
  2.747519e-02    1.708520e-04
  2.777412e-02    1.657072e-04
  2.807305e-02    1.602574e-04
  2.837198e-02    1.554586e-04
  2.867092e-02    1.502122e-04
  2.896985e-02    1.448818e-04
  2.926878e-02    1.403855e-04
  2.956771e-02    1.361369e-04
  2.986664e-02    1.318844e-04
  3.016557e-02    1.274321e-04
  3.046450e-02    1.231646e-04
  3.076343e-02    1.194024e-04
  3.106236e-02    1.157879e-04
  3.136129e-02    1.120853e-04
  3.166022e-02    1.087030e-04
  3.195915e-02    1.057846e-04
  3.225808e-02    1.024614e-04
  3.255701e-02    9.929536e-05
  3.285594e-02    9.632122e-05
  3.315487e-02    9.407246e-05
  3.345380e-02    9.195123e-05
  3.375273e-02    8.912590e-05
  3.405166e-02    8.677289e-05
  3.435059e-02    8.473163e-05
  3.464952e-02    8.259642e-05
  3.494845e-02    8.019939e-05
  3.524738e-02    7.829203e-05
  3.554631e-02    7.689426e-05
  3.584524e-02    7.549334e-05
  3.614417e-02    7.400361e-05
  3.644310e-02    7.256740e-05
  3.674204e-02    7.089522e-05
  3.704097e-02    6.957782e-05
  3.733990e-02    6.847550e-05
  3.763883e-02    6.720263e-05
  3.793776e-02    6.608725e-05
  3.823669e-02    6.461906e-05
  3.853562e-02    6.393134e-05
  3.883455e-02    6.318599e-05
  3.913348e-02    6.191991e-05
  3.943241e-02    6.094874e-05
  3.973134e-02    5.996360e-05
  4.003027e-02    5.909237e-05
  4.032920e-02    5.851244e-05
  4.062813e-02    5.732340e-05
  4.092706e-02    5.642592e-05
  4.122599e-02    5.566445e-05
  4.152492e-02    5.507242e-05
  4.182385e-02    5.442557e-05
  4.212278e-02    5.365760e-05
  4.242171e-02    5.266711e-05
  4.272064e-02    5.204607e-05
  4.301957e-02    5.123191e-05
  4.331850e-02    5.072362e-05
  4.361743e-02    5.038799e-05
  4.391636e-02    4.964412e-05
  4.421529e-02    4.878434e-05
  4.451423e-02    4.796026e-05
  4.481316e-02    4.728329e-05
  4.511209e-02    4.663131e-05
  4.541102e-02    4.589170e-05
  4.570995e-02    4.523322e-05
  4.600888e-02    4.456238e-05
  4.630781e-02    4.395062e-05
  4.660674e-02    4.316992e-05
  4.690567e-02    4.244198e-05
  4.720460e-02    4.198615e-05
  4.750353e-02    4.107823e-05
  4.780246e-02    4.033709e-05
  4.810139e-02    3.978287e-05
  4.840032e-02    3.929809e-05
  4.869925e-02    3.848230e-05
  4.899818e-02    3.765037e-05
  4.929711e-02    3.678783e-05
  4.959604e-02    3.632107e-05
  4.989497e-02    3.591905e-05
  5.019390e-02    3.515490e-05
  5.049283e-02    3.436596e-05
  5.079176e-02    3.368076e-05
  5.109069e-02    3.325633e-05
  5.138962e-02    3.258689e-05
  5.168855e-02    3.191742e-05
  5.198748e-02    3.134473e-05
  5.228642e-02    3.072432e-05
  5.258535e-02    3.014155e-05
  5.288428e-02    2.930204e-05
  5.318321e-02    2.865810e-05
  5.348214e-02    2.832895e-05
  5.378107e-02    2.776042e-05
  5.408000e-02    2.709213e-05
  5.437893e-02    2.649507e-05
  5.467786e-02    2.581200e-05
  5.497679e-02    2.545487e-05
  5.527572e-02    2.502014e-05
  5.557465e-02    2.454529e-05
  5.587358e-02    2.394649e-05
  5.617251e-02    2.355509e-05
  5.647144e-02    2.316998e-05
  5.677037e-02    2.271436e-05
  5.706930e-02    2.241482e-05
  5.736823e-02    2.188088e-05
  5.766716e-02    2.131645e-05
  5.796609e-02    2.098652e-05
  5.826502e-02    2.069658e-05
  5.856395e-02    2.022244e-05
  5.886288e-02    1.977048e-05
  5.916181e-02    1.945656e-05
  5.946074e-02    1.907447e-05
  5.975967e-02    1.883099e-05
  6.005861e-02    1.860227e-05
  6.035754e-02    1.830405e-05
  6.065647e-02    1.798057e-05
  6.095540e-02    1.770169e-05
  6.125433e-02    1.736198e-05
  6.155326e-02    1.702732e-05
  6.185219e-02    1.670719e-05
  6.215112e-02    1.643661e-05
  6.245005e-02    1.622149e-05
  6.274898e-02    1.595146e-05
  6.304791e-02    1.571804e-05
  6.334684e-02    1.548571e-05
  6.364577e-02    1.523172e-05
  6.394470e-02    1.509779e-05
  6.424363e-02    1.483968e-05
  6.454256e-02    1.466949e-05
  6.484149e-02    1.449470e-05
  6.514042e-02    1.417413e-05
  6.543935e-02    1.400760e-05
  6.573828e-02    1.400611e-05
  6.603721e-02    1.386373e-05
  6.633614e-02    1.365865e-05
  6.663507e-02    1.350395e-05
  6.693400e-02    1.338131e-05
  6.723293e-02    1.316073e-05
  6.753186e-02    1.306255e-05
  6.783080e-02    1.295096e-05
  6.812973e-02    1.268512e-05
  6.842866e-02    1.248324e-05
  6.872759e-02    1.248868e-05
  6.902652e-02    1.248250e-05
  6.932545e-02    1.235461e-05
  6.962438e-02    1.223596e-05
  6.992331e-02    1.212243e-05
  7.022224e-02    1.202380e-05
  7.052117e-02    1.187446e-05
  7.082010e-02    1.175777e-05
  7.111903e-02    1.163150e-05
  7.141796e-02    1.153067e-05
  7.171689e-02    1.143346e-05
  7.201582e-02    1.143390e-05
  7.231475e-02    1.136416e-05
  7.261368e-02    1.132417e-05
  7.291261e-02    1.123940e-05
  7.321154e-02    1.108828e-05
  7.351047e-02    1.103062e-05
  7.380940e-02    1.104886e-05
  7.410833e-02    1.104382e-05
  7.440726e-02    1.097124e-05
  7.470619e-02    1.080042e-05
  7.500512e-02    1.073587e-05
  7.530405e-02    1.070446e-05
  7.560299e-02    1.072093e-05
  7.590192e-02    1.066653e-05
  7.620085e-02    1.051641e-05
  7.649978e-02    1.060408e-05
  7.679871e-02    1.067723e-05
  7.709764e-02    1.062442e-05
  7.739657e-02    1.052820e-05
  7.769550e-02    1.042782e-05
  7.799443e-02    1.047979e-05
  7.829336e-02    1.039835e-05
  7.859229e-02    1.030639e-05
  7.889122e-02    1.034389e-05
  7.919015e-02    1.035667e-05
  7.948908e-02    1.035808e-05
  7.978801e-02    1.032756e-05
  8.008694e-02    1.031553e-05
  8.038587e-02    1.031563e-05
  8.068480e-02    1.017173e-05
  8.098373e-02    1.018557e-05
  8.128266e-02    1.027105e-05
  8.158159e-02    1.023930e-05
  8.188052e-02    1.018287e-05
  8.217945e-02    1.022634e-05
  8.247838e-02    1.022091e-05
  8.277731e-02    1.018601e-05
  8.307624e-02    1.020870e-05
  8.337518e-02    1.014643e-05
  8.367411e-02    1.014967e-05
  8.397304e-02    1.020939e-05
  8.427197e-02    1.015039e-05
  8.457090e-02    1.012638e-05
  8.486983e-02    1.013722e-05
  8.516876e-02    1.017556e-05
  8.546769e-02    1.015302e-05
  8.576662e-02    1.015213e-05
  8.606555e-02    1.008373e-05
  8.636448e-02    1.014647e-05
  8.666341e-02    1.020345e-05
  8.696234e-02    1.018518e-05
  8.726127e-02    1.022822e-05
  8.756020e-02    1.010346e-05
  8.785913e-02    1.004946e-05
  8.815806e-02    1.010898e-05
  8.845699e-02    1.014758e-05
  8.875592e-02    1.004996e-05
  8.905485e-02    1.010429e-05
  8.935378e-02    1.007083e-05
  8.965271e-02    1.008366e-05
  8.995164e-02    1.015593e-05
  9.025057e-02    1.017232e-05
  9.054950e-02    1.015101e-05
  9.084843e-02    1.008081e-05
  9.114737e-02    1.009143e-05
  9.144630e-02    1.012660e-05
  9.174523e-02    1.013677e-05
  9.204416e-02    1.014557e-05
  9.234309e-02    1.023678e-05
  9.264202e-02    1.028672e-05
  9.294095e-02    1.016310e-05
  9.323988e-02    1.010206e-05
  9.353881e-02    1.014269e-05
  9.383774e-02    1.019617e-05
  9.413667e-02    1.009254e-05
  9.443560e-02    1.010761e-05
  9.473453e-02    1.015166e-05
  9.503346e-02    1.021770e-05
  9.533239e-02    1.027098e-05
  9.563132e-02    1.018551e-05
  9.593025e-02    1.014464e-05
  9.622918e-02    1.020080e-05
  9.652811e-02    1.023289e-05
  9.682704e-02    1.025556e-05
  9.712597e-02    1.028484e-05
  9.742490e-02    1.025312e-05
  9.772383e-02    1.017865e-05
  9.802276e-02    1.018227e-05
  9.832169e-02    1.016742e-05
  9.862062e-02    1.013138e-05
  9.891956e-02    1.014045e-05
  9.921849e-02    1.018698e-05
  9.951742e-02    1.017804e-05
  9.981635e-02    1.010639e-05
  1.001153e-01    1.013761e-05
  1.004142e-01    1.014418e-05
  1.007131e-01    1.016057e-05
  1.010121e-01    1.019712e-05
  1.013110e-01    1.019243e-05
  1.016099e-01    1.015561e-05
  1.019089e-01    1.008381e-05
  1.022078e-01    1.007009e-05
  1.025067e-01    1.013775e-05
  1.028057e-01    1.018287e-05
  1.031046e-01    1.023034e-05
  1.034035e-01    1.013930e-05
  1.037024e-01    1.007133e-05
  1.040014e-01    1.008042e-05
  1.043003e-01    1.006697e-05
  1.045992e-01    1.005016e-05
  1.048982e-01    1.001533e-05
  1.051971e-01    9.980501e-06
  1.054960e-01    9.931966e-06
  1.057950e-01    9.913599e-06
  1.060939e-01    9.945041e-06
  1.063928e-01    1.004554e-05
  1.066917e-01    1.000311e-05
  1.069907e-01    9.951146e-06
  1.072896e-01    1.006201e-05
  1.075885e-01    1.016412e-05
  1.078875e-01    1.008869e-05
  1.081864e-01    9.971319e-06
  1.084853e-01    1.005008e-05
  1.087843e-01    1.015719e-05
  1.090832e-01    1.016470e-05
  1.093821e-01    1.004773e-05
  1.096810e-01    9.961963e-06
  1.099800e-01    1.001242e-05
  1.102789e-01    1.002749e-05
  1.105778e-01    1.005983e-05
  1.108768e-01    1.002060e-05
  1.111757e-01    9.940529e-06
  1.114746e-01    9.941784e-06
  1.117736e-01    9.835434e-06
  1.120725e-01    9.520883e-06
  1.123714e-01    9.476477e-06
  1.126704e-01    9.492689e-06
  1.129693e-01    9.305791e-06
  1.132682e-01    9.037285e-06
  1.135671e-01    8.752133e-06
  1.138661e-01    8.643137e-06
  1.141650e-01    8.591122e-06
  1.144639e-01    8.351202e-06
  1.147629e-01    8.338313e-06
  1.150618e-01    8.462794e-06
  1.153607e-01    8.178954e-06
  1.156597e-01    8.109496e-06
  1.159586e-01    8.344926e-06
  1.162575e-01    8.363892e-06
  1.165564e-01    8.190464e-06
  1.168554e-01    8.170499e-06
  1.171543e-01    8.412097e-06
  1.174532e-01    8.360174e-06
  1.177522e-01    8.214615e-06
  1.180511e-01    8.425131e-06
  1.183500e-01    8.403484e-06
  1.186490e-01    8.329581e-06
  1.189479e-01    8.281819e-06
  1.192468e-01    8.037196e-06
  1.195458e-01    8.140394e-06
  1.198447e-01    8.223751e-06
  1.201436e-01    8.228551e-06
  1.204425e-01    8.047674e-06
  1.207415e-01    8.551263e-06
  1.210404e-01    9.711029e-06
  1.213393e-01    0.000000e+00
  1.216383e-01    0.000000e+00
  1.219372e-01    0.000000e+00
  1.222361e-01    0.000000e+00
  1.225351e-01    0.000000e+00
  1.228340e-01    0.000000e+00
  1.231329e-01    0.000000e+00
  1.234318e-01    0.000000e+00
  1.237308e-01    0.000000e+00
  1.240297e-01    0.000000e+00
  1.243286e-01    0.000000e+00
  1.246276e-01    0.000000e+00
  1.249265e-01    0.000000e+00
  1.252254e-01    0.000000e+00
  1.255244e-01    0.000000e+00
  1.258233e-01    0.000000e+00
  1.261222e-01    0.000000e+00
  1.264212e-01    0.000000e+00
  1.267201e-01    0.000000e+00
  1.270190e-01    0.000000e+00
  1.273179e-01    0.000000e+00
  1.276169e-01    0.000000e+00
  1.279158e-01    0.000000e+00
  1.282147e-01    0.000000e+00
  1.285137e-01    0.000000e+00
  1.288126e-01    0.000000e+00
  1.291115e-01    0.000000e+00
  1.294105e-01    0.000000e+00
  1.297094e-01    0.000000e+00
  1.300083e-01    0.000000e+00
  1.303072e-01    0.000000e+00
  1.306062e-01    0.000000e+00
  1.309051e-01    0.000000e+00
  1.312040e-01    0.000000e+00
  1.315030e-01    0.000000e+00
  1.318019e-01    0.000000e+00
  1.321008e-01    0.000000e+00
  1.323998e-01    0.000000e+00
  1.326987e-01    0.000000e+00
  1.329976e-01    0.000000e+00
  1.332965e-01    0.000000e+00
  1.335955e-01    0.000000e+00
  1.338944e-01    0.000000e+00
  1.341933e-01    0.000000e+00
  1.344923e-01    0.000000e+00
  1.347912e-01    0.000000e+00
  1.350901e-01    0.000000e+00
  1.353891e-01    0.000000e+00
  1.356880e-01    0.000000e+00
  1.359869e-01    0.000000e+00
  1.362859e-01    0.000000e+00
  1.365848e-01    0.000000e+00
  1.368837e-01    0.000000e+00
  1.371826e-01    0.000000e+00
  1.374816e-01    0.000000e+00
  1.377805e-01    0.000000e+00
  1.380794e-01    0.000000e+00
  1.383784e-01    0.000000e+00
  1.386773e-01    0.000000e+00
  1.389762e-01    0.000000e+00
  1.392752e-01    0.000000e+00
  1.395741e-01    0.000000e+00
  1.398730e-01    0.000000e+00
  1.401719e-01    0.000000e+00
  1.404709e-01    0.000000e+00
  1.407698e-01    0.000000e+00
  1.410687e-01    0.000000e+00
  1.413677e-01    0.000000e+00
  1.416666e-01    0.000000e+00
  1.419655e-01    0.000000e+00
  1.422645e-01    0.000000e+00
  1.425634e-01    0.000000e+00
  1.428623e-01    0.000000e+00
  1.431613e-01    0.000000e+00
  1.434602e-01    0.000000e+00
  1.437591e-01    0.000000e+00
  1.440580e-01    0.000000e+00
  1.443570e-01    0.000000e+00
  1.446559e-01    0.000000e+00
  1.449548e-01    0.000000e+00
  1.452538e-01    0.000000e+00
  1.455527e-01    0.000000e+00
  1.458516e-01    0.000000e+00
  1.461506e-01    0.000000e+00
  1.464495e-01    0.000000e+00
  1.467484e-01    0.000000e+00
  1.470473e-01    0.000000e+00
  1.473463e-01    0.000000e+00
  1.476452e-01    0.000000e+00
  1.479441e-01    0.000000e+00
  1.482431e-01    0.000000e+00
  1.485420e-01    0.000000e+00
  1.488409e-01    0.000000e+00
  1.491399e-01    0.000000e+00
  1.494388e-01    0.000000e+00
  1.497377e-01    0.000000e+00
  1.500367e-01    0.000000e+00
  1.503356e-01    0.000000e+00
  1.506345e-01    0.000000e+00
  1.509334e-01    0.000000e+00
  1.512324e-01    0.000000e+00
  1.515313e-01    0.000000e+00
  1.518302e-01    0.000000e+00
  1.521292e-01    0.000000e+00
  1.524281e-01    0.000000e+00
  1.527270e-01    0.000000e+00
  1.530260e-01    0.000000e+00
  1.533249e-01    0.000000e+00
  1.536238e-01    0.000000e+00
