# == pyFAI calibration ==
# Distance Sample to Detector: 2.266 m
# PONI: 5.659e-02, 4.293e-02 m
# Rotations: 0.000000 0.000000 0.000000 rad
# 
# == Fit2d calibration ==
# Distance Sample-beamCenter: 2266.000 mm
# Center: x=249.594, y=329.012 pix
# Tilt: 0.000 deg  TiltPlanRot: 0.000 deg
# 
# Detector Pilatus 300k	 PixelSize= 1.720e-04, 1.720e-04 m
#    Detector has a mask: True 
#    Detector has a dark current: False 
#    detector has a flat field: False 
# 
# Wavelength: 1.27818e-10 m
# Mask applied: user provided
# Dark current applied: False
# Flat field applied: False
# Polarization factor: None
# Normalization factor: 16592196.200000003
# --> AL_F127_220228_d2ad7edb-a1f9-4728-af4b-00d05d936f49_1_r1d.csv
#        q_A^-1             I 
  4.457554e-03    1.845732e-03
  4.756484e-03    1.437068e-03
  5.055415e-03    1.017437e-03
  5.354345e-03    7.102005e-04
  5.653276e-03    5.463453e-04
  5.952206e-03    8.945030e-04
  6.251136e-03    8.171487e-04
  6.550067e-03    7.084428e-04
  6.848997e-03    5.993177e-04
  7.147927e-03    5.056329e-04
  7.446858e-03    4.310403e-04
  7.745788e-03    3.694600e-04
  8.044719e-03    3.185352e-04
  8.343649e-03    2.776293e-04
  8.642579e-03    2.422136e-04
  8.941510e-03    2.126084e-04
  9.240440e-03    1.886429e-04
  9.539371e-03    1.676716e-04
  9.838301e-03    1.493804e-04
  1.013723e-02    1.338294e-04
  1.043616e-02    1.204354e-04
  1.073509e-02    1.084237e-04
  1.103402e-02    9.801058e-05
  1.133295e-02    8.901613e-05
  1.163188e-02    8.114886e-05
  1.193081e-02    7.421948e-05
  1.222974e-02    6.814106e-05
  1.252867e-02    6.278809e-05
  1.282760e-02    5.784941e-05
  1.312654e-02    5.343235e-05
  1.342547e-02    4.944314e-05
  1.372440e-02    4.596567e-05
  1.402333e-02    4.269310e-05
  1.432226e-02    3.977422e-05
  1.462119e-02    3.700464e-05
  1.492012e-02    3.468994e-05
  1.521905e-02    3.262881e-05
  1.551798e-02    3.073677e-05
  1.581691e-02    2.891625e-05
  1.611584e-02    2.727001e-05
  1.641477e-02    2.570302e-05
  1.671370e-02    2.429084e-05
  1.701263e-02    2.299478e-05
  1.731156e-02    2.189329e-05
  1.761049e-02    2.087754e-05
  1.790942e-02    1.978398e-05
  1.820835e-02    1.886941e-05
  1.850728e-02    1.801476e-05
  1.880621e-02    1.729321e-05
  1.910514e-02    1.670195e-05
  1.940407e-02    1.598021e-05
  1.970300e-02    1.533082e-05
  2.000193e-02    1.482621e-05
  2.030086e-02    1.423595e-05
  2.059979e-02    1.370573e-05
  2.089873e-02    1.329741e-05
  2.119766e-02    1.280774e-05
  2.149659e-02    1.243786e-05
  2.179552e-02    1.214557e-05
  2.209445e-02    1.175971e-05
  2.239338e-02    1.136878e-05
  2.269231e-02    1.102901e-05
  2.299124e-02    1.076039e-05
  2.329017e-02    1.051931e-05
  2.358910e-02    1.029046e-05
  2.388803e-02    1.005164e-05
  2.418696e-02    9.782971e-06
  2.448589e-02    9.612630e-06
  2.478482e-02    9.390033e-06
  2.508375e-02    9.185056e-06
  2.538268e-02    9.052544e-06
  2.568161e-02    8.861532e-06
  2.598054e-02    8.689995e-06
  2.627947e-02    8.561056e-06
  2.657840e-02    8.464391e-06
  2.687733e-02    8.343283e-06
  2.717626e-02    8.236464e-06
  2.747519e-02    8.115626e-06
  2.777412e-02    7.974396e-06
  2.807305e-02    7.886945e-06
  2.837198e-02    7.757092e-06
  2.867092e-02    7.626952e-06
  2.896985e-02    7.530436e-06
  2.926878e-02    7.466847e-06
  2.956771e-02    7.404346e-06
  2.986664e-02    7.337559e-06
  3.016557e-02    7.244994e-06
  3.046450e-02    7.163470e-06
  3.076343e-02    7.083315e-06
  3.106236e-02    7.027676e-06
  3.136129e-02    6.951148e-06
  3.166022e-02    6.886105e-06
  3.195915e-02    6.861967e-06
  3.225808e-02    6.751750e-06
  3.255701e-02    6.692675e-06
  3.285594e-02    6.669252e-06
  3.315487e-02    6.602835e-06
  3.345380e-02    6.546767e-06
  3.375273e-02    6.512619e-06
  3.405166e-02    6.453964e-06
  3.435059e-02    6.361008e-06
  3.464952e-02    6.304704e-06
  3.494845e-02    6.270509e-06
  3.524738e-02    6.197156e-06
  3.554631e-02    6.149666e-06
  3.584524e-02    6.092828e-06
  3.614417e-02    6.049737e-06
  3.644310e-02    6.012862e-06
  3.674204e-02    5.993491e-06
  3.704097e-02    5.969129e-06
  3.733990e-02    5.906705e-06
  3.763883e-02    5.857306e-06
  3.793776e-02    5.824525e-06
  3.823669e-02    5.788386e-06
  3.853562e-02    5.773660e-06
  3.883455e-02    5.724346e-06
  3.913348e-02    5.721890e-06
  3.943241e-02    5.675826e-06
  3.973134e-02    5.651954e-06
  4.003027e-02    5.625414e-06
  4.032920e-02    5.564020e-06
  4.062813e-02    5.523561e-06
  4.092706e-02    5.482642e-06
  4.122599e-02    5.461596e-06
  4.152492e-02    5.453225e-06
  4.182385e-02    5.445494e-06
  4.212278e-02    5.474695e-06
  4.242171e-02    5.455769e-06
  4.272064e-02    5.407289e-06
  4.301957e-02    5.376855e-06
  4.331850e-02    5.363390e-06
  4.361743e-02    5.357144e-06
  4.391636e-02    5.346166e-06
  4.421529e-02    5.347634e-06
  4.451423e-02    5.346632e-06
  4.481316e-02    5.336181e-06
  4.511209e-02    5.323851e-06
  4.541102e-02    5.325832e-06
  4.570995e-02    5.301146e-06
  4.600888e-02    5.282783e-06
  4.630781e-02    5.296708e-06
  4.660674e-02    5.303771e-06
  4.690567e-02    5.301247e-06
  4.720460e-02    5.300337e-06
  4.750353e-02    5.281339e-06
  4.780246e-02    5.268727e-06
  4.810139e-02    5.265697e-06
  4.840032e-02    5.273564e-06
  4.869925e-02    5.252056e-06
  4.899818e-02    5.235654e-06
  4.929711e-02    5.239871e-06
  4.959604e-02    5.237793e-06
  4.989497e-02    5.254463e-06
  5.019390e-02    5.298504e-06
  5.049283e-02    5.286118e-06
  5.079176e-02    5.241026e-06
  5.109069e-02    5.253467e-06
  5.138962e-02    5.297772e-06
  5.168855e-02    5.411019e-06
  5.198748e-02    5.509879e-06
  5.228642e-02    5.438708e-06
  5.258535e-02    5.287698e-06
  5.288428e-02    5.239704e-06
  5.318321e-02    5.212310e-06
  5.348214e-02    5.224576e-06
  5.378107e-02    5.221593e-06
  5.408000e-02    5.222664e-06
  5.437893e-02    5.225283e-06
  5.467786e-02    5.251484e-06
  5.497679e-02    5.234893e-06
  5.527572e-02    5.252515e-06
  5.557465e-02    5.277944e-06
  5.587358e-02    5.261947e-06
  5.617251e-02    5.263953e-06
  5.647144e-02    5.245170e-06
  5.677037e-02    5.234952e-06
  5.706930e-02    5.260519e-06
  5.736823e-02    5.282281e-06
  5.766716e-02    5.295876e-06
  5.796609e-02    5.276650e-06
  5.826502e-02    5.256626e-06
  5.856395e-02    5.260166e-06
  5.886288e-02    5.269693e-06
  5.916181e-02    5.304146e-06
  5.946074e-02    5.336255e-06
  5.975967e-02    5.329533e-06
  6.005861e-02    5.317382e-06
  6.035754e-02    5.327275e-06
  6.065647e-02    5.324023e-06
  6.095540e-02    5.373941e-06
  6.125433e-02    5.465688e-06
  6.155326e-02    5.489408e-06
  6.185219e-02    5.440018e-06
  6.215112e-02    5.408601e-06
  6.245005e-02    5.396335e-06
  6.274898e-02    5.394848e-06
  6.304791e-02    5.373615e-06
  6.334684e-02    5.382423e-06
  6.364577e-02    5.398015e-06
  6.394470e-02    5.417106e-06
  6.424363e-02    5.418717e-06
  6.454256e-02    5.421909e-06
  6.484149e-02    5.442393e-06
  6.514042e-02    5.448599e-06
  6.543935e-02    5.433061e-06
  6.573828e-02    5.437508e-06
  6.603721e-02    5.459374e-06
  6.633614e-02    5.465537e-06
  6.663507e-02    5.498476e-06
  6.693400e-02    5.521547e-06
  6.723293e-02    5.498167e-06
  6.753186e-02    5.498238e-06
  6.783080e-02    5.493839e-06
  6.812973e-02    5.524282e-06
  6.842866e-02    5.536406e-06
  6.872759e-02    5.563570e-06
  6.902652e-02    5.580754e-06
  6.932545e-02    5.562964e-06
  6.962438e-02    5.562292e-06
  6.992331e-02    5.565676e-06
  7.022224e-02    5.552750e-06
  7.052117e-02    5.586551e-06
  7.082010e-02    5.600474e-06
  7.111903e-02    5.614648e-06
  7.141796e-02    5.613095e-06
  7.171689e-02    5.611148e-06
  7.201582e-02    5.632187e-06
  7.231475e-02    5.631553e-06
  7.261368e-02    5.649058e-06
  7.291261e-02    5.653444e-06
  7.321154e-02    5.631282e-06
  7.351047e-02    5.659402e-06
  7.380940e-02    5.648348e-06
  7.410833e-02    5.644509e-06
  7.440726e-02    5.674919e-06
  7.470619e-02    5.661730e-06
  7.500512e-02    5.675904e-06
  7.530405e-02    5.682211e-06
  7.560299e-02    5.659915e-06
  7.590192e-02    5.668045e-06
  7.620085e-02    5.630767e-06
  7.649978e-02    5.640305e-06
  7.679871e-02    5.675673e-06
  7.709764e-02    5.663857e-06
  7.739657e-02    5.665246e-06
  7.769550e-02    5.665399e-06
  7.799443e-02    5.666813e-06
  7.829336e-02    5.681082e-06
  7.859229e-02    5.670184e-06
  7.889122e-02    5.647797e-06
  7.919015e-02    5.642815e-06
  7.948908e-02    5.642918e-06
  7.978801e-02    5.633231e-06
  8.008694e-02    5.625509e-06
  8.038587e-02    5.617663e-06
  8.068480e-02    5.636497e-06
  8.098373e-02    5.627621e-06
  8.128266e-02    5.605442e-06
  8.158159e-02    5.611907e-06
  8.188052e-02    5.618190e-06
  8.217945e-02    5.601665e-06
  8.247838e-02    5.590318e-06
  8.277731e-02    5.594517e-06
  8.307624e-02    5.601364e-06
  8.337518e-02    5.598798e-06
  8.367411e-02    5.581002e-06
  8.397304e-02    5.588274e-06
  8.427197e-02    5.585413e-06
  8.457090e-02    5.550477e-06
  8.486983e-02    5.538938e-06
  8.516876e-02    5.535540e-06
  8.546769e-02    5.537948e-06
  8.576662e-02    5.533569e-06
  8.606555e-02    5.505246e-06
  8.636448e-02    5.514347e-06
  8.666341e-02    5.539652e-06
  8.696234e-02    5.508890e-06
  8.726127e-02    5.472662e-06
  8.756020e-02    5.482215e-06
  8.785913e-02    5.478256e-06
  8.815806e-02    5.463524e-06
  8.845699e-02    5.445189e-06
  8.875592e-02    5.440015e-06
  8.905485e-02    5.432833e-06
  8.935378e-02    5.425119e-06
  8.965271e-02    5.437868e-06
  8.995164e-02    5.438702e-06
  9.025057e-02    5.408347e-06
  9.054950e-02    5.379573e-06
  9.084843e-02    5.374195e-06
  9.114737e-02    5.352687e-06
  9.144630e-02    5.343543e-06
  9.174523e-02    5.355349e-06
  9.204416e-02    5.336109e-06
  9.234309e-02    5.319607e-06
  9.264202e-02    5.304971e-06
  9.294095e-02    5.307355e-06
  9.323988e-02    5.311606e-06
  9.353881e-02    5.300209e-06
  9.383774e-02    5.270681e-06
  9.413667e-02    5.271861e-06
  9.443560e-02    5.276444e-06
  9.473453e-02    5.252560e-06
  9.503346e-02    5.260908e-06
  9.533239e-02    5.251337e-06
  9.563132e-02    5.240044e-06
  9.593025e-02    5.235208e-06
  9.622918e-02    5.228022e-06
  9.652811e-02    5.240930e-06
  9.682704e-02    5.253443e-06
  9.712597e-02    5.255696e-06
  9.742490e-02    5.248149e-06
  9.772383e-02    5.216129e-06
  9.802276e-02    5.175872e-06
  9.832169e-02    5.176473e-06
  9.862062e-02    5.173583e-06
  9.891956e-02    5.133414e-06
  9.921849e-02    5.103975e-06
  9.951742e-02    5.089820e-06
  9.981635e-02    5.084175e-06
  1.001153e-01    5.086157e-06
  1.004142e-01    5.093676e-06
  1.007131e-01    5.076399e-06
  1.010121e-01    5.047164e-06
  1.013110e-01    5.033863e-06
  1.016099e-01    5.030056e-06
  1.019089e-01    5.037666e-06
  1.022078e-01    5.017430e-06
  1.025067e-01    4.996657e-06
  1.028057e-01    4.984059e-06
  1.031046e-01    4.970550e-06
  1.034035e-01    4.967602e-06
  1.037024e-01    4.971961e-06
  1.040014e-01    4.926440e-06
  1.043003e-01    4.936771e-06
  1.045992e-01    4.938149e-06
  1.048982e-01    4.934379e-06
  1.051971e-01    4.925193e-06
  1.054960e-01    4.895046e-06
  1.057950e-01    4.896523e-06
  1.060939e-01    4.891094e-06
  1.063928e-01    4.881857e-06
  1.066917e-01    4.865660e-06
  1.069907e-01    4.850102e-06
  1.072896e-01    4.854992e-06
  1.075885e-01    4.855865e-06
  1.078875e-01    4.863879e-06
  1.081864e-01    4.846357e-06
  1.084853e-01    4.832817e-06
  1.087843e-01    4.807433e-06
  1.090832e-01    4.808573e-06
  1.093821e-01    4.790500e-06
  1.096810e-01    4.763973e-06
  1.099800e-01    4.744019e-06
  1.102789e-01    4.737553e-06
  1.105778e-01    4.724120e-06
  1.108768e-01    4.718349e-06
  1.111757e-01    4.709645e-06
  1.114746e-01    4.684120e-06
  1.117736e-01    4.680362e-06
  1.120725e-01    4.682701e-06
  1.123714e-01    4.683669e-06
  1.126704e-01    4.663325e-06
  1.129693e-01    4.644436e-06
  1.132682e-01    4.617675e-06
  1.135671e-01    4.634667e-06
  1.138661e-01    4.639186e-06
  1.141650e-01    4.611963e-06
  1.144639e-01    4.610839e-06
  1.147629e-01    4.606200e-06
  1.150618e-01    4.588397e-06
  1.153607e-01    4.589574e-06
  1.156597e-01    4.590706e-06
  1.159586e-01    4.562748e-06
  1.162575e-01    4.542100e-06
  1.165564e-01    4.555994e-06
  1.168554e-01    4.557501e-06
  1.171543e-01    4.541428e-06
  1.174532e-01    4.540127e-06
  1.177522e-01    4.552327e-06
  1.180511e-01    4.562683e-06
  1.183500e-01    4.540987e-06
  1.186490e-01    4.478638e-06
  1.189479e-01    4.475203e-06
  1.192468e-01    4.497213e-06
  1.195458e-01    4.573416e-06
  1.198447e-01    4.546662e-06
  1.201436e-01    4.460712e-06
  1.204425e-01    4.378533e-06
  1.207415e-01    4.359100e-06
  1.210404e-01    3.981377e-06
  1.213393e-01    0.000000e+00
  1.216383e-01    0.000000e+00
  1.219372e-01    0.000000e+00
  1.222361e-01    0.000000e+00
  1.225351e-01    0.000000e+00
  1.228340e-01    0.000000e+00
  1.231329e-01    0.000000e+00
  1.234318e-01    0.000000e+00
  1.237308e-01    0.000000e+00
  1.240297e-01    0.000000e+00
  1.243286e-01    0.000000e+00
  1.246276e-01    0.000000e+00
  1.249265e-01    0.000000e+00
  1.252254e-01    0.000000e+00
  1.255244e-01    0.000000e+00
  1.258233e-01    0.000000e+00
  1.261222e-01    0.000000e+00
  1.264212e-01    0.000000e+00
  1.267201e-01    0.000000e+00
  1.270190e-01    0.000000e+00
  1.273179e-01    0.000000e+00
  1.276169e-01    0.000000e+00
  1.279158e-01    0.000000e+00
  1.282147e-01    0.000000e+00
  1.285137e-01    0.000000e+00
  1.288126e-01    0.000000e+00
  1.291115e-01    0.000000e+00
  1.294105e-01    0.000000e+00
  1.297094e-01    0.000000e+00
  1.300083e-01    0.000000e+00
  1.303072e-01    0.000000e+00
  1.306062e-01    0.000000e+00
  1.309051e-01    0.000000e+00
  1.312040e-01    0.000000e+00
  1.315030e-01    0.000000e+00
  1.318019e-01    0.000000e+00
  1.321008e-01    0.000000e+00
  1.323998e-01    0.000000e+00
  1.326987e-01    0.000000e+00
  1.329976e-01    0.000000e+00
  1.332965e-01    0.000000e+00
  1.335955e-01    0.000000e+00
  1.338944e-01    0.000000e+00
  1.341933e-01    0.000000e+00
  1.344923e-01    0.000000e+00
  1.347912e-01    0.000000e+00
  1.350901e-01    0.000000e+00
  1.353891e-01    0.000000e+00
  1.356880e-01    0.000000e+00
  1.359869e-01    0.000000e+00
  1.362859e-01    0.000000e+00
  1.365848e-01    0.000000e+00
  1.368837e-01    0.000000e+00
  1.371826e-01    0.000000e+00
  1.374816e-01    0.000000e+00
  1.377805e-01    0.000000e+00
  1.380794e-01    0.000000e+00
  1.383784e-01    0.000000e+00
  1.386773e-01    0.000000e+00
  1.389762e-01    0.000000e+00
  1.392752e-01    0.000000e+00
  1.395741e-01    0.000000e+00
  1.398730e-01    0.000000e+00
  1.401719e-01    0.000000e+00
  1.404709e-01    0.000000e+00
  1.407698e-01    0.000000e+00
  1.410687e-01    0.000000e+00
  1.413677e-01    0.000000e+00
  1.416666e-01    0.000000e+00
  1.419655e-01    0.000000e+00
  1.422645e-01    0.000000e+00
  1.425634e-01    0.000000e+00
  1.428623e-01    0.000000e+00
  1.431613e-01    0.000000e+00
  1.434602e-01    0.000000e+00
  1.437591e-01    0.000000e+00
  1.440580e-01    0.000000e+00
  1.443570e-01    0.000000e+00
  1.446559e-01    0.000000e+00
  1.449548e-01    0.000000e+00
  1.452538e-01    0.000000e+00
  1.455527e-01    0.000000e+00
  1.458516e-01    0.000000e+00
  1.461506e-01    0.000000e+00
  1.464495e-01    0.000000e+00
  1.467484e-01    0.000000e+00
  1.470473e-01    0.000000e+00
  1.473463e-01    0.000000e+00
  1.476452e-01    0.000000e+00
  1.479441e-01    0.000000e+00
  1.482431e-01    0.000000e+00
  1.485420e-01    0.000000e+00
  1.488409e-01    0.000000e+00
  1.491399e-01    0.000000e+00
  1.494388e-01    0.000000e+00
  1.497377e-01    0.000000e+00
  1.500367e-01    0.000000e+00
  1.503356e-01    0.000000e+00
  1.506345e-01    0.000000e+00
  1.509334e-01    0.000000e+00
  1.512324e-01    0.000000e+00
  1.515313e-01    0.000000e+00
  1.518302e-01    0.000000e+00
  1.521292e-01    0.000000e+00
  1.524281e-01    0.000000e+00
  1.527270e-01    0.000000e+00
  1.530260e-01    0.000000e+00
  1.533249e-01    0.000000e+00
  1.536238e-01    0.000000e+00
