# == pyFAI calibration ==
# Distance Sample to Detector: 2.266 m
# PONI: 5.659e-02, 4.293e-02 m
# Rotations: 0.000000 0.000000 0.000000 rad
# 
# == Fit2d calibration ==
# Distance Sample-beamCenter: 2266.000 mm
# Center: x=249.594, y=329.012 pix
# Tilt: 0.000 deg  TiltPlanRot: 0.000 deg
# 
# Detector Pilatus 300k	 PixelSize= 1.720e-04, 1.720e-04 m
#    Detector has a mask: True 
#    Detector has a dark current: False 
#    detector has a flat field: False 
# 
# Wavelength: 1.27818e-10 m
# Mask applied: user provided
# Dark current applied: False
# Flat field applied: False
# Polarization factor: None
# Normalization factor: 5431439.600000001
# --> AL_F127_220226_cae0bc7d-6808-4317-9190-c459fa1f3c0b_2_r1d.csv
#        q_A^-1             I 
  4.457554e-03    2.036347e-03
  4.756484e-03    1.556983e-03
  5.055415e-03    1.085228e-03
  5.354345e-03    7.428143e-04
  5.653276e-03    5.523411e-04
  5.952206e-03    8.501893e-04
  6.251136e-03    7.748141e-04
  6.550067e-03    6.766430e-04
  6.848997e-03    5.776303e-04
  7.147927e-03    4.892935e-04
  7.446858e-03    4.175505e-04
  7.745788e-03    3.580151e-04
  8.044719e-03    3.079703e-04
  8.343649e-03    2.679385e-04
  8.642579e-03    2.344109e-04
  8.941510e-03    2.053102e-04
  9.240440e-03    1.820901e-04
  9.539371e-03    1.623427e-04
  9.838301e-03    1.446618e-04
  1.013723e-02    1.293250e-04
  1.043616e-02    1.158864e-04
  1.073509e-02    1.036735e-04
  1.103402e-02    9.380308e-05
  1.133295e-02    8.503409e-05
  1.163188e-02    7.753137e-05
  1.193081e-02    7.080191e-05
  1.222974e-02    6.498696e-05
  1.252867e-02    5.990285e-05
  1.282760e-02    5.497991e-05
  1.312654e-02    5.078079e-05
  1.342547e-02    4.709862e-05
  1.372440e-02    4.383472e-05
  1.402333e-02    4.062197e-05
  1.432226e-02    3.779132e-05
  1.462119e-02    3.547216e-05
  1.492012e-02    3.316157e-05
  1.521905e-02    3.111790e-05
  1.551798e-02    2.921197e-05
  1.581691e-02    2.757500e-05
  1.611584e-02    2.614632e-05
  1.641477e-02    2.469602e-05
  1.671370e-02    2.347848e-05
  1.701263e-02    2.233505e-05
  1.731156e-02    2.136985e-05
  1.761049e-02    2.039541e-05
  1.790942e-02    1.980860e-05
  1.820835e-02    1.913386e-05
  1.850728e-02    1.837819e-05
  1.880621e-02    1.776018e-05
  1.910514e-02    1.724858e-05
  1.940407e-02    1.667265e-05
  1.970300e-02    1.636238e-05
  2.000193e-02    1.604759e-05
  2.030086e-02    1.570117e-05
  2.059979e-02    1.544215e-05
  2.089873e-02    1.520784e-05
  2.119766e-02    1.505513e-05
  2.149659e-02    1.500641e-05
  2.179552e-02    1.497806e-05
  2.209445e-02    1.485572e-05
  2.239338e-02    1.473395e-05
  2.269231e-02    1.465044e-05
  2.299124e-02    1.478125e-05
  2.329017e-02    1.482778e-05
  2.358910e-02    1.475506e-05
  2.388803e-02    1.469269e-05
  2.418696e-02    1.464977e-05
  2.448589e-02    1.460506e-05
  2.478482e-02    1.457512e-05
  2.508375e-02    1.444129e-05
  2.538268e-02    1.431976e-05
  2.568161e-02    1.412589e-05
  2.598054e-02    1.395767e-05
  2.627947e-02    1.377821e-05
  2.657840e-02    1.361042e-05
  2.687733e-02    1.339068e-05
  2.717626e-02    1.314832e-05
  2.747519e-02    1.277845e-05
  2.777412e-02    1.252006e-05
  2.807305e-02    1.238320e-05
  2.837198e-02    1.212355e-05
  2.867092e-02    1.181926e-05
  2.896985e-02    1.151491e-05
  2.926878e-02    1.130327e-05
  2.956771e-02    1.106930e-05
  2.986664e-02    1.085737e-05
  3.016557e-02    1.064385e-05
  3.046450e-02    1.042859e-05
  3.076343e-02    1.019325e-05
  3.106236e-02    9.942111e-06
  3.136129e-02    9.782893e-06
  3.166022e-02    9.636102e-06
  3.195915e-02    9.498522e-06
  3.225808e-02    9.253142e-06
  3.255701e-02    9.080824e-06
  3.285594e-02    8.911356e-06
  3.315487e-02    8.838821e-06
  3.345380e-02    8.690355e-06
  3.375273e-02    8.523186e-06
  3.405166e-02    8.413078e-06
  3.435059e-02    8.360740e-06
  3.464952e-02    8.259580e-06
  3.494845e-02    8.078670e-06
  3.524738e-02    7.971003e-06
  3.554631e-02    7.955035e-06
  3.584524e-02    7.850289e-06
  3.614417e-02    7.776225e-06
  3.644310e-02    7.724078e-06
  3.674204e-02    7.632272e-06
  3.704097e-02    7.524564e-06
  3.733990e-02    7.418192e-06
  3.763883e-02    7.373698e-06
  3.793776e-02    7.376912e-06
  3.823669e-02    7.325415e-06
  3.853562e-02    7.276033e-06
  3.883455e-02    7.236062e-06
  3.913348e-02    7.175035e-06
  3.943241e-02    7.117753e-06
  3.973134e-02    7.065564e-06
  4.003027e-02    7.000771e-06
  4.032920e-02    6.984566e-06
  4.062813e-02    6.912441e-06
  4.092706e-02    6.877270e-06
  4.122599e-02    6.918084e-06
  4.152492e-02    6.899937e-06
  4.182385e-02    6.884396e-06
  4.212278e-02    6.838426e-06
  4.242171e-02    6.840501e-06
  4.272064e-02    6.825717e-06
  4.301957e-02    6.781121e-06
  4.331850e-02    6.740566e-06
  4.361743e-02    6.672890e-06
  4.391636e-02    6.608930e-06
  4.421529e-02    6.642958e-06
  4.451423e-02    6.680587e-06
  4.481316e-02    6.644201e-06
  4.511209e-02    6.575785e-06
  4.541102e-02    6.542560e-06
  4.570995e-02    6.561983e-06
  4.600888e-02    6.538245e-06
  4.630781e-02    6.465385e-06
  4.660674e-02    6.443123e-06
  4.690567e-02    6.423473e-06
  4.720460e-02    6.391503e-06
  4.750353e-02    6.416593e-06
  4.780246e-02    6.330423e-06
  4.810139e-02    6.297095e-06
  4.840032e-02    6.272865e-06
  4.869925e-02    6.268771e-06
  4.899818e-02    6.253835e-06
  4.929711e-02    6.188294e-06
  4.959604e-02    6.124184e-06
  4.989497e-02    6.103754e-06
  5.019390e-02    6.101382e-06
  5.049283e-02    6.053598e-06
  5.079176e-02    5.984112e-06
  5.109069e-02    5.974248e-06
  5.138962e-02    6.019303e-06
  5.168855e-02    6.074848e-06
  5.198748e-02    6.174308e-06
  5.228642e-02    6.140720e-06
  5.258535e-02    5.900936e-06
  5.288428e-02    5.740912e-06
  5.318321e-02    5.702710e-06
  5.348214e-02    5.646383e-06
  5.378107e-02    5.624208e-06
  5.408000e-02    5.635422e-06
  5.437893e-02    5.612451e-06
  5.467786e-02    5.588021e-06
  5.497679e-02    5.516921e-06
  5.527572e-02    5.474383e-06
  5.557465e-02    5.434299e-06
  5.587358e-02    5.383580e-06
  5.617251e-02    5.362445e-06
  5.647144e-02    5.368243e-06
  5.677037e-02    5.358127e-06
  5.706930e-02    5.395944e-06
  5.736823e-02    5.332984e-06
  5.766716e-02    5.325172e-06
  5.796609e-02    5.334442e-06
  5.826502e-02    5.248233e-06
  5.856395e-02    5.232231e-06
  5.886288e-02    5.227625e-06
  5.916181e-02    5.215984e-06
  5.946074e-02    5.177466e-06
  5.975967e-02    5.210115e-06
  6.005861e-02    5.197064e-06
  6.035754e-02    5.198466e-06
  6.065647e-02    5.216000e-06
  6.095540e-02    5.243243e-06
  6.125433e-02    5.284362e-06
  6.155326e-02    5.294281e-06
  6.185219e-02    5.186833e-06
  6.215112e-02    5.168816e-06
  6.245005e-02    5.190600e-06
  6.274898e-02    5.091620e-06
  6.304791e-02    5.032286e-06
  6.334684e-02    5.064149e-06
  6.364577e-02    5.087525e-06
  6.394470e-02    5.086541e-06
  6.424363e-02    5.093420e-06
  6.454256e-02    5.089278e-06
  6.484149e-02    5.080589e-06
  6.514042e-02    5.081370e-06
  6.543935e-02    5.058961e-06
  6.573828e-02    5.047927e-06
  6.603721e-02    5.042233e-06
  6.633614e-02    5.041568e-06
  6.663507e-02    5.073483e-06
  6.693400e-02    5.062403e-06
  6.723293e-02    5.055016e-06
  6.753186e-02    5.060984e-06
  6.783080e-02    5.073233e-06
  6.812973e-02    5.058556e-06
  6.842866e-02    5.030319e-06
  6.872759e-02    5.049338e-06
  6.902652e-02    5.044184e-06
  6.932545e-02    5.060882e-06
  6.962438e-02    5.074173e-06
  6.992331e-02    5.083708e-06
  7.022224e-02    5.054001e-06
  7.052117e-02    5.038668e-06
  7.082010e-02    5.045348e-06
  7.111903e-02    5.073437e-06
  7.141796e-02    5.084983e-06
  7.171689e-02    5.085367e-06
  7.201582e-02    5.115080e-06
  7.231475e-02    5.130427e-06
  7.261368e-02    5.109762e-06
  7.291261e-02    5.112016e-06
  7.321154e-02    5.094892e-06
  7.351047e-02    5.112992e-06
  7.380940e-02    5.066366e-06
  7.410833e-02    5.053164e-06
  7.440726e-02    5.074485e-06
  7.470619e-02    5.054799e-06
  7.500512e-02    5.077074e-06
  7.530405e-02    5.068292e-06
  7.560299e-02    5.080743e-06
  7.590192e-02    5.045317e-06
  7.620085e-02    5.049013e-06
  7.649978e-02    5.063663e-06
  7.679871e-02    5.055796e-06
  7.709764e-02    5.007925e-06
  7.739657e-02    5.002790e-06
  7.769550e-02    4.994681e-06
  7.799443e-02    5.011269e-06
  7.829336e-02    5.031096e-06
  7.859229e-02    5.023788e-06
  7.889122e-02    5.024706e-06
  7.919015e-02    5.016677e-06
  7.948908e-02    5.014177e-06
  7.978801e-02    5.020996e-06
  8.008694e-02    4.997010e-06
  8.038587e-02    5.006830e-06
  8.068480e-02    5.013044e-06
  8.098373e-02    4.978037e-06
  8.128266e-02    4.968414e-06
  8.158159e-02    4.980330e-06
  8.188052e-02    4.974188e-06
  8.217945e-02    4.942471e-06
  8.247838e-02    4.940017e-06
  8.277731e-02    4.972846e-06
  8.307624e-02    4.959234e-06
  8.337518e-02    4.962066e-06
  8.367411e-02    4.946689e-06
  8.397304e-02    4.960958e-06
  8.427197e-02    4.961646e-06
  8.457090e-02    4.931913e-06
  8.486983e-02    4.889920e-06
  8.516876e-02    4.922109e-06
  8.546769e-02    4.916384e-06
  8.576662e-02    4.900580e-06
  8.606555e-02    4.870429e-06
  8.636448e-02    4.855145e-06
  8.666341e-02    4.864712e-06
  8.696234e-02    4.867215e-06
  8.726127e-02    4.854513e-06
  8.756020e-02    4.840222e-06
  8.785913e-02    4.806543e-06
  8.815806e-02    4.799773e-06
  8.845699e-02    4.821359e-06
  8.875592e-02    4.820609e-06
  8.905485e-02    4.771815e-06
  8.935378e-02    4.766482e-06
  8.965271e-02    4.785124e-06
  8.995164e-02    4.768366e-06
  9.025057e-02    4.729050e-06
  9.054950e-02    4.743728e-06
  9.084843e-02    4.759651e-06
  9.114737e-02    4.759071e-06
  9.144630e-02    4.705258e-06
  9.174523e-02    4.664064e-06
  9.204416e-02    4.675514e-06
  9.234309e-02    4.662209e-06
  9.264202e-02    4.639321e-06
  9.294095e-02    4.652597e-06
  9.323988e-02    4.672699e-06
  9.353881e-02    4.648469e-06
  9.383774e-02    4.624507e-06
  9.413667e-02    4.604929e-06
  9.443560e-02    4.627984e-06
  9.473453e-02    4.609956e-06
  9.503346e-02    4.608399e-06
  9.533239e-02    4.582319e-06
  9.563132e-02    4.586642e-06
  9.593025e-02    4.607982e-06
  9.622918e-02    4.679850e-06
  9.652811e-02    4.651980e-06
  9.682704e-02    4.649492e-06
  9.712597e-02    4.639351e-06
  9.742490e-02    4.613944e-06
  9.772383e-02    4.621013e-06
  9.802276e-02    4.566311e-06
  9.832169e-02    4.515212e-06
  9.862062e-02    4.539565e-06
  9.891956e-02    4.542901e-06
  9.921849e-02    4.521245e-06
  9.951742e-02    4.464999e-06
  9.981635e-02    4.431903e-06
  1.001153e-01    4.442245e-06
  1.004142e-01    4.466875e-06
  1.007131e-01    4.464188e-06
  1.010121e-01    4.446067e-06
  1.013110e-01    4.409410e-06
  1.016099e-01    4.416812e-06
  1.019089e-01    4.435930e-06
  1.022078e-01    4.408945e-06
  1.025067e-01    4.404061e-06
  1.028057e-01    4.409002e-06
  1.031046e-01    4.396137e-06
  1.034035e-01    4.369818e-06
  1.037024e-01    4.365823e-06
  1.040014e-01    4.329772e-06
  1.043003e-01    4.326407e-06
  1.045992e-01    4.337093e-06
  1.048982e-01    4.304009e-06
  1.051971e-01    4.285439e-06
  1.054960e-01    4.298438e-06
  1.057950e-01    4.296149e-06
  1.060939e-01    4.314409e-06
  1.063928e-01    4.305001e-06
  1.066917e-01    4.282502e-06
  1.069907e-01    4.273842e-06
  1.072896e-01    4.249588e-06
  1.075885e-01    4.247160e-06
  1.078875e-01    4.278312e-06
  1.081864e-01    4.254054e-06
  1.084853e-01    4.274578e-06
  1.087843e-01    4.279568e-06
  1.090832e-01    4.250534e-06
  1.093821e-01    4.231768e-06
  1.096810e-01    4.222049e-06
  1.099800e-01    4.217698e-06
  1.102789e-01    4.240891e-06
  1.105778e-01    4.251408e-06
  1.108768e-01    4.173087e-06
  1.111757e-01    4.128264e-06
  1.114746e-01    4.171812e-06
  1.117736e-01    4.153182e-06
  1.120725e-01    4.135086e-06
  1.123714e-01    4.136183e-06
  1.126704e-01    4.143629e-06
  1.129693e-01    4.058530e-06
  1.132682e-01    3.999706e-06
  1.135671e-01    4.024737e-06
  1.138661e-01    4.049507e-06
  1.141650e-01    3.965537e-06
  1.144639e-01    3.929567e-06
  1.147629e-01    3.924535e-06
  1.150618e-01    3.942540e-06
  1.153607e-01    3.879851e-06
  1.156597e-01    3.849224e-06
  1.159586e-01    3.813509e-06
  1.162575e-01    3.814126e-06
  1.165564e-01    3.822308e-06
  1.168554e-01    3.824809e-06
  1.171543e-01    3.889952e-06
  1.174532e-01    3.989148e-06
  1.177522e-01    3.975547e-06
  1.180511e-01    3.961880e-06
  1.183500e-01    3.938460e-06
  1.186490e-01    3.875039e-06
  1.189479e-01    3.896484e-06
  1.192468e-01    3.925992e-06
  1.195458e-01    3.816976e-06
  1.198447e-01    3.763496e-06
  1.201436e-01    3.644987e-06
  1.204425e-01    3.385093e-06
  1.207415e-01    3.420136e-06
  1.210404e-01    3.685601e-06
  1.213393e-01    0.000000e+00
  1.216383e-01    0.000000e+00
  1.219372e-01    0.000000e+00
  1.222361e-01    0.000000e+00
  1.225351e-01    0.000000e+00
  1.228340e-01    0.000000e+00
  1.231329e-01    0.000000e+00
  1.234318e-01    0.000000e+00
  1.237308e-01    0.000000e+00
  1.240297e-01    0.000000e+00
  1.243286e-01    0.000000e+00
  1.246276e-01    0.000000e+00
  1.249265e-01    0.000000e+00
  1.252254e-01    0.000000e+00
  1.255244e-01    0.000000e+00
  1.258233e-01    0.000000e+00
  1.261222e-01    0.000000e+00
  1.264212e-01    0.000000e+00
  1.267201e-01    0.000000e+00
  1.270190e-01    0.000000e+00
  1.273179e-01    0.000000e+00
  1.276169e-01    0.000000e+00
  1.279158e-01    0.000000e+00
  1.282147e-01    0.000000e+00
  1.285137e-01    0.000000e+00
  1.288126e-01    0.000000e+00
  1.291115e-01    0.000000e+00
  1.294105e-01    0.000000e+00
  1.297094e-01    0.000000e+00
  1.300083e-01    0.000000e+00
  1.303072e-01    0.000000e+00
  1.306062e-01    0.000000e+00
  1.309051e-01    0.000000e+00
  1.312040e-01    0.000000e+00
  1.315030e-01    0.000000e+00
  1.318019e-01    0.000000e+00
  1.321008e-01    0.000000e+00
  1.323998e-01    0.000000e+00
  1.326987e-01    0.000000e+00
  1.329976e-01    0.000000e+00
  1.332965e-01    0.000000e+00
  1.335955e-01    0.000000e+00
  1.338944e-01    0.000000e+00
  1.341933e-01    0.000000e+00
  1.344923e-01    0.000000e+00
  1.347912e-01    0.000000e+00
  1.350901e-01    0.000000e+00
  1.353891e-01    0.000000e+00
  1.356880e-01    0.000000e+00
  1.359869e-01    0.000000e+00
  1.362859e-01    0.000000e+00
  1.365848e-01    0.000000e+00
  1.368837e-01    0.000000e+00
  1.371826e-01    0.000000e+00
  1.374816e-01    0.000000e+00
  1.377805e-01    0.000000e+00
  1.380794e-01    0.000000e+00
  1.383784e-01    0.000000e+00
  1.386773e-01    0.000000e+00
  1.389762e-01    0.000000e+00
  1.392752e-01    0.000000e+00
  1.395741e-01    0.000000e+00
  1.398730e-01    0.000000e+00
  1.401719e-01    0.000000e+00
  1.404709e-01    0.000000e+00
  1.407698e-01    0.000000e+00
  1.410687e-01    0.000000e+00
  1.413677e-01    0.000000e+00
  1.416666e-01    0.000000e+00
  1.419655e-01    0.000000e+00
  1.422645e-01    0.000000e+00
  1.425634e-01    0.000000e+00
  1.428623e-01    0.000000e+00
  1.431613e-01    0.000000e+00
  1.434602e-01    0.000000e+00
  1.437591e-01    0.000000e+00
  1.440580e-01    0.000000e+00
  1.443570e-01    0.000000e+00
  1.446559e-01    0.000000e+00
  1.449548e-01    0.000000e+00
  1.452538e-01    0.000000e+00
  1.455527e-01    0.000000e+00
  1.458516e-01    0.000000e+00
  1.461506e-01    0.000000e+00
  1.464495e-01    0.000000e+00
  1.467484e-01    0.000000e+00
  1.470473e-01    0.000000e+00
  1.473463e-01    0.000000e+00
  1.476452e-01    0.000000e+00
  1.479441e-01    0.000000e+00
  1.482431e-01    0.000000e+00
  1.485420e-01    0.000000e+00
  1.488409e-01    0.000000e+00
  1.491399e-01    0.000000e+00
  1.494388e-01    0.000000e+00
  1.497377e-01    0.000000e+00
  1.500367e-01    0.000000e+00
  1.503356e-01    0.000000e+00
  1.506345e-01    0.000000e+00
  1.509334e-01    0.000000e+00
  1.512324e-01    0.000000e+00
  1.515313e-01    0.000000e+00
  1.518302e-01    0.000000e+00
  1.521292e-01    0.000000e+00
  1.524281e-01    0.000000e+00
  1.527270e-01    0.000000e+00
  1.530260e-01    0.000000e+00
  1.533249e-01    0.000000e+00
  1.536238e-01    0.000000e+00
