# == pyFAI calibration ==
# Distance Sample to Detector: 2.266 m
# PONI: 5.659e-02, 4.293e-02 m
# Rotations: 0.000000 0.000000 0.000000 rad
# 
# == Fit2d calibration ==
# Distance Sample-beamCenter: 2266.000 mm
# Center: x=249.594, y=329.012 pix
# Tilt: 0.000 deg  TiltPlanRot: 0.000 deg
# 
# Detector Pilatus 300k	 PixelSize= 1.720e-04, 1.720e-04 m
#    Detector has a mask: True 
#    Detector has a dark current: False 
#    detector has a flat field: False 
# 
# Wavelength: 1.27818e-10 m
# Mask applied: user provided
# Dark current applied: False
# Flat field applied: False
# Polarization factor: None
# Normalization factor: 994199.2000000002
# --> AL_F127_220226_a2074d85-599b-4216-990f-d9cea59d1efa_1_r1d.csv
#        q_A^-1             I 
  4.457554e-03    2.680608e-03
  4.756484e-03    2.077850e-03
  5.055415e-03    1.453091e-03
  5.354345e-03    9.773840e-04
  5.653276e-03    7.140738e-04
  5.952206e-03    1.047555e-03
  6.251136e-03    9.515940e-04
  6.550067e-03    8.374271e-04
  6.848997e-03    7.174548e-04
  7.147927e-03    6.116045e-04
  7.446858e-03    5.285110e-04
  7.745788e-03    4.589068e-04
  8.044719e-03    3.994153e-04
  8.343649e-03    3.526251e-04
  8.642579e-03    3.143945e-04
  8.941510e-03    2.818062e-04
  9.240440e-03    2.556180e-04
  9.539371e-03    2.334899e-04
  9.838301e-03    2.139189e-04
  1.013723e-02    1.973810e-04
  1.043616e-02    1.834221e-04
  1.073509e-02    1.690996e-04
  1.103402e-02    1.583977e-04
  1.133295e-02    1.500587e-04
  1.163188e-02    1.440266e-04
  1.193081e-02    1.374092e-04
  1.222974e-02    1.310894e-04
  1.252867e-02    1.249434e-04
  1.282760e-02    1.201540e-04
  1.312654e-02    1.164609e-04
  1.342547e-02    1.133431e-04
  1.372440e-02    1.106530e-04
  1.402333e-02    1.090496e-04
  1.432226e-02    1.072334e-04
  1.462119e-02    1.061062e-04
  1.492012e-02    1.058126e-04
  1.521905e-02    1.051294e-04
  1.551798e-02    1.050599e-04
  1.581691e-02    1.052747e-04
  1.611584e-02    1.054464e-04
  1.641477e-02    1.067163e-04
  1.671370e-02    1.086160e-04
  1.701263e-02    1.103564e-04
  1.731156e-02    1.128024e-04
  1.761049e-02    1.157831e-04
  1.790942e-02    1.191861e-04
  1.820835e-02    1.230610e-04
  1.850728e-02    1.261206e-04
  1.880621e-02    1.309897e-04
  1.910514e-02    1.361452e-04
  1.940407e-02    1.423049e-04
  1.970300e-02    1.488741e-04
  2.000193e-02    1.556873e-04
  2.030086e-02    1.635905e-04
  2.059979e-02    1.720028e-04
  2.089873e-02    1.804886e-04
  2.119766e-02    1.897304e-04
  2.149659e-02    2.000178e-04
  2.179552e-02    2.108846e-04
  2.209445e-02    2.220388e-04
  2.239338e-02    2.346767e-04
  2.269231e-02    2.462095e-04
  2.299124e-02    2.574617e-04
  2.329017e-02    2.694923e-04
  2.358910e-02    2.808091e-04
  2.388803e-02    2.921586e-04
  2.418696e-02    3.029974e-04
  2.448589e-02    3.115281e-04
  2.478482e-02    3.194213e-04
  2.508375e-02    3.253863e-04
  2.538268e-02    3.297449e-04
  2.568161e-02    3.324337e-04
  2.598054e-02    3.344132e-04
  2.627947e-02    3.344071e-04
  2.657840e-02    3.305544e-04
  2.687733e-02    3.253878e-04
  2.717626e-02    3.178886e-04
  2.747519e-02    3.091200e-04
  2.777412e-02    2.996016e-04
  2.807305e-02    2.896841e-04
  2.837198e-02    2.788738e-04
  2.867092e-02    2.681229e-04
  2.896985e-02    2.569128e-04
  2.926878e-02    2.443626e-04
  2.956771e-02    2.330056e-04
  2.986664e-02    2.231405e-04
  3.016557e-02    2.127289e-04
  3.046450e-02    2.013905e-04
  3.076343e-02    1.916533e-04
  3.106236e-02    1.820344e-04
  3.136129e-02    1.750233e-04
  3.166022e-02    1.679239e-04
  3.195915e-02    1.601068e-04
  3.225808e-02    1.526802e-04
  3.255701e-02    1.461057e-04
  3.285594e-02    1.401049e-04
  3.315487e-02    1.347480e-04
  3.345380e-02    1.301219e-04
  3.375273e-02    1.248369e-04
  3.405166e-02    1.199104e-04
  3.435059e-02    1.156225e-04
  3.464952e-02    1.120606e-04
  3.494845e-02    1.088206e-04
  3.524738e-02    1.052504e-04
  3.554631e-02    1.023082e-04
  3.584524e-02    9.957042e-05
  3.614417e-02    9.735110e-05
  3.644310e-02    9.522271e-05
  3.674204e-02    9.300953e-05
  3.704097e-02    9.072634e-05
  3.733990e-02    8.866317e-05
  3.763883e-02    8.686596e-05
  3.793776e-02    8.555813e-05
  3.823669e-02    8.376293e-05
  3.853562e-02    8.211897e-05
  3.883455e-02    8.113987e-05
  3.913348e-02    8.046863e-05
  3.943241e-02    7.922175e-05
  3.973134e-02    7.768178e-05
  4.003027e-02    7.618899e-05
  4.032920e-02    7.586830e-05
  4.062813e-02    7.532884e-05
  4.092706e-02    7.398510e-05
  4.122599e-02    7.331173e-05
  4.152492e-02    7.247660e-05
  4.182385e-02    7.195956e-05
  4.212278e-02    7.131393e-05
  4.242171e-02    7.055485e-05
  4.272064e-02    6.995075e-05
  4.301957e-02    6.938860e-05
  4.331850e-02    6.868869e-05
  4.361743e-02    6.829533e-05
  4.391636e-02    6.760835e-05
  4.421529e-02    6.689419e-05
  4.451423e-02    6.629790e-05
  4.481316e-02    6.577159e-05
  4.511209e-02    6.534653e-05
  4.541102e-02    6.452379e-05
  4.570995e-02    6.403992e-05
  4.600888e-02    6.357829e-05
  4.630781e-02    6.287530e-05
  4.660674e-02    6.183149e-05
  4.690567e-02    6.125138e-05
  4.720460e-02    6.044193e-05
  4.750353e-02    5.947145e-05
  4.780246e-02    5.888203e-05
  4.810139e-02    5.794374e-05
  4.840032e-02    5.727101e-05
  4.869925e-02    5.625525e-05
  4.899818e-02    5.527558e-05
  4.929711e-02    5.474282e-05
  4.959604e-02    5.369147e-05
  4.989497e-02    5.268040e-05
  5.019390e-02    5.163833e-05
  5.049283e-02    5.082636e-05
  5.079176e-02    4.990867e-05
  5.109069e-02    4.895015e-05
  5.138962e-02    4.791927e-05
  5.168855e-02    4.696238e-05
  5.198748e-02    4.604184e-05
  5.228642e-02    4.474575e-05
  5.258535e-02    4.365163e-05
  5.288428e-02    4.232515e-05
  5.318321e-02    4.138704e-05
  5.348214e-02    4.035076e-05
  5.378107e-02    3.912918e-05
  5.408000e-02    3.850616e-05
  5.437893e-02    3.736814e-05
  5.467786e-02    3.611933e-05
  5.497679e-02    3.531321e-05
  5.527572e-02    3.451495e-05
  5.557465e-02    3.350790e-05
  5.587358e-02    3.263043e-05
  5.617251e-02    3.199205e-05
  5.647144e-02    3.128736e-05
  5.677037e-02    3.034374e-05
  5.706930e-02    2.942181e-05
  5.736823e-02    2.848346e-05
  5.766716e-02    2.771044e-05
  5.796609e-02    2.705156e-05
  5.826502e-02    2.653689e-05
  5.856395e-02    2.588902e-05
  5.886288e-02    2.508789e-05
  5.916181e-02    2.453702e-05
  5.946074e-02    2.411407e-05
  5.975967e-02    2.356909e-05
  6.005861e-02    2.279297e-05
  6.035754e-02    2.226936e-05
  6.065647e-02    2.176882e-05
  6.095540e-02    2.138203e-05
  6.125433e-02    2.118210e-05
  6.155326e-02    2.082657e-05
  6.185219e-02    2.025104e-05
  6.215112e-02    1.978681e-05
  6.245005e-02    1.937083e-05
  6.274898e-02    1.888454e-05
  6.304791e-02    1.839444e-05
  6.334684e-02    1.796174e-05
  6.364577e-02    1.774752e-05
  6.394470e-02    1.744217e-05
  6.424363e-02    1.715938e-05
  6.454256e-02    1.681988e-05
  6.484149e-02    1.657393e-05
  6.514042e-02    1.627560e-05
  6.543935e-02    1.595425e-05
  6.573828e-02    1.550977e-05
  6.603721e-02    1.544450e-05
  6.633614e-02    1.525558e-05
  6.663507e-02    1.492706e-05
  6.693400e-02    1.478576e-05
  6.723293e-02    1.454441e-05
  6.753186e-02    1.424889e-05
  6.783080e-02    1.403314e-05
  6.812973e-02    1.401791e-05
  6.842866e-02    1.389801e-05
  6.872759e-02    1.369259e-05
  6.902652e-02    1.327601e-05
  6.932545e-02    1.301226e-05
  6.962438e-02    1.298299e-05
  6.992331e-02    1.292485e-05
  7.022224e-02    1.276955e-05
  7.052117e-02    1.265560e-05
  7.082010e-02    1.235752e-05
  7.111903e-02    1.229810e-05
  7.141796e-02    1.232922e-05
  7.171689e-02    1.212716e-05
  7.201582e-02    1.198547e-05
  7.231475e-02    1.179827e-05
  7.261368e-02    1.170403e-05
  7.291261e-02    1.165140e-05
  7.321154e-02    1.141298e-05
  7.351047e-02    1.123886e-05
  7.380940e-02    1.120582e-05
  7.410833e-02    1.124082e-05
  7.440726e-02    1.118162e-05
  7.470619e-02    1.101438e-05
  7.500512e-02    1.095915e-05
  7.530405e-02    1.089436e-05
  7.560299e-02    1.080543e-05
  7.590192e-02    1.090406e-05
  7.620085e-02    1.075953e-05
  7.649978e-02    1.052597e-05
  7.679871e-02    1.049160e-05
  7.709764e-02    1.060646e-05
  7.739657e-02    1.052045e-05
  7.769550e-02    1.035700e-05
  7.799443e-02    1.058255e-05
  7.829336e-02    1.051006e-05
  7.859229e-02    1.030744e-05
  7.889122e-02    1.024033e-05
  7.919015e-02    1.030231e-05
  7.948908e-02    1.037782e-05
  7.978801e-02    1.030750e-05
  8.008694e-02    1.017366e-05
  8.038587e-02    1.012305e-05
  8.068480e-02    1.028048e-05
  8.098373e-02    1.023275e-05
  8.128266e-02    1.005042e-05
  8.158159e-02    9.998746e-06
  8.188052e-02    1.013246e-05
  8.217945e-02    1.001010e-05
  8.247838e-02    9.922147e-06
  8.277731e-02    9.967424e-06
  8.307624e-02    1.010965e-05
  8.337518e-02    1.003542e-05
  8.367411e-02    1.000791e-05
  8.397304e-02    1.010973e-05
  8.427197e-02    1.002488e-05
  8.457090e-02    1.001303e-05
  8.486983e-02    1.017028e-05
  8.516876e-02    9.990680e-06
  8.546769e-02    9.958619e-06
  8.576662e-02    1.016075e-05
  8.606555e-02    1.011206e-05
  8.636448e-02    9.929915e-06
  8.666341e-02    9.948791e-06
  8.696234e-02    1.001575e-05
  8.726127e-02    1.012758e-05
  8.756020e-02    1.013858e-05
  8.785913e-02    1.007032e-05
  8.815806e-02    1.011504e-05
  8.845699e-02    1.006911e-05
  8.875592e-02    1.010287e-05
  8.905485e-02    1.017503e-05
  8.935378e-02    1.017501e-05
  8.965271e-02    1.011845e-05
  8.995164e-02    1.019897e-05
  9.025057e-02    1.021463e-05
  9.054950e-02    1.019038e-05
  9.084843e-02    1.018009e-05
  9.114737e-02    1.021155e-05
  9.144630e-02    1.018474e-05
  9.174523e-02    1.018793e-05
  9.204416e-02    1.015988e-05
  9.234309e-02    1.014688e-05
  9.264202e-02    1.020673e-05
  9.294095e-02    1.018351e-05
  9.323988e-02    1.028201e-05
  9.353881e-02    1.029815e-05
  9.383774e-02    1.025482e-05
  9.413667e-02    1.029929e-05
  9.443560e-02    1.030356e-05
  9.473453e-02    1.032160e-05
  9.503346e-02    1.026880e-05
  9.533239e-02    1.027131e-05
  9.563132e-02    1.026808e-05
  9.593025e-02    1.026478e-05
  9.622918e-02    1.035385e-05
  9.652811e-02    1.035746e-05
  9.682704e-02    1.033449e-05
  9.712597e-02    1.040244e-05
  9.742490e-02    1.048148e-05
  9.772383e-02    1.048978e-05
  9.802276e-02    1.046270e-05
  9.832169e-02    1.040771e-05
  9.862062e-02    1.044800e-05
  9.891956e-02    1.037688e-05
  9.921849e-02    1.038972e-05
  9.951742e-02    1.035560e-05
  9.981635e-02    1.032432e-05
  1.001153e-01    1.035077e-05
  1.004142e-01    1.041290e-05
  1.007131e-01    1.038428e-05
  1.010121e-01    1.025724e-05
  1.013110e-01    1.013396e-05
  1.016099e-01    1.023021e-05
  1.019089e-01    1.026222e-05
  1.022078e-01    1.030771e-05
  1.025067e-01    1.021422e-05
  1.028057e-01    1.020501e-05
  1.031046e-01    1.020097e-05
  1.034035e-01    1.014315e-05
  1.037024e-01    1.019485e-05
  1.040014e-01    1.035891e-05
  1.043003e-01    1.028342e-05
  1.045992e-01    1.011126e-05
  1.048982e-01    1.003928e-05
  1.051971e-01    1.014344e-05
  1.054960e-01    1.000142e-05
  1.057950e-01    9.926027e-06
  1.060939e-01    1.005496e-05
  1.063928e-01    1.012348e-05
  1.066917e-01    1.003251e-05
  1.069907e-01    1.004068e-05
  1.072896e-01    1.000776e-05
  1.075885e-01    1.000091e-05
  1.078875e-01    1.014660e-05
  1.081864e-01    1.015591e-05
  1.084853e-01    1.016773e-05
  1.087843e-01    1.018596e-05
  1.090832e-01    1.010884e-05
  1.093821e-01    9.899256e-06
  1.096810e-01    9.806856e-06
  1.099800e-01    9.893442e-06
  1.102789e-01    9.972480e-06
  1.105778e-01    1.001835e-05
  1.108768e-01    9.984240e-06
  1.111757e-01    9.851646e-06
  1.114746e-01    9.780687e-06
  1.117736e-01    9.723924e-06
  1.120725e-01    9.721768e-06
  1.123714e-01    9.469502e-06
  1.126704e-01    9.457700e-06
  1.129693e-01    9.288658e-06
  1.132682e-01    8.954812e-06
  1.135671e-01    8.787617e-06
  1.138661e-01    8.631787e-06
  1.141650e-01    8.439185e-06
  1.144639e-01    8.416637e-06
  1.147629e-01    8.418394e-06
  1.150618e-01    8.377601e-06
  1.153607e-01    8.311447e-06
  1.156597e-01    8.215665e-06
  1.159586e-01    8.207706e-06
  1.162575e-01    8.256065e-06
  1.165564e-01    8.229921e-06
  1.168554e-01    8.195136e-06
  1.171543e-01    8.199828e-06
  1.174532e-01    8.215744e-06
  1.177522e-01    8.039599e-06
  1.180511e-01    7.872458e-06
  1.183500e-01    7.711985e-06
  1.186490e-01    7.819885e-06
  1.189479e-01    7.953107e-06
  1.192468e-01    8.120655e-06
  1.195458e-01    8.315098e-06
  1.198447e-01    8.186984e-06
  1.201436e-01    8.544902e-06
  1.204425e-01    8.804771e-06
  1.207415e-01    7.439728e-06
  1.210404e-01    6.040475e-06
  1.213393e-01    0.000000e+00
  1.216383e-01    0.000000e+00
  1.219372e-01    0.000000e+00
  1.222361e-01    0.000000e+00
  1.225351e-01    0.000000e+00
  1.228340e-01    0.000000e+00
  1.231329e-01    0.000000e+00
  1.234318e-01    0.000000e+00
  1.237308e-01    0.000000e+00
  1.240297e-01    0.000000e+00
  1.243286e-01    0.000000e+00
  1.246276e-01    0.000000e+00
  1.249265e-01    0.000000e+00
  1.252254e-01    0.000000e+00
  1.255244e-01    0.000000e+00
  1.258233e-01    0.000000e+00
  1.261222e-01    0.000000e+00
  1.264212e-01    0.000000e+00
  1.267201e-01    0.000000e+00
  1.270190e-01    0.000000e+00
  1.273179e-01    0.000000e+00
  1.276169e-01    0.000000e+00
  1.279158e-01    0.000000e+00
  1.282147e-01    0.000000e+00
  1.285137e-01    0.000000e+00
  1.288126e-01    0.000000e+00
  1.291115e-01    0.000000e+00
  1.294105e-01    0.000000e+00
  1.297094e-01    0.000000e+00
  1.300083e-01    0.000000e+00
  1.303072e-01    0.000000e+00
  1.306062e-01    0.000000e+00
  1.309051e-01    0.000000e+00
  1.312040e-01    0.000000e+00
  1.315030e-01    0.000000e+00
  1.318019e-01    0.000000e+00
  1.321008e-01    0.000000e+00
  1.323998e-01    0.000000e+00
  1.326987e-01    0.000000e+00
  1.329976e-01    0.000000e+00
  1.332965e-01    0.000000e+00
  1.335955e-01    0.000000e+00
  1.338944e-01    0.000000e+00
  1.341933e-01    0.000000e+00
  1.344923e-01    0.000000e+00
  1.347912e-01    0.000000e+00
  1.350901e-01    0.000000e+00
  1.353891e-01    0.000000e+00
  1.356880e-01    0.000000e+00
  1.359869e-01    0.000000e+00
  1.362859e-01    0.000000e+00
  1.365848e-01    0.000000e+00
  1.368837e-01    0.000000e+00
  1.371826e-01    0.000000e+00
  1.374816e-01    0.000000e+00
  1.377805e-01    0.000000e+00
  1.380794e-01    0.000000e+00
  1.383784e-01    0.000000e+00
  1.386773e-01    0.000000e+00
  1.389762e-01    0.000000e+00
  1.392752e-01    0.000000e+00
  1.395741e-01    0.000000e+00
  1.398730e-01    0.000000e+00
  1.401719e-01    0.000000e+00
  1.404709e-01    0.000000e+00
  1.407698e-01    0.000000e+00
  1.410687e-01    0.000000e+00
  1.413677e-01    0.000000e+00
  1.416666e-01    0.000000e+00
  1.419655e-01    0.000000e+00
  1.422645e-01    0.000000e+00
  1.425634e-01    0.000000e+00
  1.428623e-01    0.000000e+00
  1.431613e-01    0.000000e+00
  1.434602e-01    0.000000e+00
  1.437591e-01    0.000000e+00
  1.440580e-01    0.000000e+00
  1.443570e-01    0.000000e+00
  1.446559e-01    0.000000e+00
  1.449548e-01    0.000000e+00
  1.452538e-01    0.000000e+00
  1.455527e-01    0.000000e+00
  1.458516e-01    0.000000e+00
  1.461506e-01    0.000000e+00
  1.464495e-01    0.000000e+00
  1.467484e-01    0.000000e+00
  1.470473e-01    0.000000e+00
  1.473463e-01    0.000000e+00
  1.476452e-01    0.000000e+00
  1.479441e-01    0.000000e+00
  1.482431e-01    0.000000e+00
  1.485420e-01    0.000000e+00
  1.488409e-01    0.000000e+00
  1.491399e-01    0.000000e+00
  1.494388e-01    0.000000e+00
  1.497377e-01    0.000000e+00
  1.500367e-01    0.000000e+00
  1.503356e-01    0.000000e+00
  1.506345e-01    0.000000e+00
  1.509334e-01    0.000000e+00
  1.512324e-01    0.000000e+00
  1.515313e-01    0.000000e+00
  1.518302e-01    0.000000e+00
  1.521292e-01    0.000000e+00
  1.524281e-01    0.000000e+00
  1.527270e-01    0.000000e+00
  1.530260e-01    0.000000e+00
  1.533249e-01    0.000000e+00
  1.536238e-01    0.000000e+00
