# == pyFAI calibration ==
# Distance Sample to Detector: 2.266 m
# PONI: 5.659e-02, 4.293e-02 m
# Rotations: 0.000000 0.000000 0.000000 rad
# 
# == Fit2d calibration ==
# Distance Sample-beamCenter: 2266.000 mm
# Center: x=249.594, y=329.012 pix
# Tilt: 0.000 deg  TiltPlanRot: 0.000 deg
# 
# Detector Pilatus 300k	 PixelSize= 1.720e-04, 1.720e-04 m
#    Detector has a mask: True 
#    Detector has a dark current: False 
#    detector has a flat field: False 
# 
# Wavelength: 1.27818e-10 m
# Mask applied: user provided
# Dark current applied: False
# Flat field applied: False
# Polarization factor: None
# Normalization factor: 4010450.7999999993
# --> AL_F127_220301_39c3e499-ca6c-46a4-a90a-002a60ae06cb_2_r1d.csv
#        q_A^-1             I 
  4.457554e-03    2.131559e-03
  4.756484e-03    1.673059e-03
  5.055415e-03    1.184256e-03
  5.354345e-03    8.050422e-04
  5.653276e-03    6.077635e-04
  5.952206e-03    9.350652e-04
  6.251136e-03    8.500273e-04
  6.550067e-03    7.360844e-04
  6.848997e-03    6.289430e-04
  7.147927e-03    5.328227e-04
  7.446858e-03    4.547722e-04
  7.745788e-03    3.906449e-04
  8.044719e-03    3.384591e-04
  8.343649e-03    2.968991e-04
  8.642579e-03    2.604662e-04
  8.941510e-03    2.300066e-04
  9.240440e-03    2.048294e-04
  9.539371e-03    1.826804e-04
  9.838301e-03    1.631867e-04
  1.013723e-02    1.464009e-04
  1.043616e-02    1.322849e-04
  1.073509e-02    1.200759e-04
  1.103402e-02    1.098691e-04
  1.133295e-02    1.000920e-04
  1.163188e-02    9.161542e-05
  1.193081e-02    8.418589e-05
  1.222974e-02    7.776226e-05
  1.252867e-02    7.214991e-05
  1.282760e-02    6.718242e-05
  1.312654e-02    6.234436e-05
  1.342547e-02    5.768667e-05
  1.372440e-02    5.394370e-05
  1.402333e-02    5.056034e-05
  1.432226e-02    4.744091e-05
  1.462119e-02    4.456710e-05
  1.492012e-02    4.209784e-05
  1.521905e-02    3.984967e-05
  1.551798e-02    3.749479e-05
  1.581691e-02    3.551552e-05
  1.611584e-02    3.383350e-05
  1.641477e-02    3.200617e-05
  1.671370e-02    3.046709e-05
  1.701263e-02    2.926915e-05
  1.731156e-02    2.796401e-05
  1.761049e-02    2.656968e-05
  1.790942e-02    2.547430e-05
  1.820835e-02    2.434712e-05
  1.850728e-02    2.339194e-05
  1.880621e-02    2.254532e-05
  1.910514e-02    2.170605e-05
  1.940407e-02    2.108681e-05
  1.970300e-02    2.046516e-05
  2.000193e-02    1.983870e-05
  2.030086e-02    1.915636e-05
  2.059979e-02    1.867453e-05
  2.089873e-02    1.814275e-05
  2.119766e-02    1.758028e-05
  2.149659e-02    1.714717e-05
  2.179552e-02    1.667656e-05
  2.209445e-02    1.630936e-05
  2.239338e-02    1.614116e-05
  2.269231e-02    1.590171e-05
  2.299124e-02    1.562551e-05
  2.329017e-02    1.541659e-05
  2.358910e-02    1.516976e-05
  2.388803e-02    1.492115e-05
  2.418696e-02    1.484453e-05
  2.448589e-02    1.469561e-05
  2.478482e-02    1.450516e-05
  2.508375e-02    1.453004e-05
  2.538268e-02    1.442817e-05
  2.568161e-02    1.430693e-05
  2.598054e-02    1.421696e-05
  2.627947e-02    1.435382e-05
  2.657840e-02    1.438540e-05
  2.687733e-02    1.433619e-05
  2.717626e-02    1.446702e-05
  2.747519e-02    1.447917e-05
  2.777412e-02    1.439539e-05
  2.807305e-02    1.440311e-05
  2.837198e-02    1.445175e-05
  2.867092e-02    1.445480e-05
  2.896985e-02    1.451009e-05
  2.926878e-02    1.456988e-05
  2.956771e-02    1.452038e-05
  2.986664e-02    1.454062e-05
  3.016557e-02    1.459393e-05
  3.046450e-02    1.464489e-05
  3.076343e-02    1.464983e-05
  3.106236e-02    1.473075e-05
  3.136129e-02    1.484684e-05
  3.166022e-02    1.492000e-05
  3.195915e-02    1.492709e-05
  3.225808e-02    1.492111e-05
  3.255701e-02    1.491035e-05
  3.285594e-02    1.487519e-05
  3.315487e-02    1.499995e-05
  3.345380e-02    1.521031e-05
  3.375273e-02    1.525923e-05
  3.405166e-02    1.535604e-05
  3.435059e-02    1.540995e-05
  3.464952e-02    1.545620e-05
  3.494845e-02    1.541115e-05
  3.524738e-02    1.544333e-05
  3.554631e-02    1.556473e-05
  3.584524e-02    1.568425e-05
  3.614417e-02    1.580498e-05
  3.644310e-02    1.592049e-05
  3.674204e-02    1.601345e-05
  3.704097e-02    1.606507e-05
  3.733990e-02    1.613950e-05
  3.763883e-02    1.619670e-05
  3.793776e-02    1.627098e-05
  3.823669e-02    1.637448e-05
  3.853562e-02    1.651087e-05
  3.883455e-02    1.663239e-05
  3.913348e-02    1.663941e-05
  3.943241e-02    1.682278e-05
  3.973134e-02    1.690463e-05
  4.003027e-02    1.695278e-05
  4.032920e-02    1.709150e-05
  4.062813e-02    1.726903e-05
  4.092706e-02    1.734566e-05
  4.122599e-02    1.744211e-05
  4.152492e-02    1.742791e-05
  4.182385e-02    1.747603e-05
  4.212278e-02    1.764075e-05
  4.242171e-02    1.772284e-05
  4.272064e-02    1.768948e-05
  4.301957e-02    1.781096e-05
  4.331850e-02    1.793450e-05
  4.361743e-02    1.800984e-05
  4.391636e-02    1.797568e-05
  4.421529e-02    1.802564e-05
  4.451423e-02    1.806150e-05
  4.481316e-02    1.807719e-05
  4.511209e-02    1.804842e-05
  4.541102e-02    1.802439e-05
  4.570995e-02    1.803109e-05
  4.600888e-02    1.806935e-05
  4.630781e-02    1.810377e-05
  4.660674e-02    1.808860e-05
  4.690567e-02    1.797545e-05
  4.720460e-02    1.800437e-05
  4.750353e-02    1.800370e-05
  4.780246e-02    1.787064e-05
  4.810139e-02    1.782584e-05
  4.840032e-02    1.776606e-05
  4.869925e-02    1.760271e-05
  4.899818e-02    1.739431e-05
  4.929711e-02    1.727577e-05
  4.959604e-02    1.714391e-05
  4.989497e-02    1.707805e-05
  5.019390e-02    1.707337e-05
  5.049283e-02    1.686283e-05
  5.079176e-02    1.674741e-05
  5.109069e-02    1.665986e-05
  5.138962e-02    1.656550e-05
  5.168855e-02    1.656914e-05
  5.198748e-02    1.655628e-05
  5.228642e-02    1.632523e-05
  5.258535e-02    1.603435e-05
  5.288428e-02    1.579008e-05
  5.318321e-02    1.564991e-05
  5.348214e-02    1.553041e-05
  5.378107e-02    1.549542e-05
  5.408000e-02    1.532949e-05
  5.437893e-02    1.506190e-05
  5.467786e-02    1.493503e-05
  5.497679e-02    1.476994e-05
  5.527572e-02    1.459239e-05
  5.557465e-02    1.438063e-05
  5.587358e-02    1.431992e-05
  5.617251e-02    1.415099e-05
  5.647144e-02    1.397434e-05
  5.677037e-02    1.381606e-05
  5.706930e-02    1.366649e-05
  5.736823e-02    1.353141e-05
  5.766716e-02    1.346330e-05
  5.796609e-02    1.340029e-05
  5.826502e-02    1.327762e-05
  5.856395e-02    1.312692e-05
  5.886288e-02    1.299120e-05
  5.916181e-02    1.292709e-05
  5.946074e-02    1.277072e-05
  5.975967e-02    1.272914e-05
  6.005861e-02    1.266891e-05
  6.035754e-02    1.252606e-05
  6.065647e-02    1.242406e-05
  6.095540e-02    1.234137e-05
  6.125433e-02    1.226149e-05
  6.155326e-02    1.215206e-05
  6.185219e-02    1.197883e-05
  6.215112e-02    1.188563e-05
  6.245005e-02    1.175663e-05
  6.274898e-02    1.165376e-05
  6.304791e-02    1.155616e-05
  6.334684e-02    1.147235e-05
  6.364577e-02    1.148200e-05
  6.394470e-02    1.136387e-05
  6.424363e-02    1.125789e-05
  6.454256e-02    1.121687e-05
  6.484149e-02    1.115665e-05
  6.514042e-02    1.107785e-05
  6.543935e-02    1.093291e-05
  6.573828e-02    1.097153e-05
  6.603721e-02    1.093443e-05
  6.633614e-02    1.085453e-05
  6.663507e-02    1.069313e-05
  6.693400e-02    1.058154e-05
  6.723293e-02    1.057776e-05
  6.753186e-02    1.051536e-05
  6.783080e-02    1.048361e-05
  6.812973e-02    1.044040e-05
  6.842866e-02    1.035453e-05
  6.872759e-02    1.028636e-05
  6.902652e-02    1.019516e-05
  6.932545e-02    1.015368e-05
  6.962438e-02    1.010914e-05
  6.992331e-02    1.012017e-05
  7.022224e-02    1.007989e-05
  7.052117e-02    9.931071e-06
  7.082010e-02    9.890262e-06
  7.111903e-02    9.850687e-06
  7.141796e-02    9.856731e-06
  7.171689e-02    9.821388e-06
  7.201582e-02    9.778531e-06
  7.231475e-02    9.724587e-06
  7.261368e-02    9.718387e-06
  7.291261e-02    9.662961e-06
  7.321154e-02    9.597918e-06
  7.351047e-02    9.547925e-06
  7.380940e-02    9.497106e-06
  7.410833e-02    9.423242e-06
  7.440726e-02    9.437414e-06
  7.470619e-02    9.426258e-06
  7.500512e-02    9.355990e-06
  7.530405e-02    9.291231e-06
  7.560299e-02    9.275516e-06
  7.590192e-02    9.252721e-06
  7.620085e-02    9.252874e-06
  7.649978e-02    9.198900e-06
  7.679871e-02    9.166671e-06
  7.709764e-02    9.128948e-06
  7.739657e-02    9.146674e-06
  7.769550e-02    9.113527e-06
  7.799443e-02    9.068279e-06
  7.829336e-02    9.026112e-06
  7.859229e-02    8.965342e-06
  7.889122e-02    8.953731e-06
  7.919015e-02    8.907863e-06
  7.948908e-02    8.862546e-06
  7.978801e-02    8.842309e-06
  8.008694e-02    8.852439e-06
  8.038587e-02    8.836675e-06
  8.068480e-02    8.784520e-06
  8.098373e-02    8.749386e-06
  8.128266e-02    8.802301e-06
  8.158159e-02    8.783280e-06
  8.188052e-02    8.744755e-06
  8.217945e-02    8.690441e-06
  8.247838e-02    8.651118e-06
  8.277731e-02    8.624835e-06
  8.307624e-02    8.628643e-06
  8.337518e-02    8.598528e-06
  8.367411e-02    8.606931e-06
  8.397304e-02    8.611096e-06
  8.427197e-02    8.613969e-06
  8.457090e-02    8.608469e-06
  8.486983e-02    8.580068e-06
  8.516876e-02    8.551269e-06
  8.546769e-02    8.502860e-06
  8.576662e-02    8.495607e-06
  8.606555e-02    8.510195e-06
  8.636448e-02    8.495378e-06
  8.666341e-02    8.444424e-06
  8.696234e-02    8.428817e-06
  8.726127e-02    8.391208e-06
  8.756020e-02    8.416137e-06
  8.785913e-02    8.397138e-06
  8.815806e-02    8.390914e-06
  8.845699e-02    8.415520e-06
  8.875592e-02    8.382490e-06
  8.905485e-02    8.325817e-06
  8.935378e-02    8.376781e-06
  8.965271e-02    8.405472e-06
  8.995164e-02    8.359586e-06
  9.025057e-02    8.323050e-06
  9.054950e-02    8.284656e-06
  9.084843e-02    8.251252e-06
  9.114737e-02    8.302946e-06
  9.144630e-02    8.272509e-06
  9.174523e-02    8.225285e-06
  9.204416e-02    8.261413e-06
  9.234309e-02    8.263344e-06
  9.264202e-02    8.270028e-06
  9.294095e-02    8.290964e-06
  9.323988e-02    8.246023e-06
  9.353881e-02    8.161142e-06
  9.383774e-02    8.147957e-06
  9.413667e-02    8.184608e-06
  9.443560e-02    8.183222e-06
  9.473453e-02    8.170569e-06
  9.503346e-02    8.192530e-06
  9.533239e-02    8.133532e-06
  9.563132e-02    8.090147e-06
  9.593025e-02    8.105970e-06
  9.622918e-02    8.124273e-06
  9.652811e-02    8.114074e-06
  9.682704e-02    8.193912e-06
  9.712597e-02    8.219016e-06
  9.742490e-02    8.164837e-06
  9.772383e-02    8.129879e-06
  9.802276e-02    8.083050e-06
  9.832169e-02    8.073242e-06
  9.862062e-02    8.066311e-06
  9.891956e-02    8.040991e-06
  9.921849e-02    8.047915e-06
  9.951742e-02    8.073002e-06
  9.981635e-02    8.099009e-06
  1.001153e-01    8.095043e-06
  1.004142e-01    8.070020e-06
  1.007131e-01    8.011327e-06
  1.010121e-01    7.952487e-06
  1.013110e-01    7.984368e-06
  1.016099e-01    7.980016e-06
  1.019089e-01    8.006384e-06
  1.022078e-01    8.041694e-06
  1.025067e-01    8.043056e-06
  1.028057e-01    8.004779e-06
  1.031046e-01    7.957352e-06
  1.034035e-01    7.951290e-06
  1.037024e-01    7.930620e-06
  1.040014e-01    7.932532e-06
  1.043003e-01    7.962473e-06
  1.045992e-01    7.975834e-06
  1.048982e-01    7.964362e-06
  1.051971e-01    7.949583e-06
  1.054960e-01    7.907302e-06
  1.057950e-01    7.896758e-06
  1.060939e-01    7.920813e-06
  1.063928e-01    7.913667e-06
  1.066917e-01    7.920741e-06
  1.069907e-01    7.937182e-06
  1.072896e-01    7.923592e-06
  1.075885e-01    7.954595e-06
  1.078875e-01    7.970057e-06
  1.081864e-01    7.957413e-06
  1.084853e-01    7.972474e-06
  1.087843e-01    7.984961e-06
  1.090832e-01    7.943909e-06
  1.093821e-01    7.918346e-06
  1.096810e-01    7.906069e-06
  1.099800e-01    7.923249e-06
  1.102789e-01    7.929909e-06
  1.105778e-01    7.953121e-06
  1.108768e-01    7.959988e-06
  1.111757e-01    7.911290e-06
  1.114746e-01    7.837184e-06
  1.117736e-01    7.798070e-06
  1.120725e-01    7.774594e-06
  1.123714e-01    7.743038e-06
  1.126704e-01    7.657060e-06
  1.129693e-01    7.600359e-06
  1.132682e-01    7.446282e-06
  1.135671e-01    7.344743e-06
  1.138661e-01    7.301847e-06
  1.141650e-01    7.254372e-06
  1.144639e-01    7.186066e-06
  1.147629e-01    7.117726e-06
  1.150618e-01    7.185675e-06
  1.153607e-01    7.136259e-06
  1.156597e-01    7.068769e-06
  1.159586e-01    7.132152e-06
  1.162575e-01    6.997286e-06
  1.165564e-01    7.010090e-06
  1.168554e-01    7.044714e-06
  1.171543e-01    7.011147e-06
  1.174532e-01    7.134278e-06
  1.177522e-01    7.147140e-06
  1.180511e-01    6.971307e-06
  1.183500e-01    7.101787e-06
  1.186490e-01    7.172404e-06
  1.189479e-01    7.001711e-06
  1.192468e-01    7.049192e-06
  1.195458e-01    7.050337e-06
  1.198447e-01    7.162730e-06
  1.201436e-01    7.244407e-06
  1.204425e-01    7.338710e-06
  1.207415e-01    7.444904e-06
  1.210404e-01    4.492339e-06
  1.213393e-01    0.000000e+00
  1.216383e-01    0.000000e+00
  1.219372e-01    0.000000e+00
  1.222361e-01    0.000000e+00
  1.225351e-01    0.000000e+00
  1.228340e-01    0.000000e+00
  1.231329e-01    0.000000e+00
  1.234318e-01    0.000000e+00
  1.237308e-01    0.000000e+00
  1.240297e-01    0.000000e+00
  1.243286e-01    0.000000e+00
  1.246276e-01    0.000000e+00
  1.249265e-01    0.000000e+00
  1.252254e-01    0.000000e+00
  1.255244e-01    0.000000e+00
  1.258233e-01    0.000000e+00
  1.261222e-01    0.000000e+00
  1.264212e-01    0.000000e+00
  1.267201e-01    0.000000e+00
  1.270190e-01    0.000000e+00
  1.273179e-01    0.000000e+00
  1.276169e-01    0.000000e+00
  1.279158e-01    0.000000e+00
  1.282147e-01    0.000000e+00
  1.285137e-01    0.000000e+00
  1.288126e-01    0.000000e+00
  1.291115e-01    0.000000e+00
  1.294105e-01    0.000000e+00
  1.297094e-01    0.000000e+00
  1.300083e-01    0.000000e+00
  1.303072e-01    0.000000e+00
  1.306062e-01    0.000000e+00
  1.309051e-01    0.000000e+00
  1.312040e-01    0.000000e+00
  1.315030e-01    0.000000e+00
  1.318019e-01    0.000000e+00
  1.321008e-01    0.000000e+00
  1.323998e-01    0.000000e+00
  1.326987e-01    0.000000e+00
  1.329976e-01    0.000000e+00
  1.332965e-01    0.000000e+00
  1.335955e-01    0.000000e+00
  1.338944e-01    0.000000e+00
  1.341933e-01    0.000000e+00
  1.344923e-01    0.000000e+00
  1.347912e-01    0.000000e+00
  1.350901e-01    0.000000e+00
  1.353891e-01    0.000000e+00
  1.356880e-01    0.000000e+00
  1.359869e-01    0.000000e+00
  1.362859e-01    0.000000e+00
  1.365848e-01    0.000000e+00
  1.368837e-01    0.000000e+00
  1.371826e-01    0.000000e+00
  1.374816e-01    0.000000e+00
  1.377805e-01    0.000000e+00
  1.380794e-01    0.000000e+00
  1.383784e-01    0.000000e+00
  1.386773e-01    0.000000e+00
  1.389762e-01    0.000000e+00
  1.392752e-01    0.000000e+00
  1.395741e-01    0.000000e+00
  1.398730e-01    0.000000e+00
  1.401719e-01    0.000000e+00
  1.404709e-01    0.000000e+00
  1.407698e-01    0.000000e+00
  1.410687e-01    0.000000e+00
  1.413677e-01    0.000000e+00
  1.416666e-01    0.000000e+00
  1.419655e-01    0.000000e+00
  1.422645e-01    0.000000e+00
  1.425634e-01    0.000000e+00
  1.428623e-01    0.000000e+00
  1.431613e-01    0.000000e+00
  1.434602e-01    0.000000e+00
  1.437591e-01    0.000000e+00
  1.440580e-01    0.000000e+00
  1.443570e-01    0.000000e+00
  1.446559e-01    0.000000e+00
  1.449548e-01    0.000000e+00
  1.452538e-01    0.000000e+00
  1.455527e-01    0.000000e+00
  1.458516e-01    0.000000e+00
  1.461506e-01    0.000000e+00
  1.464495e-01    0.000000e+00
  1.467484e-01    0.000000e+00
  1.470473e-01    0.000000e+00
  1.473463e-01    0.000000e+00
  1.476452e-01    0.000000e+00
  1.479441e-01    0.000000e+00
  1.482431e-01    0.000000e+00
  1.485420e-01    0.000000e+00
  1.488409e-01    0.000000e+00
  1.491399e-01    0.000000e+00
  1.494388e-01    0.000000e+00
  1.497377e-01    0.000000e+00
  1.500367e-01    0.000000e+00
  1.503356e-01    0.000000e+00
  1.506345e-01    0.000000e+00
  1.509334e-01    0.000000e+00
  1.512324e-01    0.000000e+00
  1.515313e-01    0.000000e+00
  1.518302e-01    0.000000e+00
  1.521292e-01    0.000000e+00
  1.524281e-01    0.000000e+00
  1.527270e-01    0.000000e+00
  1.530260e-01    0.000000e+00
  1.533249e-01    0.000000e+00
  1.536238e-01    0.000000e+00
