# == pyFAI calibration ==
# Distance Sample to Detector: 2.266 m
# PONI: 5.659e-02, 4.293e-02 m
# Rotations: 0.000000 0.000000 0.000000 rad
# 
# == Fit2d calibration ==
# Distance Sample-beamCenter: 2266.000 mm
# Center: x=249.594, y=329.012 pix
# Tilt: 0.000 deg  TiltPlanRot: 0.000 deg
# 
# Detector Pilatus 300k	 PixelSize= 1.720e-04, 1.720e-04 m
#    Detector has a mask: True 
#    Detector has a dark current: False 
#    detector has a flat field: False 
# 
# Wavelength: 1.27818e-10 m
# Mask applied: user provided
# Dark current applied: False
# Flat field applied: False
# Polarization factor: None
# Normalization factor: 11742054.4
# --> AL_F127_220226_a6a92155-79e4-4252-ad1b-c821d09bfebb_1_r1d.csv
#        q_A^-1             I 
  4.457554e-03    1.876565e-03
  4.756484e-03    1.464271e-03
  5.055415e-03    1.026219e-03
  5.354345e-03    7.107267e-04
  5.653276e-03    5.462277e-04
  5.952206e-03    8.724743e-04
  6.251136e-03    7.940296e-04
  6.550067e-03    6.890126e-04
  6.848997e-03    5.859990e-04
  7.147927e-03    4.944063e-04
  7.446858e-03    4.213679e-04
  7.745788e-03    3.611729e-04
  8.044719e-03    3.104869e-04
  8.343649e-03    2.706571e-04
  8.642579e-03    2.368088e-04
  8.941510e-03    2.083833e-04
  9.240440e-03    1.846143e-04
  9.539371e-03    1.633715e-04
  9.838301e-03    1.452738e-04
  1.013723e-02    1.304937e-04
  1.043616e-02    1.175381e-04
  1.073509e-02    1.054363e-04
  1.103402e-02    9.522908e-05
  1.133295e-02    8.636007e-05
  1.163188e-02    7.867524e-05
  1.193081e-02    7.210752e-05
  1.222974e-02    6.627208e-05
  1.252867e-02    6.089070e-05
  1.282760e-02    5.612379e-05
  1.312654e-02    5.182012e-05
  1.342547e-02    4.799293e-05
  1.372440e-02    4.463198e-05
  1.402333e-02    4.165385e-05
  1.432226e-02    3.885870e-05
  1.462119e-02    3.631092e-05
  1.492012e-02    3.398778e-05
  1.521905e-02    3.210892e-05
  1.551798e-02    3.038270e-05
  1.581691e-02    2.863003e-05
  1.611584e-02    2.714237e-05
  1.641477e-02    2.578035e-05
  1.671370e-02    2.449332e-05
  1.701263e-02    2.331099e-05
  1.731156e-02    2.233915e-05
  1.761049e-02    2.148610e-05
  1.790942e-02    2.061671e-05
  1.820835e-02    1.990287e-05
  1.850728e-02    1.918864e-05
  1.880621e-02    1.862266e-05
  1.910514e-02    1.817339e-05
  1.940407e-02    1.773337e-05
  1.970300e-02    1.735827e-05
  2.000193e-02    1.697061e-05
  2.030086e-02    1.656242e-05
  2.059979e-02    1.640617e-05
  2.089873e-02    1.629681e-05
  2.119766e-02    1.615884e-05
  2.149659e-02    1.604236e-05
  2.179552e-02    1.602661e-05
  2.209445e-02    1.597667e-05
  2.239338e-02    1.581436e-05
  2.269231e-02    1.589004e-05
  2.299124e-02    1.606853e-05
  2.329017e-02    1.615928e-05
  2.358910e-02    1.618177e-05
  2.388803e-02    1.625442e-05
  2.418696e-02    1.644949e-05
  2.448589e-02    1.649006e-05
  2.478482e-02    1.650988e-05
  2.508375e-02    1.651886e-05
  2.538268e-02    1.655062e-05
  2.568161e-02    1.656591e-05
  2.598054e-02    1.648691e-05
  2.627947e-02    1.636221e-05
  2.657840e-02    1.626803e-05
  2.687733e-02    1.611665e-05
  2.717626e-02    1.581054e-05
  2.747519e-02    1.552333e-05
  2.777412e-02    1.524572e-05
  2.807305e-02    1.490705e-05
  2.837198e-02    1.457471e-05
  2.867092e-02    1.418013e-05
  2.896985e-02    1.386195e-05
  2.926878e-02    1.347735e-05
  2.956771e-02    1.313254e-05
  2.986664e-02    1.279973e-05
  3.016557e-02    1.246971e-05
  3.046450e-02    1.212557e-05
  3.076343e-02    1.178222e-05
  3.106236e-02    1.148906e-05
  3.136129e-02    1.120037e-05
  3.166022e-02    1.094571e-05
  3.195915e-02    1.067182e-05
  3.225808e-02    1.034574e-05
  3.255701e-02    1.012169e-05
  3.285594e-02    9.955528e-06
  3.315487e-02    9.774512e-06
  3.345380e-02    9.541996e-06
  3.375273e-02    9.316135e-06
  3.405166e-02    9.122366e-06
  3.435059e-02    8.960689e-06
  3.464952e-02    8.778552e-06
  3.494845e-02    8.693502e-06
  3.524738e-02    8.576188e-06
  3.554631e-02    8.411070e-06
  3.584524e-02    8.245878e-06
  3.614417e-02    8.118705e-06
  3.644310e-02    8.017449e-06
  3.674204e-02    7.921181e-06
  3.704097e-02    7.753893e-06
  3.733990e-02    7.671980e-06
  3.763883e-02    7.631706e-06
  3.793776e-02    7.522186e-06
  3.823669e-02    7.416331e-06
  3.853562e-02    7.334299e-06
  3.883455e-02    7.294592e-06
  3.913348e-02    7.237742e-06
  3.943241e-02    7.162958e-06
  3.973134e-02    7.071611e-06
  4.003027e-02    7.035533e-06
  4.032920e-02    7.028953e-06
  4.062813e-02    6.963683e-06
  4.092706e-02    6.902031e-06
  4.122599e-02    6.858295e-06
  4.152492e-02    6.806164e-06
  4.182385e-02    6.744801e-06
  4.212278e-02    6.698489e-06
  4.242171e-02    6.703961e-06
  4.272064e-02    6.686794e-06
  4.301957e-02    6.670402e-06
  4.331850e-02    6.647394e-06
  4.361743e-02    6.619780e-06
  4.391636e-02    6.568398e-06
  4.421529e-02    6.560117e-06
  4.451423e-02    6.498101e-06
  4.481316e-02    6.456577e-06
  4.511209e-02    6.462304e-06
  4.541102e-02    6.403026e-06
  4.570995e-02    6.372502e-06
  4.600888e-02    6.362583e-06
  4.630781e-02    6.357719e-06
  4.660674e-02    6.327360e-06
  4.690567e-02    6.353299e-06
  4.720460e-02    6.334772e-06
  4.750353e-02    6.327147e-06
  4.780246e-02    6.273995e-06
  4.810139e-02    6.235876e-06
  4.840032e-02    6.238621e-06
  4.869925e-02    6.200475e-06
  4.899818e-02    6.160527e-06
  4.929711e-02    6.144434e-06
  4.959604e-02    6.092364e-06
  4.989497e-02    6.075280e-06
  5.019390e-02    6.092991e-06
  5.049283e-02    6.044821e-06
  5.079176e-02    6.015835e-06
  5.109069e-02    6.036319e-06
  5.138962e-02    6.071716e-06
  5.168855e-02    6.120048e-06
  5.198748e-02    6.172518e-06
  5.228642e-02    6.137717e-06
  5.258535e-02    5.955928e-06
  5.288428e-02    5.823352e-06
  5.318321e-02    5.820900e-06
  5.348214e-02    5.807853e-06
  5.378107e-02    5.749793e-06
  5.408000e-02    5.744389e-06
  5.437893e-02    5.712442e-06
  5.467786e-02    5.693535e-06
  5.497679e-02    5.697676e-06
  5.527572e-02    5.634541e-06
  5.557465e-02    5.597726e-06
  5.587358e-02    5.550444e-06
  5.617251e-02    5.560966e-06
  5.647144e-02    5.580549e-06
  5.677037e-02    5.575926e-06
  5.706930e-02    5.525777e-06
  5.736823e-02    5.516426e-06
  5.766716e-02    5.505065e-06
  5.796609e-02    5.498450e-06
  5.826502e-02    5.468055e-06
  5.856395e-02    5.429556e-06
  5.886288e-02    5.442217e-06
  5.916181e-02    5.444071e-06
  5.946074e-02    5.422060e-06
  5.975967e-02    5.426159e-06
  6.005861e-02    5.444113e-06
  6.035754e-02    5.422075e-06
  6.065647e-02    5.402982e-06
  6.095540e-02    5.472841e-06
  6.125433e-02    5.513562e-06
  6.155326e-02    5.516271e-06
  6.185219e-02    5.413693e-06
  6.215112e-02    5.354334e-06
  6.245005e-02    5.352022e-06
  6.274898e-02    5.353766e-06
  6.304791e-02    5.325101e-06
  6.334684e-02    5.317990e-06
  6.364577e-02    5.340343e-06
  6.394470e-02    5.338894e-06
  6.424363e-02    5.326563e-06
  6.454256e-02    5.336014e-06
  6.484149e-02    5.366652e-06
  6.514042e-02    5.341517e-06
  6.543935e-02    5.322273e-06
  6.573828e-02    5.303894e-06
  6.603721e-02    5.325417e-06
  6.633614e-02    5.313387e-06
  6.663507e-02    5.335744e-06
  6.693400e-02    5.349704e-06
  6.723293e-02    5.345129e-06
  6.753186e-02    5.315692e-06
  6.783080e-02    5.302166e-06
  6.812973e-02    5.314884e-06
  6.842866e-02    5.336027e-06
  6.872759e-02    5.383434e-06
  6.902652e-02    5.345625e-06
  6.932545e-02    5.326026e-06
  6.962438e-02    5.325411e-06
  6.992331e-02    5.331909e-06
  7.022224e-02    5.320679e-06
  7.052117e-02    5.333483e-06
  7.082010e-02    5.367964e-06
  7.111903e-02    5.362121e-06
  7.141796e-02    5.330840e-06
  7.171689e-02    5.343985e-06
  7.201582e-02    5.335280e-06
  7.231475e-02    5.335505e-06
  7.261368e-02    5.349729e-06
  7.291261e-02    5.318792e-06
  7.321154e-02    5.325976e-06
  7.351047e-02    5.361796e-06
  7.380940e-02    5.382013e-06
  7.410833e-02    5.368103e-06
  7.440726e-02    5.351092e-06
  7.470619e-02    5.371550e-06
  7.500512e-02    5.351580e-06
  7.530405e-02    5.320898e-06
  7.560299e-02    5.343759e-06
  7.590192e-02    5.348803e-06
  7.620085e-02    5.324458e-06
  7.649978e-02    5.341129e-06
  7.679871e-02    5.339158e-06
  7.709764e-02    5.322127e-06
  7.739657e-02    5.331558e-06
  7.769550e-02    5.323014e-06
  7.799443e-02    5.339164e-06
  7.829336e-02    5.344785e-06
  7.859229e-02    5.304225e-06
  7.889122e-02    5.296260e-06
  7.919015e-02    5.314831e-06
  7.948908e-02    5.293163e-06
  7.978801e-02    5.273752e-06
  8.008694e-02    5.282465e-06
  8.038587e-02    5.249251e-06
  8.068480e-02    5.264344e-06
  8.098373e-02    5.270896e-06
  8.128266e-02    5.264853e-06
  8.158159e-02    5.279682e-06
  8.188052e-02    5.255972e-06
  8.217945e-02    5.250701e-06
  8.247838e-02    5.242921e-06
  8.277731e-02    5.216415e-06
  8.307624e-02    5.212673e-06
  8.337518e-02    5.215317e-06
  8.367411e-02    5.196427e-06
  8.397304e-02    5.177270e-06
  8.427197e-02    5.180334e-06
  8.457090e-02    5.210421e-06
  8.486983e-02    5.193166e-06
  8.516876e-02    5.169944e-06
  8.546769e-02    5.178406e-06
  8.576662e-02    5.155553e-06
  8.606555e-02    5.140438e-06
  8.636448e-02    5.134720e-06
  8.666341e-02    5.117949e-06
  8.696234e-02    5.131177e-06
  8.726127e-02    5.136993e-06
  8.756020e-02    5.102690e-06
  8.785913e-02    5.096123e-06
  8.815806e-02    5.082328e-06
  8.845699e-02    5.096427e-06
  8.875592e-02    5.090379e-06
  8.905485e-02    5.065168e-06
  8.935378e-02    5.041182e-06
  8.965271e-02    5.019757e-06
  8.995164e-02    5.023606e-06
  9.025057e-02    5.012491e-06
  9.054950e-02    4.995312e-06
  9.084843e-02    4.993245e-06
  9.114737e-02    4.997932e-06
  9.144630e-02    4.983947e-06
  9.174523e-02    4.978268e-06
  9.204416e-02    4.952883e-06
  9.234309e-02    4.931385e-06
  9.264202e-02    4.917174e-06
  9.294095e-02    4.893103e-06
  9.323988e-02    4.921319e-06
  9.353881e-02    4.947743e-06
  9.383774e-02    4.915764e-06
  9.413667e-02    4.913387e-06
  9.443560e-02    4.912541e-06
  9.473453e-02    4.874537e-06
  9.503346e-02    4.880420e-06
  9.533239e-02    4.878943e-06
  9.563132e-02    4.873734e-06
  9.593025e-02    4.861353e-06
  9.622918e-02    4.868153e-06
  9.652811e-02    4.888542e-06
  9.682704e-02    4.894408e-06
  9.712597e-02    4.891017e-06
  9.742490e-02    4.888519e-06
  9.772383e-02    4.858098e-06
  9.802276e-02    4.818293e-06
  9.832169e-02    4.775652e-06
  9.862062e-02    4.761662e-06
  9.891956e-02    4.741860e-06
  9.921849e-02    4.733377e-06
  9.951742e-02    4.745890e-06
  9.981635e-02    4.736731e-06
  1.001153e-01    4.728578e-06
  1.004142e-01    4.715498e-06
  1.007131e-01    4.704491e-06
  1.010121e-01    4.707418e-06
  1.013110e-01    4.688736e-06
  1.016099e-01    4.672353e-06
  1.019089e-01    4.679314e-06
  1.022078e-01    4.663038e-06
  1.025067e-01    4.630625e-06
  1.028057e-01    4.622311e-06
  1.031046e-01    4.610733e-06
  1.034035e-01    4.614251e-06
  1.037024e-01    4.593755e-06
  1.040014e-01    4.599121e-06
  1.043003e-01    4.595289e-06
  1.045992e-01    4.603467e-06
  1.048982e-01    4.583869e-06
  1.051971e-01    4.573810e-06
  1.054960e-01    4.562526e-06
  1.057950e-01    4.528267e-06
  1.060939e-01    4.524856e-06
  1.063928e-01    4.521802e-06
  1.066917e-01    4.530537e-06
  1.069907e-01    4.544064e-06
  1.072896e-01    4.535845e-06
  1.075885e-01    4.507353e-06
  1.078875e-01    4.499211e-06
  1.081864e-01    4.516107e-06
  1.084853e-01    4.516967e-06
  1.087843e-01    4.490796e-06
  1.090832e-01    4.486957e-06
  1.093821e-01    4.456753e-06
  1.096810e-01    4.446645e-06
  1.099800e-01    4.429750e-06
  1.102789e-01    4.454086e-06
  1.105778e-01    4.470938e-06
  1.108768e-01    4.464388e-06
  1.111757e-01    4.428598e-06
  1.114746e-01    4.395334e-06
  1.117736e-01    4.379785e-06
  1.120725e-01    4.387374e-06
  1.123714e-01    4.367649e-06
  1.126704e-01    4.338907e-06
  1.129693e-01    4.324530e-06
  1.132682e-01    4.273837e-06
  1.135671e-01    4.252251e-06
  1.138661e-01    4.236517e-06
  1.141650e-01    4.191942e-06
  1.144639e-01    4.194819e-06
  1.147629e-01    4.194967e-06
  1.150618e-01    4.166385e-06
  1.153607e-01    4.147837e-06
  1.156597e-01    4.138288e-06
  1.159586e-01    4.129838e-06
  1.162575e-01    4.116212e-06
  1.165564e-01    4.082342e-06
  1.168554e-01    4.086430e-06
  1.171543e-01    4.136029e-06
  1.174532e-01    4.164066e-06
  1.177522e-01    4.176641e-06
  1.180511e-01    4.144606e-06
  1.183500e-01    4.144693e-06
  1.186490e-01    4.140708e-06
  1.189479e-01    4.148000e-06
  1.192468e-01    4.157538e-06
  1.195458e-01    4.140181e-06
  1.198447e-01    4.055542e-06
  1.201436e-01    4.020343e-06
  1.204425e-01    4.055787e-06
  1.207415e-01    4.204073e-06
  1.210404e-01    5.029226e-06
  1.213393e-01    0.000000e+00
  1.216383e-01    0.000000e+00
  1.219372e-01    0.000000e+00
  1.222361e-01    0.000000e+00
  1.225351e-01    0.000000e+00
  1.228340e-01    0.000000e+00
  1.231329e-01    0.000000e+00
  1.234318e-01    0.000000e+00
  1.237308e-01    0.000000e+00
  1.240297e-01    0.000000e+00
  1.243286e-01    0.000000e+00
  1.246276e-01    0.000000e+00
  1.249265e-01    0.000000e+00
  1.252254e-01    0.000000e+00
  1.255244e-01    0.000000e+00
  1.258233e-01    0.000000e+00
  1.261222e-01    0.000000e+00
  1.264212e-01    0.000000e+00
  1.267201e-01    0.000000e+00
  1.270190e-01    0.000000e+00
  1.273179e-01    0.000000e+00
  1.276169e-01    0.000000e+00
  1.279158e-01    0.000000e+00
  1.282147e-01    0.000000e+00
  1.285137e-01    0.000000e+00
  1.288126e-01    0.000000e+00
  1.291115e-01    0.000000e+00
  1.294105e-01    0.000000e+00
  1.297094e-01    0.000000e+00
  1.300083e-01    0.000000e+00
  1.303072e-01    0.000000e+00
  1.306062e-01    0.000000e+00
  1.309051e-01    0.000000e+00
  1.312040e-01    0.000000e+00
  1.315030e-01    0.000000e+00
  1.318019e-01    0.000000e+00
  1.321008e-01    0.000000e+00
  1.323998e-01    0.000000e+00
  1.326987e-01    0.000000e+00
  1.329976e-01    0.000000e+00
  1.332965e-01    0.000000e+00
  1.335955e-01    0.000000e+00
  1.338944e-01    0.000000e+00
  1.341933e-01    0.000000e+00
  1.344923e-01    0.000000e+00
  1.347912e-01    0.000000e+00
  1.350901e-01    0.000000e+00
  1.353891e-01    0.000000e+00
  1.356880e-01    0.000000e+00
  1.359869e-01    0.000000e+00
  1.362859e-01    0.000000e+00
  1.365848e-01    0.000000e+00
  1.368837e-01    0.000000e+00
  1.371826e-01    0.000000e+00
  1.374816e-01    0.000000e+00
  1.377805e-01    0.000000e+00
  1.380794e-01    0.000000e+00
  1.383784e-01    0.000000e+00
  1.386773e-01    0.000000e+00
  1.389762e-01    0.000000e+00
  1.392752e-01    0.000000e+00
  1.395741e-01    0.000000e+00
  1.398730e-01    0.000000e+00
  1.401719e-01    0.000000e+00
  1.404709e-01    0.000000e+00
  1.407698e-01    0.000000e+00
  1.410687e-01    0.000000e+00
  1.413677e-01    0.000000e+00
  1.416666e-01    0.000000e+00
  1.419655e-01    0.000000e+00
  1.422645e-01    0.000000e+00
  1.425634e-01    0.000000e+00
  1.428623e-01    0.000000e+00
  1.431613e-01    0.000000e+00
  1.434602e-01    0.000000e+00
  1.437591e-01    0.000000e+00
  1.440580e-01    0.000000e+00
  1.443570e-01    0.000000e+00
  1.446559e-01    0.000000e+00
  1.449548e-01    0.000000e+00
  1.452538e-01    0.000000e+00
  1.455527e-01    0.000000e+00
  1.458516e-01    0.000000e+00
  1.461506e-01    0.000000e+00
  1.464495e-01    0.000000e+00
  1.467484e-01    0.000000e+00
  1.470473e-01    0.000000e+00
  1.473463e-01    0.000000e+00
  1.476452e-01    0.000000e+00
  1.479441e-01    0.000000e+00
  1.482431e-01    0.000000e+00
  1.485420e-01    0.000000e+00
  1.488409e-01    0.000000e+00
  1.491399e-01    0.000000e+00
  1.494388e-01    0.000000e+00
  1.497377e-01    0.000000e+00
  1.500367e-01    0.000000e+00
  1.503356e-01    0.000000e+00
  1.506345e-01    0.000000e+00
  1.509334e-01    0.000000e+00
  1.512324e-01    0.000000e+00
  1.515313e-01    0.000000e+00
  1.518302e-01    0.000000e+00
  1.521292e-01    0.000000e+00
  1.524281e-01    0.000000e+00
  1.527270e-01    0.000000e+00
  1.530260e-01    0.000000e+00
  1.533249e-01    0.000000e+00
  1.536238e-01    0.000000e+00
