# == pyFAI calibration ==
# Distance Sample to Detector: 2.266 m
# PONI: 5.659e-02, 4.293e-02 m
# Rotations: 0.000000 0.000000 0.000000 rad
# 
# == Fit2d calibration ==
# Distance Sample-beamCenter: 2266.000 mm
# Center: x=249.594, y=329.012 pix
# Tilt: 0.000 deg  TiltPlanRot: 0.000 deg
# 
# Detector Pilatus 300k	 PixelSize= 1.720e-04, 1.720e-04 m
#    Detector has a mask: True 
#    Detector has a dark current: False 
#    detector has a flat field: False 
# 
# Wavelength: 1.27818e-10 m
# Mask applied: user provided
# Dark current applied: False
# Flat field applied: False
# Polarization factor: None
# Normalization factor: 24714660.2
# --> AL_F127_220301_4e32a564-c6f7-48d6-976f-8443a9b1fab1_0_r1d.csv
#        q_A^-1             I 
  4.457554e-03    1.894444e-04
  4.756484e-03    1.463790e-04
  5.055415e-03    1.024187e-04
  5.354345e-03    6.964547e-05
  5.653276e-03    5.218182e-05
  5.952206e-03    8.190959e-05
  6.251136e-03    7.475604e-05
  6.550067e-03    6.504588e-05
  6.848997e-03    5.546875e-05
  7.147927e-03    4.708761e-05
  7.446858e-03    4.023204e-05
  7.745788e-03    3.459557e-05
  8.044719e-03    2.986713e-05
  8.343649e-03    2.605787e-05
  8.642579e-03    2.290413e-05
  8.941510e-03    2.012604e-05
  9.240440e-03    1.772952e-05
  9.539371e-03    1.592527e-05
  9.838301e-03    1.424751e-05
  1.013723e-02    1.282941e-05
  1.043616e-02    1.165251e-05
  1.073509e-02    1.046916e-05
  1.103402e-02    9.538925e-06
  1.133295e-02    8.796213e-06
  1.163188e-02    8.027515e-06
  1.193081e-02    7.363678e-06
  1.222974e-02    6.807028e-06
  1.252867e-02    6.327174e-06
  1.282760e-02    5.849097e-06
  1.312654e-02    5.436455e-06
  1.342547e-02    5.100345e-06
  1.372440e-02    4.793400e-06
  1.402333e-02    4.462539e-06
  1.432226e-02    4.171343e-06
  1.462119e-02    3.942444e-06
  1.492012e-02    3.758626e-06
  1.521905e-02    3.534818e-06
  1.551798e-02    3.374417e-06
  1.581691e-02    3.239360e-06
  1.611584e-02    3.126022e-06
  1.641477e-02    2.996157e-06
  1.671370e-02    2.889387e-06
  1.701263e-02    2.790015e-06
  1.731156e-02    2.714207e-06
  1.761049e-02    2.618819e-06
  1.790942e-02    2.567553e-06
  1.820835e-02    2.528071e-06
  1.850728e-02    2.480713e-06
  1.880621e-02    2.449295e-06
  1.910514e-02    2.436064e-06
  1.940407e-02    2.405089e-06
  1.970300e-02    2.377883e-06
  2.000193e-02    2.397133e-06
  2.030086e-02    2.436609e-06
  2.059979e-02    2.458007e-06
  2.089873e-02    2.480642e-06
  2.119766e-02    2.535229e-06
  2.149659e-02    2.592220e-06
  2.179552e-02    2.646945e-06
  2.209445e-02    2.705036e-06
  2.239338e-02    2.772538e-06
  2.269231e-02    2.862448e-06
  2.299124e-02    2.939293e-06
  2.329017e-02    3.013318e-06
  2.358910e-02    3.104784e-06
  2.388803e-02    3.188212e-06
  2.418696e-02    3.242725e-06
  2.448589e-02    3.266408e-06
  2.478482e-02    3.330441e-06
  2.508375e-02    3.391531e-06
  2.538268e-02    3.417080e-06
  2.568161e-02    3.411483e-06
  2.598054e-02    3.418515e-06
  2.627947e-02    3.414039e-06
  2.657840e-02    3.400052e-06
  2.687733e-02    3.370053e-06
  2.717626e-02    3.317178e-06
  2.747519e-02    3.281640e-06
  2.777412e-02    3.247857e-06
  2.807305e-02    3.185110e-06
  2.837198e-02    3.145412e-06
  2.867092e-02    3.103436e-06
  2.896985e-02    3.044011e-06
  2.926878e-02    2.997162e-06
  2.956771e-02    2.959755e-06
  2.986664e-02    2.888279e-06
  3.016557e-02    2.850137e-06
  3.046450e-02    2.818402e-06
  3.076343e-02    2.783622e-06
  3.106236e-02    2.738301e-06
  3.136129e-02    2.699360e-06
  3.166022e-02    2.683170e-06
  3.195915e-02    2.686489e-06
  3.225808e-02    2.653348e-06
  3.255701e-02    2.617904e-06
  3.285594e-02    2.594461e-06
  3.315487e-02    2.561945e-06
  3.345380e-02    2.557950e-06
  3.375273e-02    2.544524e-06
  3.405166e-02    2.547045e-06
  3.435059e-02    2.545352e-06
  3.464952e-02    2.528556e-06
  3.494845e-02    2.508986e-06
  3.524738e-02    2.506715e-06
  3.554631e-02    2.517988e-06
  3.584524e-02    2.515130e-06
  3.614417e-02    2.506925e-06
  3.644310e-02    2.501647e-06
  3.674204e-02    2.494507e-06
  3.704097e-02    2.508761e-06
  3.733990e-02    2.525376e-06
  3.763883e-02    2.533034e-06
  3.793776e-02    2.545557e-06
  3.823669e-02    2.536351e-06
  3.853562e-02    2.525925e-06
  3.883455e-02    2.550602e-06
  3.913348e-02    2.563780e-06
  3.943241e-02    2.568764e-06
  3.973134e-02    2.583737e-06
  4.003027e-02    2.598172e-06
  4.032920e-02    2.610349e-06
  4.062813e-02    2.601626e-06
  4.092706e-02    2.617208e-06
  4.122599e-02    2.633876e-06
  4.152492e-02    2.637479e-06
  4.182385e-02    2.648902e-06
  4.212278e-02    2.647943e-06
  4.242171e-02    2.664085e-06
  4.272064e-02    2.692265e-06
  4.301957e-02    2.692390e-06
  4.331850e-02    2.686343e-06
  4.361743e-02    2.691183e-06
  4.391636e-02    2.686607e-06
  4.421529e-02    2.679828e-06
  4.451423e-02    2.686545e-06
  4.481316e-02    2.687423e-06
  4.511209e-02    2.664385e-06
  4.541102e-02    2.647693e-06
  4.570995e-02    2.632276e-06
  4.600888e-02    2.641387e-06
  4.630781e-02    2.646708e-06
  4.660674e-02    2.627883e-06
  4.690567e-02    2.601500e-06
  4.720460e-02    2.574877e-06
  4.750353e-02    2.556292e-06
  4.780246e-02    2.529823e-06
  4.810139e-02    2.497403e-06
  4.840032e-02    2.478346e-06
  4.869925e-02    2.453782e-06
  4.899818e-02    2.421187e-06
  4.929711e-02    2.394060e-06
  4.959604e-02    2.353087e-06
  4.989497e-02    2.318989e-06
  5.019390e-02    2.288449e-06
  5.049283e-02    2.258129e-06
  5.079176e-02    2.222098e-06
  5.109069e-02    2.189587e-06
  5.138962e-02    2.148295e-06
  5.168855e-02    2.117709e-06
  5.198748e-02    2.103663e-06
  5.228642e-02    2.066684e-06
  5.258535e-02    2.011774e-06
  5.288428e-02    1.969002e-06
  5.318321e-02    1.929448e-06
  5.348214e-02    1.903306e-06
  5.378107e-02    1.865522e-06
  5.408000e-02    1.850378e-06
  5.437893e-02    1.812386e-06
  5.467786e-02    1.778905e-06
  5.497679e-02    1.750569e-06
  5.527572e-02    1.714003e-06
  5.557465e-02    1.682820e-06
  5.587358e-02    1.665337e-06
  5.617251e-02    1.637668e-06
  5.647144e-02    1.612442e-06
  5.677037e-02    1.580240e-06
  5.706930e-02    1.543291e-06
  5.736823e-02    1.514787e-06
  5.766716e-02    1.496662e-06
  5.796609e-02    1.488582e-06
  5.826502e-02    1.462890e-06
  5.856395e-02    1.426422e-06
  5.886288e-02    1.400833e-06
  5.916181e-02    1.385429e-06
  5.946074e-02    1.365201e-06
  5.975967e-02    1.353281e-06
  6.005861e-02    1.330312e-06
  6.035754e-02    1.321210e-06
  6.065647e-02    1.315525e-06
  6.095540e-02    1.294612e-06
  6.125433e-02    1.288193e-06
  6.155326e-02    1.266724e-06
  6.185219e-02    1.243058e-06
  6.215112e-02    1.232506e-06
  6.245005e-02    1.213225e-06
  6.274898e-02    1.190239e-06
  6.304791e-02    1.175718e-06
  6.334684e-02    1.169178e-06
  6.364577e-02    1.159525e-06
  6.394470e-02    1.140105e-06
  6.424363e-02    1.130066e-06
  6.454256e-02    1.118925e-06
  6.484149e-02    1.102462e-06
  6.514042e-02    1.087515e-06
  6.543935e-02    1.078081e-06
  6.573828e-02    1.071387e-06
  6.603721e-02    1.062796e-06
  6.633614e-02    1.053086e-06
  6.663507e-02    1.046442e-06
  6.693400e-02    1.034398e-06
  6.723293e-02    1.015288e-06
  6.753186e-02    1.015499e-06
  6.783080e-02    1.011959e-06
  6.812973e-02    9.995443e-07
  6.842866e-02    9.854884e-07
  6.872759e-02    9.779133e-07
  6.902652e-02    9.694689e-07
  6.932545e-02    9.635771e-07
  6.962438e-02    9.538950e-07
  6.992331e-02    9.476902e-07
  7.022224e-02    9.430307e-07
  7.052117e-02    9.293701e-07
  7.082010e-02    9.186851e-07
  7.111903e-02    9.202725e-07
  7.141796e-02    9.198162e-07
  7.171689e-02    9.136926e-07
  7.201582e-02    8.999393e-07
  7.231475e-02    8.914517e-07
  7.261368e-02    8.936244e-07
  7.291261e-02    8.858464e-07
  7.321154e-02    8.723046e-07
  7.351047e-02    8.745878e-07
  7.380940e-02    8.770241e-07
  7.410833e-02    8.664503e-07
  7.440726e-02    8.605686e-07
  7.470619e-02    8.544238e-07
  7.500512e-02    8.516916e-07
  7.530405e-02    8.498113e-07
  7.560299e-02    8.452242e-07
  7.590192e-02    8.368382e-07
  7.620085e-02    8.366342e-07
  7.649978e-02    8.273676e-07
  7.679871e-02    8.243193e-07
  7.709764e-02    8.139700e-07
  7.739657e-02    8.178204e-07
  7.769550e-02    8.235228e-07
  7.799443e-02    8.169681e-07
  7.829336e-02    8.020375e-07
  7.859229e-02    7.897723e-07
  7.889122e-02    7.965600e-07
  7.919015e-02    8.055483e-07
  7.948908e-02    7.992971e-07
  7.978801e-02    7.968963e-07
  8.008694e-02    7.918744e-07
  8.038587e-02    7.919516e-07
  8.068480e-02    7.927256e-07
  8.098373e-02    7.893711e-07
  8.128266e-02    7.871932e-07
  8.158159e-02    7.819808e-07
  8.188052e-02    7.775000e-07
  8.217945e-02    7.806776e-07
  8.247838e-02    7.714281e-07
  8.277731e-02    7.608588e-07
  8.307624e-02    7.633699e-07
  8.337518e-02    7.703421e-07
  8.367411e-02    7.732749e-07
  8.397304e-02    7.742771e-07
  8.427197e-02    7.782156e-07
  8.457090e-02    7.631043e-07
  8.486983e-02    7.619484e-07
  8.516876e-02    7.671348e-07
  8.546769e-02    7.663905e-07
  8.576662e-02    7.612459e-07
  8.606555e-02    7.561360e-07
  8.636448e-02    7.562586e-07
  8.666341e-02    7.568713e-07
  8.696234e-02    7.613536e-07
  8.726127e-02    7.589815e-07
  8.756020e-02    7.541784e-07
  8.785913e-02    7.534732e-07
  8.815806e-02    7.470754e-07
  8.845699e-02    7.470030e-07
  8.875592e-02    7.525638e-07
  8.905485e-02    7.517701e-07
  8.935378e-02    7.534416e-07
  8.965271e-02    7.554573e-07
  8.995164e-02    7.505966e-07
  9.025057e-02    7.491584e-07
  9.054950e-02    7.511758e-07
  9.084843e-02    7.490283e-07
  9.114737e-02    7.464625e-07
  9.144630e-02    7.437791e-07
  9.174523e-02    7.473380e-07
  9.204416e-02    7.457273e-07
  9.234309e-02    7.440730e-07
  9.264202e-02    7.500356e-07
  9.294095e-02    7.510146e-07
  9.323988e-02    7.493015e-07
  9.353881e-02    7.457903e-07
  9.383774e-02    7.406154e-07
  9.413667e-02    7.421053e-07
  9.443560e-02    7.454631e-07
  9.473453e-02    7.437085e-07
  9.503346e-02    7.435591e-07
  9.533239e-02    7.437818e-07
  9.563132e-02    7.407774e-07
  9.593025e-02    7.478992e-07
  9.622918e-02    7.423551e-07
  9.652811e-02    7.346965e-07
  9.682704e-02    7.382938e-07
  9.712597e-02    7.456445e-07
  9.742490e-02    7.413002e-07
  9.772383e-02    7.480213e-07
  9.802276e-02    7.501116e-07
  9.832169e-02    7.476340e-07
  9.862062e-02    7.468953e-07
  9.891956e-02    7.421175e-07
  9.921849e-02    7.432164e-07
  9.951742e-02    7.450279e-07
  9.981635e-02    7.358407e-07
  1.001153e-01    7.328478e-07
  1.004142e-01    7.336097e-07
  1.007131e-01    7.339203e-07
  1.010121e-01    7.380074e-07
  1.013110e-01    7.399489e-07
  1.016099e-01    7.389844e-07
  1.019089e-01    7.360867e-07
  1.022078e-01    7.385893e-07
  1.025067e-01    7.414860e-07
  1.028057e-01    7.400423e-07
  1.031046e-01    7.406468e-07
  1.034035e-01    7.387177e-07
  1.037024e-01    7.379783e-07
  1.040014e-01    7.353452e-07
  1.043003e-01    7.273151e-07
  1.045992e-01    7.325205e-07
  1.048982e-01    7.373626e-07
  1.051971e-01    7.347627e-07
  1.054960e-01    7.321103e-07
  1.057950e-01    7.312224e-07
  1.060939e-01    7.275420e-07
  1.063928e-01    7.254514e-07
  1.066917e-01    7.227915e-07
  1.069907e-01    7.327600e-07
  1.072896e-01    7.271813e-07
  1.075885e-01    7.236159e-07
  1.078875e-01    7.292263e-07
  1.081864e-01    7.270805e-07
  1.084853e-01    7.316283e-07
  1.087843e-01    7.262942e-07
  1.090832e-01    7.291332e-07
  1.093821e-01    7.299325e-07
  1.096810e-01    7.296180e-07
  1.099800e-01    7.233709e-07
  1.102789e-01    7.233529e-07
  1.105778e-01    7.251413e-07
  1.108768e-01    7.158654e-07
  1.111757e-01    7.149050e-07
  1.114746e-01    7.142764e-07
  1.117736e-01    7.121846e-07
  1.120725e-01    7.024597e-07
  1.123714e-01    6.988034e-07
  1.126704e-01    7.060812e-07
  1.129693e-01    6.997145e-07
  1.132682e-01    6.947193e-07
  1.135671e-01    6.915092e-07
  1.138661e-01    6.827592e-07
  1.141650e-01    6.778533e-07
  1.144639e-01    6.757193e-07
  1.147629e-01    6.614677e-07
  1.150618e-01    6.671219e-07
  1.153607e-01    6.707677e-07
  1.156597e-01    6.675504e-07
  1.159586e-01    6.698826e-07
  1.162575e-01    6.736272e-07
  1.165564e-01    6.755540e-07
  1.168554e-01    6.699283e-07
  1.171543e-01    6.578013e-07
  1.174532e-01    6.636471e-07
  1.177522e-01    6.666008e-07
  1.180511e-01    6.674566e-07
  1.183500e-01    6.657679e-07
  1.186490e-01    6.516944e-07
  1.189479e-01    6.482232e-07
  1.192468e-01    6.655980e-07
  1.195458e-01    6.742142e-07
  1.198447e-01    6.832051e-07
  1.201436e-01    6.943164e-07
  1.204425e-01    6.830355e-07
  1.207415e-01    7.004402e-07
  1.210404e-01    8.099694e-07
  1.213393e-01    0.000000e+00
  1.216383e-01    0.000000e+00
  1.219372e-01    0.000000e+00
  1.222361e-01    0.000000e+00
  1.225351e-01    0.000000e+00
  1.228340e-01    0.000000e+00
  1.231329e-01    0.000000e+00
  1.234318e-01    0.000000e+00
  1.237308e-01    0.000000e+00
  1.240297e-01    0.000000e+00
  1.243286e-01    0.000000e+00
  1.246276e-01    0.000000e+00
  1.249265e-01    0.000000e+00
  1.252254e-01    0.000000e+00
  1.255244e-01    0.000000e+00
  1.258233e-01    0.000000e+00
  1.261222e-01    0.000000e+00
  1.264212e-01    0.000000e+00
  1.267201e-01    0.000000e+00
  1.270190e-01    0.000000e+00
  1.273179e-01    0.000000e+00
  1.276169e-01    0.000000e+00
  1.279158e-01    0.000000e+00
  1.282147e-01    0.000000e+00
  1.285137e-01    0.000000e+00
  1.288126e-01    0.000000e+00
  1.291115e-01    0.000000e+00
  1.294105e-01    0.000000e+00
  1.297094e-01    0.000000e+00
  1.300083e-01    0.000000e+00
  1.303072e-01    0.000000e+00
  1.306062e-01    0.000000e+00
  1.309051e-01    0.000000e+00
  1.312040e-01    0.000000e+00
  1.315030e-01    0.000000e+00
  1.318019e-01    0.000000e+00
  1.321008e-01    0.000000e+00
  1.323998e-01    0.000000e+00
  1.326987e-01    0.000000e+00
  1.329976e-01    0.000000e+00
  1.332965e-01    0.000000e+00
  1.335955e-01    0.000000e+00
  1.338944e-01    0.000000e+00
  1.341933e-01    0.000000e+00
  1.344923e-01    0.000000e+00
  1.347912e-01    0.000000e+00
  1.350901e-01    0.000000e+00
  1.353891e-01    0.000000e+00
  1.356880e-01    0.000000e+00
  1.359869e-01    0.000000e+00
  1.362859e-01    0.000000e+00
  1.365848e-01    0.000000e+00
  1.368837e-01    0.000000e+00
  1.371826e-01    0.000000e+00
  1.374816e-01    0.000000e+00
  1.377805e-01    0.000000e+00
  1.380794e-01    0.000000e+00
  1.383784e-01    0.000000e+00
  1.386773e-01    0.000000e+00
  1.389762e-01    0.000000e+00
  1.392752e-01    0.000000e+00
  1.395741e-01    0.000000e+00
  1.398730e-01    0.000000e+00
  1.401719e-01    0.000000e+00
  1.404709e-01    0.000000e+00
  1.407698e-01    0.000000e+00
  1.410687e-01    0.000000e+00
  1.413677e-01    0.000000e+00
  1.416666e-01    0.000000e+00
  1.419655e-01    0.000000e+00
  1.422645e-01    0.000000e+00
  1.425634e-01    0.000000e+00
  1.428623e-01    0.000000e+00
  1.431613e-01    0.000000e+00
  1.434602e-01    0.000000e+00
  1.437591e-01    0.000000e+00
  1.440580e-01    0.000000e+00
  1.443570e-01    0.000000e+00
  1.446559e-01    0.000000e+00
  1.449548e-01    0.000000e+00
  1.452538e-01    0.000000e+00
  1.455527e-01    0.000000e+00
  1.458516e-01    0.000000e+00
  1.461506e-01    0.000000e+00
  1.464495e-01    0.000000e+00
  1.467484e-01    0.000000e+00
  1.470473e-01    0.000000e+00
  1.473463e-01    0.000000e+00
  1.476452e-01    0.000000e+00
  1.479441e-01    0.000000e+00
  1.482431e-01    0.000000e+00
  1.485420e-01    0.000000e+00
  1.488409e-01    0.000000e+00
  1.491399e-01    0.000000e+00
  1.494388e-01    0.000000e+00
  1.497377e-01    0.000000e+00
  1.500367e-01    0.000000e+00
  1.503356e-01    0.000000e+00
  1.506345e-01    0.000000e+00
  1.509334e-01    0.000000e+00
  1.512324e-01    0.000000e+00
  1.515313e-01    0.000000e+00
  1.518302e-01    0.000000e+00
  1.521292e-01    0.000000e+00
  1.524281e-01    0.000000e+00
  1.527270e-01    0.000000e+00
  1.530260e-01    0.000000e+00
  1.533249e-01    0.000000e+00
  1.536238e-01    0.000000e+00
