# == pyFAI calibration ==
# Distance Sample to Detector: 2.266 m
# PONI: 5.659e-02, 4.293e-02 m
# Rotations: 0.000000 0.000000 0.000000 rad
# 
# == Fit2d calibration ==
# Distance Sample-beamCenter: 2266.000 mm
# Center: x=249.594, y=329.012 pix
# Tilt: 0.000 deg  TiltPlanRot: 0.000 deg
# 
# Detector Pilatus 300k	 PixelSize= 1.720e-04, 1.720e-04 m
#    Detector has a mask: True 
#    Detector has a dark current: False 
#    detector has a flat field: False 
# 
# Wavelength: 1.27818e-10 m
# Mask applied: user provided
# Dark current applied: False
# Flat field applied: False
# Polarization factor: None
# Normalization factor: 31384946.200000003
# --> AL_F127_220301_8998a976-ecfc-4220-861c-2ed148312fab_0_r1d.csv
#        q_A^-1             I 
  4.457554e-03    1.298075e-04
  4.756484e-03    1.005513e-04
  5.055415e-03    7.123982e-05
  5.354345e-03    5.056260e-05
  5.653276e-03    3.864370e-05
  5.952206e-03    5.876116e-05
  6.251136e-03    5.398188e-05
  6.550067e-03    4.692899e-05
  6.848997e-03    4.032452e-05
  7.147927e-03    3.469078e-05
  7.446858e-03    2.994579e-05
  7.745788e-03    2.617295e-05
  8.044719e-03    2.313734e-05
  8.343649e-03    2.066174e-05
  8.642579e-03    1.855081e-05
  8.941510e-03    1.663715e-05
  9.240440e-03    1.522800e-05
  9.539371e-03    1.398635e-05
  9.838301e-03    1.280320e-05
  1.013723e-02    1.190613e-05
  1.043616e-02    1.115569e-05
  1.073509e-02    1.047938e-05
  1.103402e-02    9.910887e-06
  1.133295e-02    9.488504e-06
  1.163188e-02    9.079526e-06
  1.193081e-02    8.727513e-06
  1.222974e-02    8.415909e-06
  1.252867e-02    8.155233e-06
  1.282760e-02    7.909406e-06
  1.312654e-02    7.710222e-06
  1.342547e-02    7.613267e-06
  1.372440e-02    7.511776e-06
  1.402333e-02    7.416400e-06
  1.432226e-02    7.379104e-06
  1.462119e-02    7.425481e-06
  1.492012e-02    7.418252e-06
  1.521905e-02    7.410878e-06
  1.551798e-02    7.484547e-06
  1.581691e-02    7.533830e-06
  1.611584e-02    7.636067e-06
  1.641477e-02    7.769189e-06
  1.671370e-02    7.845736e-06
  1.701263e-02    8.031380e-06
  1.731156e-02    8.213963e-06
  1.761049e-02    8.424237e-06
  1.790942e-02    8.592599e-06
  1.820835e-02    8.805267e-06
  1.850728e-02    9.061684e-06
  1.880621e-02    9.289466e-06
  1.910514e-02    9.542816e-06
  1.940407e-02    9.842999e-06
  1.970300e-02    1.008083e-05
  2.000193e-02    1.029753e-05
  2.030086e-02    1.055648e-05
  2.059979e-02    1.080309e-05
  2.089873e-02    1.106010e-05
  2.119766e-02    1.126213e-05
  2.149659e-02    1.148015e-05
  2.179552e-02    1.166853e-05
  2.209445e-02    1.180459e-05
  2.239338e-02    1.193284e-05
  2.269231e-02    1.201317e-05
  2.299124e-02    1.208520e-05
  2.329017e-02    1.211179e-05
  2.358910e-02    1.207619e-05
  2.388803e-02    1.204176e-05
  2.418696e-02    1.197946e-05
  2.448589e-02    1.188883e-05
  2.478482e-02    1.171372e-05
  2.508375e-02    1.149989e-05
  2.538268e-02    1.131199e-05
  2.568161e-02    1.110787e-05
  2.598054e-02    1.089407e-05
  2.627947e-02    1.063992e-05
  2.657840e-02    1.033586e-05
  2.687733e-02    1.003246e-05
  2.717626e-02    9.728612e-06
  2.747519e-02    9.449552e-06
  2.777412e-02    9.183011e-06
  2.807305e-02    8.902081e-06
  2.837198e-02    8.601384e-06
  2.867092e-02    8.293760e-06
  2.896985e-02    8.030877e-06
  2.926878e-02    7.780952e-06
  2.956771e-02    7.527366e-06
  2.986664e-02    7.283841e-06
  3.016557e-02    7.044224e-06
  3.046450e-02    6.817869e-06
  3.076343e-02    6.607189e-06
  3.106236e-02    6.398192e-06
  3.136129e-02    6.214906e-06
  3.166022e-02    6.047008e-06
  3.195915e-02    5.881412e-06
  3.225808e-02    5.717610e-06
  3.255701e-02    5.515393e-06
  3.285594e-02    5.354499e-06
  3.315487e-02    5.213579e-06
  3.345380e-02    5.088346e-06
  3.375273e-02    4.970746e-06
  3.405166e-02    4.844975e-06
  3.435059e-02    4.745311e-06
  3.464952e-02    4.610233e-06
  3.494845e-02    4.522549e-06
  3.524738e-02    4.437439e-06
  3.554631e-02    4.327604e-06
  3.584524e-02    4.235720e-06
  3.614417e-02    4.173968e-06
  3.644310e-02    4.097802e-06
  3.674204e-02    4.016360e-06
  3.704097e-02    3.943936e-06
  3.733990e-02    3.854922e-06
  3.763883e-02    3.809414e-06
  3.793776e-02    3.765535e-06
  3.823669e-02    3.703215e-06
  3.853562e-02    3.631920e-06
  3.883455e-02    3.562247e-06
  3.913348e-02    3.533347e-06
  3.943241e-02    3.481167e-06
  3.973134e-02    3.421677e-06
  4.003027e-02    3.395807e-06
  4.032920e-02    3.359596e-06
  4.062813e-02    3.293619e-06
  4.092706e-02    3.260546e-06
  4.122599e-02    3.233175e-06
  4.152492e-02    3.183365e-06
  4.182385e-02    3.137126e-06
  4.212278e-02    3.089999e-06
  4.242171e-02    3.044589e-06
  4.272064e-02    3.001898e-06
  4.301957e-02    2.973202e-06
  4.331850e-02    2.939033e-06
  4.361743e-02    2.889587e-06
  4.391636e-02    2.853077e-06
  4.421529e-02    2.817309e-06
  4.451423e-02    2.776174e-06
  4.481316e-02    2.731510e-06
  4.511209e-02    2.690680e-06
  4.541102e-02    2.653855e-06
  4.570995e-02    2.611326e-06
  4.600888e-02    2.572944e-06
  4.630781e-02    2.540093e-06
  4.660674e-02    2.497324e-06
  4.690567e-02    2.457462e-06
  4.720460e-02    2.417062e-06
  4.750353e-02    2.378298e-06
  4.780246e-02    2.338659e-06
  4.810139e-02    2.301570e-06
  4.840032e-02    2.248125e-06
  4.869925e-02    2.211188e-06
  4.899818e-02    2.178788e-06
  4.929711e-02    2.146458e-06
  4.959604e-02    2.110922e-06
  4.989497e-02    2.051002e-06
  5.019390e-02    2.013552e-06
  5.049283e-02    1.982585e-06
  5.079176e-02    1.951844e-06
  5.109069e-02    1.918554e-06
  5.138962e-02    1.880194e-06
  5.168855e-02    1.836606e-06
  5.198748e-02    1.804009e-06
  5.228642e-02    1.778171e-06
  5.258535e-02    1.730572e-06
  5.288428e-02    1.679621e-06
  5.318321e-02    1.653857e-06
  5.348214e-02    1.618824e-06
  5.378107e-02    1.581437e-06
  5.408000e-02    1.553889e-06
  5.437893e-02    1.518905e-06
  5.467786e-02    1.499998e-06
  5.497679e-02    1.462154e-06
  5.527572e-02    1.424519e-06
  5.557465e-02    1.393411e-06
  5.587358e-02    1.372438e-06
  5.617251e-02    1.347858e-06
  5.647144e-02    1.322197e-06
  5.677037e-02    1.291501e-06
  5.706930e-02    1.269779e-06
  5.736823e-02    1.240665e-06
  5.766716e-02    1.210544e-06
  5.796609e-02    1.204244e-06
  5.826502e-02    1.177831e-06
  5.856395e-02    1.151216e-06
  5.886288e-02    1.129849e-06
  5.916181e-02    1.116286e-06
  5.946074e-02    1.092174e-06
  5.975967e-02    1.069501e-06
  6.005861e-02    1.054047e-06
  6.035754e-02    1.041950e-06
  6.065647e-02    1.023747e-06
  6.095540e-02    1.015750e-06
  6.125433e-02    1.002113e-06
  6.155326e-02    9.805708e-07
  6.185219e-02    9.615920e-07
  6.215112e-02    9.424112e-07
  6.245005e-02    9.235637e-07
  6.274898e-02    9.154662e-07
  6.304791e-02    9.055311e-07
  6.334684e-02    8.919799e-07
  6.364577e-02    8.798496e-07
  6.394470e-02    8.679549e-07
  6.424363e-02    8.589303e-07
  6.454256e-02    8.378313e-07
  6.484149e-02    8.271362e-07
  6.514042e-02    8.268937e-07
  6.543935e-02    8.170775e-07
  6.573828e-02    7.994189e-07
  6.603721e-02    7.911812e-07
  6.633614e-02    7.886325e-07
  6.663507e-02    7.805230e-07
  6.693400e-02    7.705813e-07
  6.723293e-02    7.595546e-07
  6.753186e-02    7.536532e-07
  6.783080e-02    7.494190e-07
  6.812973e-02    7.359132e-07
  6.842866e-02    7.256552e-07
  6.872759e-02    7.274079e-07
  6.902652e-02    7.154792e-07
  6.932545e-02    6.984882e-07
  6.962438e-02    7.020283e-07
  6.992331e-02    7.022140e-07
  7.022224e-02    6.955980e-07
  7.052117e-02    6.813206e-07
  7.082010e-02    6.774463e-07
  7.111903e-02    6.740638e-07
  7.141796e-02    6.661365e-07
  7.171689e-02    6.615282e-07
  7.201582e-02    6.609298e-07
  7.231475e-02    6.632717e-07
  7.261368e-02    6.590910e-07
  7.291261e-02    6.557217e-07
  7.321154e-02    6.492074e-07
  7.351047e-02    6.384986e-07
  7.380940e-02    6.362923e-07
  7.410833e-02    6.361985e-07
  7.440726e-02    6.373252e-07
  7.470619e-02    6.297872e-07
  7.500512e-02    6.224583e-07
  7.530405e-02    6.181463e-07
  7.560299e-02    6.196223e-07
  7.590192e-02    6.154887e-07
  7.620085e-02    6.132097e-07
  7.649978e-02    6.078326e-07
  7.679871e-02    6.148741e-07
  7.709764e-02    6.140071e-07
  7.739657e-02    6.160187e-07
  7.769550e-02    6.141310e-07
  7.799443e-02    6.077616e-07
  7.829336e-02    6.033437e-07
  7.859229e-02    6.051814e-07
  7.889122e-02    6.039133e-07
  7.919015e-02    6.038687e-07
  7.948908e-02    6.081195e-07
  7.978801e-02    6.064960e-07
  8.008694e-02    6.008980e-07
  8.038587e-02    6.025979e-07
  8.068480e-02    5.983894e-07
  8.098373e-02    5.936164e-07
  8.128266e-02    5.963018e-07
  8.158159e-02    5.929708e-07
  8.188052e-02    5.917862e-07
  8.217945e-02    5.943018e-07
  8.247838e-02    5.981202e-07
  8.277731e-02    5.927745e-07
  8.307624e-02    5.940960e-07
  8.337518e-02    5.949980e-07
  8.367411e-02    5.890458e-07
  8.397304e-02    5.929831e-07
  8.427197e-02    5.941118e-07
  8.457090e-02    5.912822e-07
  8.486983e-02    5.903031e-07
  8.516876e-02    5.928085e-07
  8.546769e-02    5.934365e-07
  8.576662e-02    5.903774e-07
  8.606555e-02    5.920011e-07
  8.636448e-02    5.942657e-07
  8.666341e-02    5.926055e-07
  8.696234e-02    5.918488e-07
  8.726127e-02    5.920966e-07
  8.756020e-02    5.935404e-07
  8.785913e-02    5.898512e-07
  8.815806e-02    5.861114e-07
  8.845699e-02    5.855639e-07
  8.875592e-02    5.901308e-07
  8.905485e-02    5.891404e-07
  8.935378e-02    5.947597e-07
  8.965271e-02    5.979958e-07
  8.995164e-02    5.952592e-07
  9.025057e-02    5.939303e-07
  9.054950e-02    5.941554e-07
  9.084843e-02    5.956010e-07
  9.114737e-02    5.954808e-07
  9.144630e-02    5.937730e-07
  9.174523e-02    5.937114e-07
  9.204416e-02    5.967528e-07
  9.234309e-02    5.975191e-07
  9.264202e-02    5.954137e-07
  9.294095e-02    5.981976e-07
  9.323988e-02    5.975402e-07
  9.353881e-02    5.915206e-07
  9.383774e-02    5.941626e-07
  9.413667e-02    5.972033e-07
  9.443560e-02    6.010168e-07
  9.473453e-02    6.008302e-07
  9.503346e-02    6.014319e-07
  9.533239e-02    6.039004e-07
  9.563132e-02    6.034945e-07
  9.593025e-02    5.964737e-07
  9.622918e-02    5.935692e-07
  9.652811e-02    5.965601e-07
  9.682704e-02    5.955393e-07
  9.712597e-02    5.942659e-07
  9.742490e-02    5.952234e-07
  9.772383e-02    6.002247e-07
  9.802276e-02    5.992714e-07
  9.832169e-02    5.977505e-07
  9.862062e-02    5.960557e-07
  9.891956e-02    5.963379e-07
  9.921849e-02    5.975191e-07
  9.951742e-02    5.989351e-07
  9.981635e-02    5.956805e-07
  1.001153e-01    5.942661e-07
  1.004142e-01    5.931198e-07
  1.007131e-01    5.926661e-07
  1.010121e-01    5.897348e-07
  1.013110e-01    5.941502e-07
  1.016099e-01    5.956945e-07
  1.019089e-01    5.898801e-07
  1.022078e-01    5.859272e-07
  1.025067e-01    5.901151e-07
  1.028057e-01    5.897565e-07
  1.031046e-01    5.858294e-07
  1.034035e-01    5.876234e-07
  1.037024e-01    5.855059e-07
  1.040014e-01    5.858188e-07
  1.043003e-01    5.866431e-07
  1.045992e-01    5.869300e-07
  1.048982e-01    5.853915e-07
  1.051971e-01    5.787896e-07
  1.054960e-01    5.779713e-07
  1.057950e-01    5.815020e-07
  1.060939e-01    5.849141e-07
  1.063928e-01    5.876627e-07
  1.066917e-01    5.838717e-07
  1.069907e-01    5.871751e-07
  1.072896e-01    5.805175e-07
  1.075885e-01    5.781300e-07
  1.078875e-01    5.803466e-07
  1.081864e-01    5.855116e-07
  1.084853e-01    5.828355e-07
  1.087843e-01    5.838801e-07
  1.090832e-01    5.842325e-07
  1.093821e-01    5.820117e-07
  1.096810e-01    5.837982e-07
  1.099800e-01    5.781523e-07
  1.102789e-01    5.731854e-07
  1.105778e-01    5.748519e-07
  1.108768e-01    5.729943e-07
  1.111757e-01    5.677719e-07
  1.114746e-01    5.599176e-07
  1.117736e-01    5.601372e-07
  1.120725e-01    5.604273e-07
  1.123714e-01    5.603668e-07
  1.126704e-01    5.553869e-07
  1.129693e-01    5.449089e-07
  1.132682e-01    5.297594e-07
  1.135671e-01    5.270486e-07
  1.138661e-01    5.347989e-07
  1.141650e-01    5.305553e-07
  1.144639e-01    5.226317e-07
  1.147629e-01    5.264821e-07
  1.150618e-01    5.299621e-07
  1.153607e-01    5.223602e-07
  1.156597e-01    5.197442e-07
  1.159586e-01    5.223378e-07
  1.162575e-01    5.207779e-07
  1.165564e-01    5.218941e-07
  1.168554e-01    5.244954e-07
  1.171543e-01    5.279651e-07
  1.174532e-01    5.264211e-07
  1.177522e-01    5.268669e-07
  1.180511e-01    5.193706e-07
  1.183500e-01    5.157156e-07
  1.186490e-01    5.151430e-07
  1.189479e-01    5.153749e-07
  1.192468e-01    5.143704e-07
  1.195458e-01    5.143263e-07
  1.198447e-01    5.201047e-07
  1.201436e-01    5.153732e-07
  1.204425e-01    5.377941e-07
  1.207415e-01    5.610809e-07
  1.210404e-01    7.334992e-07
  1.213393e-01    0.000000e+00
  1.216383e-01    0.000000e+00
  1.219372e-01    0.000000e+00
  1.222361e-01    0.000000e+00
  1.225351e-01    0.000000e+00
  1.228340e-01    0.000000e+00
  1.231329e-01    0.000000e+00
  1.234318e-01    0.000000e+00
  1.237308e-01    0.000000e+00
  1.240297e-01    0.000000e+00
  1.243286e-01    0.000000e+00
  1.246276e-01    0.000000e+00
  1.249265e-01    0.000000e+00
  1.252254e-01    0.000000e+00
  1.255244e-01    0.000000e+00
  1.258233e-01    0.000000e+00
  1.261222e-01    0.000000e+00
  1.264212e-01    0.000000e+00
  1.267201e-01    0.000000e+00
  1.270190e-01    0.000000e+00
  1.273179e-01    0.000000e+00
  1.276169e-01    0.000000e+00
  1.279158e-01    0.000000e+00
  1.282147e-01    0.000000e+00
  1.285137e-01    0.000000e+00
  1.288126e-01    0.000000e+00
  1.291115e-01    0.000000e+00
  1.294105e-01    0.000000e+00
  1.297094e-01    0.000000e+00
  1.300083e-01    0.000000e+00
  1.303072e-01    0.000000e+00
  1.306062e-01    0.000000e+00
  1.309051e-01    0.000000e+00
  1.312040e-01    0.000000e+00
  1.315030e-01    0.000000e+00
  1.318019e-01    0.000000e+00
  1.321008e-01    0.000000e+00
  1.323998e-01    0.000000e+00
  1.326987e-01    0.000000e+00
  1.329976e-01    0.000000e+00
  1.332965e-01    0.000000e+00
  1.335955e-01    0.000000e+00
  1.338944e-01    0.000000e+00
  1.341933e-01    0.000000e+00
  1.344923e-01    0.000000e+00
  1.347912e-01    0.000000e+00
  1.350901e-01    0.000000e+00
  1.353891e-01    0.000000e+00
  1.356880e-01    0.000000e+00
  1.359869e-01    0.000000e+00
  1.362859e-01    0.000000e+00
  1.365848e-01    0.000000e+00
  1.368837e-01    0.000000e+00
  1.371826e-01    0.000000e+00
  1.374816e-01    0.000000e+00
  1.377805e-01    0.000000e+00
  1.380794e-01    0.000000e+00
  1.383784e-01    0.000000e+00
  1.386773e-01    0.000000e+00
  1.389762e-01    0.000000e+00
  1.392752e-01    0.000000e+00
  1.395741e-01    0.000000e+00
  1.398730e-01    0.000000e+00
  1.401719e-01    0.000000e+00
  1.404709e-01    0.000000e+00
  1.407698e-01    0.000000e+00
  1.410687e-01    0.000000e+00
  1.413677e-01    0.000000e+00
  1.416666e-01    0.000000e+00
  1.419655e-01    0.000000e+00
  1.422645e-01    0.000000e+00
  1.425634e-01    0.000000e+00
  1.428623e-01    0.000000e+00
  1.431613e-01    0.000000e+00
  1.434602e-01    0.000000e+00
  1.437591e-01    0.000000e+00
  1.440580e-01    0.000000e+00
  1.443570e-01    0.000000e+00
  1.446559e-01    0.000000e+00
  1.449548e-01    0.000000e+00
  1.452538e-01    0.000000e+00
  1.455527e-01    0.000000e+00
  1.458516e-01    0.000000e+00
  1.461506e-01    0.000000e+00
  1.464495e-01    0.000000e+00
  1.467484e-01    0.000000e+00
  1.470473e-01    0.000000e+00
  1.473463e-01    0.000000e+00
  1.476452e-01    0.000000e+00
  1.479441e-01    0.000000e+00
  1.482431e-01    0.000000e+00
  1.485420e-01    0.000000e+00
  1.488409e-01    0.000000e+00
  1.491399e-01    0.000000e+00
  1.494388e-01    0.000000e+00
  1.497377e-01    0.000000e+00
  1.500367e-01    0.000000e+00
  1.503356e-01    0.000000e+00
  1.506345e-01    0.000000e+00
  1.509334e-01    0.000000e+00
  1.512324e-01    0.000000e+00
  1.515313e-01    0.000000e+00
  1.518302e-01    0.000000e+00
  1.521292e-01    0.000000e+00
  1.524281e-01    0.000000e+00
  1.527270e-01    0.000000e+00
  1.530260e-01    0.000000e+00
  1.533249e-01    0.000000e+00
  1.536238e-01    0.000000e+00
