# == pyFAI calibration ==
# Distance Sample to Detector: 2.266 m
# PONI: 5.659e-02, 4.293e-02 m
# Rotations: 0.000000 0.000000 0.000000 rad
# 
# == Fit2d calibration ==
# Distance Sample-beamCenter: 2266.000 mm
# Center: x=249.594, y=329.012 pix
# Tilt: 0.000 deg  TiltPlanRot: 0.000 deg
# 
# Detector Pilatus 300k	 PixelSize= 1.720e-04, 1.720e-04 m
#    Detector has a mask: True 
#    Detector has a dark current: False 
#    detector has a flat field: False 
# 
# Wavelength: 1.27818e-10 m
# Mask applied: user provided
# Dark current applied: False
# Flat field applied: False
# Polarization factor: None
# Normalization factor: 6484035.600000001
# --> AL_F127_220228_9990aa8f-3e6f-440c-b1c9-69468aa6c9c7_2_r1d.csv
#        q_A^-1             I 
  4.457554e-03    1.874415e-03
  4.756484e-03    1.451087e-03
  5.055415e-03    1.008837e-03
  5.354345e-03    6.926574e-04
  5.653276e-03    5.277712e-04
  5.952206e-03    8.324153e-04
  6.251136e-03    7.621649e-04
  6.550067e-03    6.644325e-04
  6.848997e-03    5.667388e-04
  7.147927e-03    4.791140e-04
  7.446858e-03    4.108365e-04
  7.745788e-03    3.528123e-04
  8.044719e-03    3.039126e-04
  8.343649e-03    2.661222e-04
  8.642579e-03    2.331645e-04
  8.941510e-03    2.057495e-04
  9.240440e-03    1.820639e-04
  9.539371e-03    1.618794e-04
  9.838301e-03    1.443950e-04
  1.013723e-02    1.289863e-04
  1.043616e-02    1.158327e-04
  1.073509e-02    1.046344e-04
  1.103402e-02    9.500283e-05
  1.133295e-02    8.637339e-05
  1.163188e-02    7.892273e-05
  1.193081e-02    7.216167e-05
  1.222974e-02    6.627779e-05
  1.252867e-02    6.083365e-05
  1.282760e-02    5.593080e-05
  1.312654e-02    5.172381e-05
  1.342547e-02    4.806143e-05
  1.372440e-02    4.462028e-05
  1.402333e-02    4.141740e-05
  1.432226e-02    3.863640e-05
  1.462119e-02    3.596618e-05
  1.492012e-02    3.343189e-05
  1.521905e-02    3.139504e-05
  1.551798e-02    2.974009e-05
  1.581691e-02    2.805813e-05
  1.611584e-02    2.654780e-05
  1.641477e-02    2.506500e-05
  1.671370e-02    2.363958e-05
  1.701263e-02    2.248539e-05
  1.731156e-02    2.133649e-05
  1.761049e-02    2.029295e-05
  1.790942e-02    1.931755e-05
  1.820835e-02    1.842048e-05
  1.850728e-02    1.758579e-05
  1.880621e-02    1.686039e-05
  1.910514e-02    1.612992e-05
  1.940407e-02    1.555107e-05
  1.970300e-02    1.494475e-05
  2.000193e-02    1.437889e-05
  2.030086e-02    1.385248e-05
  2.059979e-02    1.335444e-05
  2.089873e-02    1.296471e-05
  2.119766e-02    1.252389e-05
  2.149659e-02    1.207838e-05
  2.179552e-02    1.175501e-05
  2.209445e-02    1.141411e-05
  2.239338e-02    1.112041e-05
  2.269231e-02    1.080144e-05
  2.299124e-02    1.044889e-05
  2.329017e-02    1.018715e-05
  2.358910e-02    9.975307e-06
  2.388803e-02    9.852868e-06
  2.418696e-02    9.595487e-06
  2.448589e-02    9.259389e-06
  2.478482e-02    9.025887e-06
  2.508375e-02    8.931434e-06
  2.538268e-02    8.862069e-06
  2.568161e-02    8.664775e-06
  2.598054e-02    8.542586e-06
  2.627947e-02    8.450490e-06
  2.657840e-02    8.271745e-06
  2.687733e-02    8.156115e-06
  2.717626e-02    8.016915e-06
  2.747519e-02    7.879452e-06
  2.777412e-02    7.801436e-06
  2.807305e-02    7.689182e-06
  2.837198e-02    7.648621e-06
  2.867092e-02    7.501661e-06
  2.896985e-02    7.405291e-06
  2.926878e-02    7.346634e-06
  2.956771e-02    7.308590e-06
  2.986664e-02    7.257338e-06
  3.016557e-02    7.177812e-06
  3.046450e-02    7.065353e-06
  3.076343e-02    6.915277e-06
  3.106236e-02    6.847881e-06
  3.136129e-02    6.833197e-06
  3.166022e-02    6.786518e-06
  3.195915e-02    6.734051e-06
  3.225808e-02    6.646636e-06
  3.255701e-02    6.534977e-06
  3.285594e-02    6.467243e-06
  3.315487e-02    6.412990e-06
  3.345380e-02    6.301670e-06
  3.375273e-02    6.242029e-06
  3.405166e-02    6.230891e-06
  3.435059e-02    6.176921e-06
  3.464952e-02    6.133216e-06
  3.494845e-02    6.076101e-06
  3.524738e-02    6.012885e-06
  3.554631e-02    5.938241e-06
  3.584524e-02    5.870877e-06
  3.614417e-02    5.907196e-06
  3.644310e-02    5.851777e-06
  3.674204e-02    5.771321e-06
  3.704097e-02    5.687988e-06
  3.733990e-02    5.599277e-06
  3.763883e-02    5.588478e-06
  3.793776e-02    5.513296e-06
  3.823669e-02    5.470072e-06
  3.853562e-02    5.483780e-06
  3.883455e-02    5.409553e-06
  3.913348e-02    5.365505e-06
  3.943241e-02    5.352561e-06
  3.973134e-02    5.325793e-06
  4.003027e-02    5.321210e-06
  4.032920e-02    5.266994e-06
  4.062813e-02    5.156768e-06
  4.092706e-02    5.126831e-06
  4.122599e-02    5.128587e-06
  4.152492e-02    5.093046e-06
  4.182385e-02    5.098159e-06
  4.212278e-02    5.058926e-06
  4.242171e-02    5.071415e-06
  4.272064e-02    5.102640e-06
  4.301957e-02    5.068662e-06
  4.331850e-02    5.032207e-06
  4.361743e-02    5.013568e-06
  4.391636e-02    4.929493e-06
  4.421529e-02    4.919231e-06
  4.451423e-02    4.921612e-06
  4.481316e-02    4.956399e-06
  4.511209e-02    4.958547e-06
  4.541102e-02    4.924498e-06
  4.570995e-02    4.918948e-06
  4.600888e-02    4.935788e-06
  4.630781e-02    4.972723e-06
  4.660674e-02    4.924319e-06
  4.690567e-02    4.866682e-06
  4.720460e-02    4.875137e-06
  4.750353e-02    4.894673e-06
  4.780246e-02    4.897764e-06
  4.810139e-02    4.878447e-06
  4.840032e-02    4.857570e-06
  4.869925e-02    4.854874e-06
  4.899818e-02    4.873140e-06
  4.929711e-02    4.857553e-06
  4.959604e-02    4.853071e-06
  4.989497e-02    4.814317e-06
  5.019390e-02    4.830944e-06
  5.049283e-02    4.856789e-06
  5.079176e-02    4.832941e-06
  5.109069e-02    4.859351e-06
  5.138962e-02    4.893166e-06
  5.168855e-02    5.024784e-06
  5.198748e-02    5.140107e-06
  5.228642e-02    5.044706e-06
  5.258535e-02    4.876709e-06
  5.288428e-02    4.827320e-06
  5.318321e-02    4.790159e-06
  5.348214e-02    4.746742e-06
  5.378107e-02    4.769195e-06
  5.408000e-02    4.764142e-06
  5.437893e-02    4.808500e-06
  5.467786e-02    4.799889e-06
  5.497679e-02    4.813921e-06
  5.527572e-02    4.794162e-06
  5.557465e-02    4.795085e-06
  5.587358e-02    4.806855e-06
  5.617251e-02    4.772173e-06
  5.647144e-02    4.797506e-06
  5.677037e-02    4.801123e-06
  5.706930e-02    4.813980e-06
  5.736823e-02    4.804600e-06
  5.766716e-02    4.830405e-06
  5.796609e-02    4.838638e-06
  5.826502e-02    4.789960e-06
  5.856395e-02    4.807654e-06
  5.886288e-02    4.773373e-06
  5.916181e-02    4.777584e-06
  5.946074e-02    4.782126e-06
  5.975967e-02    4.753798e-06
  6.005861e-02    4.819243e-06
  6.035754e-02    4.880434e-06
  6.065647e-02    4.876017e-06
  6.095540e-02    4.953824e-06
  6.125433e-02    5.049169e-06
  6.155326e-02    5.006234e-06
  6.185219e-02    4.953741e-06
  6.215112e-02    4.906293e-06
  6.245005e-02    4.860787e-06
  6.274898e-02    4.843127e-06
  6.304791e-02    4.877595e-06
  6.334684e-02    4.883213e-06
  6.364577e-02    4.890115e-06
  6.394470e-02    4.894192e-06
  6.424363e-02    4.893550e-06
  6.454256e-02    4.919686e-06
  6.484149e-02    4.920464e-06
  6.514042e-02    4.907256e-06
  6.543935e-02    4.917237e-06
  6.573828e-02    4.984918e-06
  6.603721e-02    4.982988e-06
  6.633614e-02    4.956575e-06
  6.663507e-02    4.938290e-06
  6.693400e-02    4.951980e-06
  6.723293e-02    4.968077e-06
  6.753186e-02    4.976069e-06
  6.783080e-02    4.987670e-06
  6.812973e-02    5.021103e-06
  6.842866e-02    5.032757e-06
  6.872759e-02    5.001585e-06
  6.902652e-02    5.007546e-06
  6.932545e-02    5.011744e-06
  6.962438e-02    5.036066e-06
  6.992331e-02    5.017213e-06
  7.022224e-02    5.000950e-06
  7.052117e-02    4.966970e-06
  7.082010e-02    5.012197e-06
  7.111903e-02    5.071081e-06
  7.141796e-02    5.091381e-06
  7.171689e-02    5.069980e-06
  7.201582e-02    5.081433e-06
  7.231475e-02    5.086929e-06
  7.261368e-02    5.065126e-06
  7.291261e-02    5.105120e-06
  7.321154e-02    5.124710e-06
  7.351047e-02    5.139085e-06
  7.380940e-02    5.090796e-06
  7.410833e-02    5.103883e-06
  7.440726e-02    5.119382e-06
  7.470619e-02    5.100574e-06
  7.500512e-02    5.107156e-06
  7.530405e-02    5.076202e-06
  7.560299e-02    5.098160e-06
  7.590192e-02    5.127465e-06
  7.620085e-02    5.109094e-06
  7.649978e-02    5.115739e-06
  7.679871e-02    5.089593e-06
  7.709764e-02    5.067396e-06
  7.739657e-02    5.083571e-06
  7.769550e-02    5.103544e-06
  7.799443e-02    5.083407e-06
  7.829336e-02    5.076374e-06
  7.859229e-02    5.102555e-06
  7.889122e-02    5.104051e-06
  7.919015e-02    5.100235e-06
  7.948908e-02    5.062472e-06
  7.978801e-02    5.022672e-06
  8.008694e-02    5.038954e-06
  8.038587e-02    5.036775e-06
  8.068480e-02    5.027208e-06
  8.098373e-02    4.998109e-06
  8.128266e-02    5.038269e-06
  8.158159e-02    5.016620e-06
  8.188052e-02    5.028097e-06
  8.217945e-02    5.057992e-06
  8.247838e-02    5.065884e-06
  8.277731e-02    5.047584e-06
  8.307624e-02    5.023173e-06
  8.337518e-02    5.000723e-06
  8.367411e-02    4.993228e-06
  8.397304e-02    4.993338e-06
  8.427197e-02    4.980172e-06
  8.457090e-02    4.967123e-06
  8.486983e-02    4.955479e-06
  8.516876e-02    4.964155e-06
  8.546769e-02    4.955312e-06
  8.576662e-02    4.948318e-06
  8.606555e-02    4.948935e-06
  8.636448e-02    4.959143e-06
  8.666341e-02    4.959915e-06
  8.696234e-02    4.913461e-06
  8.726127e-02    4.882774e-06
  8.756020e-02    4.886826e-06
  8.785913e-02    4.864805e-06
  8.815806e-02    4.882045e-06
  8.845699e-02    4.872974e-06
  8.875592e-02    4.881242e-06
  8.905485e-02    4.865809e-06
  8.935378e-02    4.836199e-06
  8.965271e-02    4.806280e-06
  8.995164e-02    4.778333e-06
  9.025057e-02    4.793268e-06
  9.054950e-02    4.803206e-06
  9.084843e-02    4.787888e-06
  9.114737e-02    4.786396e-06
  9.144630e-02    4.801589e-06
  9.174523e-02    4.787121e-06
  9.204416e-02    4.761986e-06
  9.234309e-02    4.744686e-06
  9.264202e-02    4.726627e-06
  9.294095e-02    4.733955e-06
  9.323988e-02    4.723895e-06
  9.353881e-02    4.700518e-06
  9.383774e-02    4.682454e-06
  9.413667e-02    4.705645e-06
  9.443560e-02    4.714650e-06
  9.473453e-02    4.713404e-06
  9.503346e-02    4.691478e-06
  9.533239e-02    4.665394e-06
  9.563132e-02    4.649249e-06
  9.593025e-02    4.647477e-06
  9.622918e-02    4.690459e-06
  9.652811e-02    4.690227e-06
  9.682704e-02    4.677057e-06
  9.712597e-02    4.680720e-06
  9.742490e-02    4.683923e-06
  9.772383e-02    4.672136e-06
  9.802276e-02    4.605375e-06
  9.832169e-02    4.579646e-06
  9.862062e-02    4.575656e-06
  9.891956e-02    4.583318e-06
  9.921849e-02    4.595803e-06
  9.951742e-02    4.560468e-06
  9.981635e-02    4.533487e-06
  1.001153e-01    4.523230e-06
  1.004142e-01    4.493975e-06
  1.007131e-01    4.489930e-06
  1.010121e-01    4.498753e-06
  1.013110e-01    4.536168e-06
  1.016099e-01    4.493668e-06
  1.019089e-01    4.469503e-06
  1.022078e-01    4.468506e-06
  1.025067e-01    4.434573e-06
  1.028057e-01    4.418122e-06
  1.031046e-01    4.430000e-06
  1.034035e-01    4.407250e-06
  1.037024e-01    4.413399e-06
  1.040014e-01    4.394369e-06
  1.043003e-01    4.362545e-06
  1.045992e-01    4.382774e-06
  1.048982e-01    4.376408e-06
  1.051971e-01    4.372853e-06
  1.054960e-01    4.353494e-06
  1.057950e-01    4.349694e-06
  1.060939e-01    4.327729e-06
  1.063928e-01    4.328974e-06
  1.066917e-01    4.331950e-06
  1.069907e-01    4.338205e-06
  1.072896e-01    4.340605e-06
  1.075885e-01    4.313563e-06
  1.078875e-01    4.302167e-06
  1.081864e-01    4.286713e-06
  1.084853e-01    4.292365e-06
  1.087843e-01    4.299753e-06
  1.090832e-01    4.282954e-06
  1.093821e-01    4.281764e-06
  1.096810e-01    4.244901e-06
  1.099800e-01    4.231307e-06
  1.102789e-01    4.246110e-06
  1.105778e-01    4.222456e-06
  1.108768e-01    4.188787e-06
  1.111757e-01    4.183821e-06
  1.114746e-01    4.191847e-06
  1.117736e-01    4.192571e-06
  1.120725e-01    4.184549e-06
  1.123714e-01    4.177437e-06
  1.126704e-01    4.202381e-06
  1.129693e-01    4.164701e-06
  1.132682e-01    4.110756e-06
  1.135671e-01    4.088296e-06
  1.138661e-01    4.097586e-06
  1.141650e-01    4.117994e-06
  1.144639e-01    4.114400e-06
  1.147629e-01    4.132356e-06
  1.150618e-01    4.089614e-06
  1.153607e-01    4.078715e-06
  1.156597e-01    4.130555e-06
  1.159586e-01    4.137159e-06
  1.162575e-01    4.081187e-06
  1.165564e-01    4.046579e-06
  1.168554e-01    4.064190e-06
  1.171543e-01    4.090735e-06
  1.174532e-01    4.096929e-06
  1.177522e-01    4.093647e-06
  1.180511e-01    4.104784e-06
  1.183500e-01    4.167611e-06
  1.186490e-01    4.095718e-06
  1.189479e-01    4.060211e-06
  1.192468e-01    4.089756e-06
  1.195458e-01    4.069484e-06
  1.198447e-01    3.988103e-06
  1.201436e-01    3.977364e-06
  1.204425e-01    3.843330e-06
  1.207415e-01    3.685244e-06
  1.210404e-01    4.013481e-06
  1.213393e-01    0.000000e+00
  1.216383e-01    0.000000e+00
  1.219372e-01    0.000000e+00
  1.222361e-01    0.000000e+00
  1.225351e-01    0.000000e+00
  1.228340e-01    0.000000e+00
  1.231329e-01    0.000000e+00
  1.234318e-01    0.000000e+00
  1.237308e-01    0.000000e+00
  1.240297e-01    0.000000e+00
  1.243286e-01    0.000000e+00
  1.246276e-01    0.000000e+00
  1.249265e-01    0.000000e+00
  1.252254e-01    0.000000e+00
  1.255244e-01    0.000000e+00
  1.258233e-01    0.000000e+00
  1.261222e-01    0.000000e+00
  1.264212e-01    0.000000e+00
  1.267201e-01    0.000000e+00
  1.270190e-01    0.000000e+00
  1.273179e-01    0.000000e+00
  1.276169e-01    0.000000e+00
  1.279158e-01    0.000000e+00
  1.282147e-01    0.000000e+00
  1.285137e-01    0.000000e+00
  1.288126e-01    0.000000e+00
  1.291115e-01    0.000000e+00
  1.294105e-01    0.000000e+00
  1.297094e-01    0.000000e+00
  1.300083e-01    0.000000e+00
  1.303072e-01    0.000000e+00
  1.306062e-01    0.000000e+00
  1.309051e-01    0.000000e+00
  1.312040e-01    0.000000e+00
  1.315030e-01    0.000000e+00
  1.318019e-01    0.000000e+00
  1.321008e-01    0.000000e+00
  1.323998e-01    0.000000e+00
  1.326987e-01    0.000000e+00
  1.329976e-01    0.000000e+00
  1.332965e-01    0.000000e+00
  1.335955e-01    0.000000e+00
  1.338944e-01    0.000000e+00
  1.341933e-01    0.000000e+00
  1.344923e-01    0.000000e+00
  1.347912e-01    0.000000e+00
  1.350901e-01    0.000000e+00
  1.353891e-01    0.000000e+00
  1.356880e-01    0.000000e+00
  1.359869e-01    0.000000e+00
  1.362859e-01    0.000000e+00
  1.365848e-01    0.000000e+00
  1.368837e-01    0.000000e+00
  1.371826e-01    0.000000e+00
  1.374816e-01    0.000000e+00
  1.377805e-01    0.000000e+00
  1.380794e-01    0.000000e+00
  1.383784e-01    0.000000e+00
  1.386773e-01    0.000000e+00
  1.389762e-01    0.000000e+00
  1.392752e-01    0.000000e+00
  1.395741e-01    0.000000e+00
  1.398730e-01    0.000000e+00
  1.401719e-01    0.000000e+00
  1.404709e-01    0.000000e+00
  1.407698e-01    0.000000e+00
  1.410687e-01    0.000000e+00
  1.413677e-01    0.000000e+00
  1.416666e-01    0.000000e+00
  1.419655e-01    0.000000e+00
  1.422645e-01    0.000000e+00
  1.425634e-01    0.000000e+00
  1.428623e-01    0.000000e+00
  1.431613e-01    0.000000e+00
  1.434602e-01    0.000000e+00
  1.437591e-01    0.000000e+00
  1.440580e-01    0.000000e+00
  1.443570e-01    0.000000e+00
  1.446559e-01    0.000000e+00
  1.449548e-01    0.000000e+00
  1.452538e-01    0.000000e+00
  1.455527e-01    0.000000e+00
  1.458516e-01    0.000000e+00
  1.461506e-01    0.000000e+00
  1.464495e-01    0.000000e+00
  1.467484e-01    0.000000e+00
  1.470473e-01    0.000000e+00
  1.473463e-01    0.000000e+00
  1.476452e-01    0.000000e+00
  1.479441e-01    0.000000e+00
  1.482431e-01    0.000000e+00
  1.485420e-01    0.000000e+00
  1.488409e-01    0.000000e+00
  1.491399e-01    0.000000e+00
  1.494388e-01    0.000000e+00
  1.497377e-01    0.000000e+00
  1.500367e-01    0.000000e+00
  1.503356e-01    0.000000e+00
  1.506345e-01    0.000000e+00
  1.509334e-01    0.000000e+00
  1.512324e-01    0.000000e+00
  1.515313e-01    0.000000e+00
  1.518302e-01    0.000000e+00
  1.521292e-01    0.000000e+00
  1.524281e-01    0.000000e+00
  1.527270e-01    0.000000e+00
  1.530260e-01    0.000000e+00
  1.533249e-01    0.000000e+00
  1.536238e-01    0.000000e+00
