# == pyFAI calibration ==
# Distance Sample to Detector: 2.266 m
# PONI: 5.659e-02, 4.293e-02 m
# Rotations: 0.000000 0.000000 0.000000 rad
# 
# == Fit2d calibration ==
# Distance Sample-beamCenter: 2266.000 mm
# Center: x=249.594, y=329.012 pix
# Tilt: 0.000 deg  TiltPlanRot: 0.000 deg
# 
# Detector Pilatus 300k	 PixelSize= 1.720e-04, 1.720e-04 m
#    Detector has a mask: True 
#    Detector has a dark current: False 
#    detector has a flat field: False 
# 
# Wavelength: 1.27818e-10 m
# Mask applied: user provided
# Dark current applied: False
# Flat field applied: False
# Polarization factor: None
# Normalization factor: 9825893.6
# --> AL_F127_220301_d49c2890-4af5-493b-9a5b-bfbf7899fbea_0_r1d.csv
#        q_A^-1             I 
  4.457554e-03    6.240620e-04
  4.756484e-03    4.946549e-04
  5.055415e-03    3.631720e-04
  5.354345e-03    2.608522e-04
  5.653276e-03    2.059210e-04
  5.952206e-03    3.293270e-04
  6.251136e-03    2.985071e-04
  6.550067e-03    2.570180e-04
  6.848997e-03    2.165897e-04
  7.147927e-03    1.836767e-04
  7.446858e-03    1.584280e-04
  7.745788e-03    1.378703e-04
  8.044719e-03    1.210303e-04
  8.343649e-03    1.071366e-04
  8.642579e-03    9.542542e-05
  8.941510e-03    8.562381e-05
  9.240440e-03    7.708850e-05
  9.539371e-03    7.009830e-05
  9.838301e-03    6.408991e-05
  1.013723e-02    5.926819e-05
  1.043616e-02    5.521000e-05
  1.073509e-02    5.134314e-05
  1.103402e-02    4.794444e-05
  1.133295e-02    4.513468e-05
  1.163188e-02    4.268557e-05
  1.193081e-02    4.059856e-05
  1.222974e-02    3.880317e-05
  1.252867e-02    3.729139e-05
  1.282760e-02    3.583818e-05
  1.312654e-02    3.468111e-05
  1.342547e-02    3.367104e-05
  1.372440e-02    3.263715e-05
  1.402333e-02    3.187629e-05
  1.432226e-02    3.138333e-05
  1.462119e-02    3.087379e-05
  1.492012e-02    3.041589e-05
  1.521905e-02    3.023399e-05
  1.551798e-02    3.020400e-05
  1.581691e-02    3.026014e-05
  1.611584e-02    3.045904e-05
  1.641477e-02    3.064167e-05
  1.671370e-02    3.107269e-05
  1.701263e-02    3.160542e-05
  1.731156e-02    3.233249e-05
  1.761049e-02    3.312743e-05
  1.790942e-02    3.404504e-05
  1.820835e-02    3.517551e-05
  1.850728e-02    3.630353e-05
  1.880621e-02    3.767854e-05
  1.910514e-02    3.926473e-05
  1.940407e-02    4.084296e-05
  1.970300e-02    4.282168e-05
  2.000193e-02    4.495098e-05
  2.030086e-02    4.732463e-05
  2.059979e-02    4.989474e-05
  2.089873e-02    5.239887e-05
  2.119766e-02    5.531791e-05
  2.149659e-02    5.867337e-05
  2.179552e-02    6.226720e-05
  2.209445e-02    6.597437e-05
  2.239338e-02    6.988271e-05
  2.269231e-02    7.418200e-05
  2.299124e-02    7.847642e-05
  2.329017e-02    8.270807e-05
  2.358910e-02    8.717480e-05
  2.388803e-02    9.154392e-05
  2.418696e-02    9.561203e-05
  2.448589e-02    9.929066e-05
  2.478482e-02    1.026393e-04
  2.508375e-02    1.053935e-04
  2.538268e-02    1.072167e-04
  2.568161e-02    1.088230e-04
  2.598054e-02    1.096523e-04
  2.627947e-02    1.094658e-04
  2.657840e-02    1.087508e-04
  2.687733e-02    1.070828e-04
  2.717626e-02    1.048298e-04
  2.747519e-02    1.021270e-04
  2.777412e-02    9.896957e-05
  2.807305e-02    9.556660e-05
  2.837198e-02    9.160203e-05
  2.867092e-02    8.737554e-05
  2.896985e-02    8.324587e-05
  2.926878e-02    7.916049e-05
  2.956771e-02    7.521713e-05
  2.986664e-02    7.148126e-05
  3.016557e-02    6.791767e-05
  3.046450e-02    6.435590e-05
  3.076343e-02    6.102969e-05
  3.106236e-02    5.795860e-05
  3.136129e-02    5.522165e-05
  3.166022e-02    5.261256e-05
  3.195915e-02    5.023456e-05
  3.225808e-02    4.794266e-05
  3.255701e-02    4.588109e-05
  3.285594e-02    4.397802e-05
  3.315487e-02    4.205358e-05
  3.345380e-02    4.042120e-05
  3.375273e-02    3.909401e-05
  3.405166e-02    3.777778e-05
  3.435059e-02    3.626310e-05
  3.464952e-02    3.510701e-05
  3.494845e-02    3.421099e-05
  3.524738e-02    3.306580e-05
  3.554631e-02    3.214585e-05
  3.584524e-02    3.141287e-05
  3.614417e-02    3.068879e-05
  3.644310e-02    3.001296e-05
  3.674204e-02    2.938846e-05
  3.704097e-02    2.869927e-05
  3.733990e-02    2.809081e-05
  3.763883e-02    2.763491e-05
  3.793776e-02    2.719466e-05
  3.823669e-02    2.679896e-05
  3.853562e-02    2.637594e-05
  3.883455e-02    2.596406e-05
  3.913348e-02    2.563492e-05
  3.943241e-02    2.536687e-05
  3.973134e-02    2.515560e-05
  4.003027e-02    2.478977e-05
  4.032920e-02    2.451231e-05
  4.062813e-02    2.433084e-05
  4.092706e-02    2.411761e-05
  4.122599e-02    2.392904e-05
  4.152492e-02    2.371758e-05
  4.182385e-02    2.354994e-05
  4.212278e-02    2.342838e-05
  4.242171e-02    2.322916e-05
  4.272064e-02    2.308754e-05
  4.301957e-02    2.295259e-05
  4.331850e-02    2.280086e-05
  4.361743e-02    2.259687e-05
  4.391636e-02    2.239290e-05
  4.421529e-02    2.224854e-05
  4.451423e-02    2.213726e-05
  4.481316e-02    2.203614e-05
  4.511209e-02    2.188760e-05
  4.541102e-02    2.174176e-05
  4.570995e-02    2.146673e-05
  4.600888e-02    2.130480e-05
  4.630781e-02    2.115449e-05
  4.660674e-02    2.090187e-05
  4.690567e-02    2.076807e-05
  4.720460e-02    2.058315e-05
  4.750353e-02    2.036969e-05
  4.780246e-02    2.008892e-05
  4.810139e-02    1.973803e-05
  4.840032e-02    1.947332e-05
  4.869925e-02    1.920028e-05
  4.899818e-02    1.889485e-05
  4.929711e-02    1.861158e-05
  4.959604e-02    1.832309e-05
  4.989497e-02    1.806522e-05
  5.019390e-02    1.773250e-05
  5.049283e-02    1.731538e-05
  5.079176e-02    1.702152e-05
  5.109069e-02    1.669882e-05
  5.138962e-02    1.637705e-05
  5.168855e-02    1.599854e-05
  5.198748e-02    1.563115e-05
  5.228642e-02    1.521899e-05
  5.258535e-02    1.480446e-05
  5.288428e-02    1.442463e-05
  5.318321e-02    1.406529e-05
  5.348214e-02    1.368183e-05
  5.378107e-02    1.331882e-05
  5.408000e-02    1.299308e-05
  5.437893e-02    1.266154e-05
  5.467786e-02    1.230118e-05
  5.497679e-02    1.195905e-05
  5.527572e-02    1.163272e-05
  5.557465e-02    1.129548e-05
  5.587358e-02    1.097668e-05
  5.617251e-02    1.066417e-05
  5.647144e-02    1.039153e-05
  5.677037e-02    1.013525e-05
  5.706930e-02    9.843676e-06
  5.736823e-02    9.578112e-06
  5.766716e-02    9.313372e-06
  5.796609e-02    9.087735e-06
  5.826502e-02    8.851638e-06
  5.856395e-02    8.612088e-06
  5.886288e-02    8.386447e-06
  5.916181e-02    8.119629e-06
  5.946074e-02    7.954840e-06
  5.975967e-02    7.763954e-06
  6.005861e-02    7.517596e-06
  6.035754e-02    7.376446e-06
  6.065647e-02    7.212769e-06
  6.095540e-02    7.030288e-06
  6.125433e-02    6.901898e-06
  6.155326e-02    6.728148e-06
  6.185219e-02    6.559877e-06
  6.215112e-02    6.416723e-06
  6.245005e-02    6.262036e-06
  6.274898e-02    6.159090e-06
  6.304791e-02    6.051155e-06
  6.334684e-02    5.917474e-06
  6.364577e-02    5.796608e-06
  6.394470e-02    5.674169e-06
  6.424363e-02    5.537083e-06
  6.454256e-02    5.433044e-06
  6.484149e-02    5.374214e-06
  6.514042e-02    5.270445e-06
  6.543935e-02    5.142721e-06
  6.573828e-02    5.043732e-06
  6.603721e-02    4.983539e-06
  6.633614e-02    4.921698e-06
  6.663507e-02    4.837773e-06
  6.693400e-02    4.751761e-06
  6.723293e-02    4.668462e-06
  6.753186e-02    4.602695e-06
  6.783080e-02    4.496892e-06
  6.812973e-02    4.452982e-06
  6.842866e-02    4.412641e-06
  6.872759e-02    4.323911e-06
  6.902652e-02    4.277608e-06
  6.932545e-02    4.227997e-06
  6.962438e-02    4.162159e-06
  6.992331e-02    4.096532e-06
  7.022224e-02    4.037210e-06
  7.052117e-02    4.006984e-06
  7.082010e-02    3.968284e-06
  7.111903e-02    3.934942e-06
  7.141796e-02    3.871032e-06
  7.171689e-02    3.833097e-06
  7.201582e-02    3.792803e-06
  7.231475e-02    3.740010e-06
  7.261368e-02    3.699599e-06
  7.291261e-02    3.677020e-06
  7.321154e-02    3.669708e-06
  7.351047e-02    3.632804e-06
  7.380940e-02    3.572964e-06
  7.410833e-02    3.550668e-06
  7.440726e-02    3.518234e-06
  7.470619e-02    3.491796e-06
  7.500512e-02    3.481292e-06
  7.530405e-02    3.456828e-06
  7.560299e-02    3.419063e-06
  7.590192e-02    3.395951e-06
  7.620085e-02    3.398813e-06
  7.649978e-02    3.381377e-06
  7.679871e-02    3.343446e-06
  7.709764e-02    3.321044e-06
  7.739657e-02    3.311836e-06
  7.769550e-02    3.293510e-06
  7.799443e-02    3.308604e-06
  7.829336e-02    3.293308e-06
  7.859229e-02    3.265290e-06
  7.889122e-02    3.272529e-06
  7.919015e-02    3.261507e-06
  7.948908e-02    3.239608e-06
  7.978801e-02    3.256259e-06
  8.008694e-02    3.251003e-06
  8.038587e-02    3.216848e-06
  8.068480e-02    3.215251e-06
  8.098373e-02    3.215086e-06
  8.128266e-02    3.232730e-06
  8.158159e-02    3.224421e-06
  8.188052e-02    3.209371e-06
  8.217945e-02    3.199161e-06
  8.247838e-02    3.229985e-06
  8.277731e-02    3.220792e-06
  8.307624e-02    3.209752e-06
  8.337518e-02    3.194396e-06
  8.367411e-02    3.204624e-06
  8.397304e-02    3.213599e-06
  8.427197e-02    3.202116e-06
  8.457090e-02    3.196415e-06
  8.486983e-02    3.212127e-06
  8.516876e-02    3.210169e-06
  8.546769e-02    3.231462e-06
  8.576662e-02    3.239855e-06
  8.606555e-02    3.215778e-06
  8.636448e-02    3.205046e-06
  8.666341e-02    3.200090e-06
  8.696234e-02    3.219276e-06
  8.726127e-02    3.241854e-06
  8.756020e-02    3.252610e-06
  8.785913e-02    3.251474e-06
  8.815806e-02    3.241677e-06
  8.845699e-02    3.228969e-06
  8.875592e-02    3.233273e-06
  8.905485e-02    3.245351e-06
  8.935378e-02    3.248944e-06
  8.965271e-02    3.250622e-06
  8.995164e-02    3.259577e-06
  9.025057e-02    3.251925e-06
  9.054950e-02    3.257096e-06
  9.084843e-02    3.268855e-06
  9.114737e-02    3.275281e-06
  9.144630e-02    3.301752e-06
  9.174523e-02    3.307494e-06
  9.204416e-02    3.300130e-06
  9.234309e-02    3.280749e-06
  9.264202e-02    3.280804e-06
  9.294095e-02    3.291960e-06
  9.323988e-02    3.297624e-06
  9.353881e-02    3.298155e-06
  9.383774e-02    3.310249e-06
  9.413667e-02    3.306458e-06
  9.443560e-02    3.303886e-06
  9.473453e-02    3.311215e-06
  9.503346e-02    3.300919e-06
  9.533239e-02    3.312107e-06
  9.563132e-02    3.319771e-06
  9.593025e-02    3.303613e-06
  9.622918e-02    3.300120e-06
  9.652811e-02    3.309607e-06
  9.682704e-02    3.328285e-06
  9.712597e-02    3.346709e-06
  9.742490e-02    3.345890e-06
  9.772383e-02    3.339473e-06
  9.802276e-02    3.320223e-06
  9.832169e-02    3.322367e-06
  9.862062e-02    3.333661e-06
  9.891956e-02    3.335042e-06
  9.921849e-02    3.313323e-06
  9.951742e-02    3.315878e-06
  9.981635e-02    3.324116e-06
  1.001153e-01    3.308998e-06
  1.004142e-01    3.318276e-06
  1.007131e-01    3.329763e-06
  1.010121e-01    3.309905e-06
  1.013110e-01    3.296056e-06
  1.016099e-01    3.289530e-06
  1.019089e-01    3.279598e-06
  1.022078e-01    3.281940e-06
  1.025067e-01    3.302251e-06
  1.028057e-01    3.298895e-06
  1.031046e-01    3.304679e-06
  1.034035e-01    3.321833e-06
  1.037024e-01    3.302884e-06
  1.040014e-01    3.281305e-06
  1.043003e-01    3.286744e-06
  1.045992e-01    3.279860e-06
  1.048982e-01    3.263079e-06
  1.051971e-01    3.245647e-06
  1.054960e-01    3.255089e-06
  1.057950e-01    3.256934e-06
  1.060939e-01    3.258825e-06
  1.063928e-01    3.236978e-06
  1.066917e-01    3.222267e-06
  1.069907e-01    3.225352e-06
  1.072896e-01    3.245990e-06
  1.075885e-01    3.231457e-06
  1.078875e-01    3.220844e-06
  1.081864e-01    3.227031e-06
  1.084853e-01    3.229379e-06
  1.087843e-01    3.229295e-06
  1.090832e-01    3.215825e-06
  1.093821e-01    3.212166e-06
  1.096810e-01    3.191561e-06
  1.099800e-01    3.157542e-06
  1.102789e-01    3.171991e-06
  1.105778e-01    3.181440e-06
  1.108768e-01    3.163992e-06
  1.111757e-01    3.141714e-06
  1.114746e-01    3.134540e-06
  1.117736e-01    3.142522e-06
  1.120725e-01    3.136090e-06
  1.123714e-01    3.096417e-06
  1.126704e-01    3.069065e-06
  1.129693e-01    3.088963e-06
  1.132682e-01    3.060042e-06
  1.135671e-01    2.987767e-06
  1.138661e-01    2.967007e-06
  1.141650e-01    2.944024e-06
  1.144639e-01    2.947817e-06
  1.147629e-01    2.946844e-06
  1.150618e-01    2.906484e-06
  1.153607e-01    2.885165e-06
  1.156597e-01    2.859658e-06
  1.159586e-01    2.845690e-06
  1.162575e-01    2.845572e-06
  1.165564e-01    2.860294e-06
  1.168554e-01    2.827218e-06
  1.171543e-01    2.800194e-06
  1.174532e-01    2.835942e-06
  1.177522e-01    2.833695e-06
  1.180511e-01    2.842420e-06
  1.183500e-01    2.820483e-06
  1.186490e-01    2.771184e-06
  1.189479e-01    2.738838e-06
  1.192468e-01    2.767604e-06
  1.195458e-01    2.769769e-06
  1.198447e-01    2.783167e-06
  1.201436e-01    2.863372e-06
  1.204425e-01    2.901562e-06
  1.207415e-01    3.000679e-06
  1.210404e-01    2.546603e-06
  1.213393e-01    0.000000e+00
  1.216383e-01    0.000000e+00
  1.219372e-01    0.000000e+00
  1.222361e-01    0.000000e+00
  1.225351e-01    0.000000e+00
  1.228340e-01    0.000000e+00
  1.231329e-01    0.000000e+00
  1.234318e-01    0.000000e+00
  1.237308e-01    0.000000e+00
  1.240297e-01    0.000000e+00
  1.243286e-01    0.000000e+00
  1.246276e-01    0.000000e+00
  1.249265e-01    0.000000e+00
  1.252254e-01    0.000000e+00
  1.255244e-01    0.000000e+00
  1.258233e-01    0.000000e+00
  1.261222e-01    0.000000e+00
  1.264212e-01    0.000000e+00
  1.267201e-01    0.000000e+00
  1.270190e-01    0.000000e+00
  1.273179e-01    0.000000e+00
  1.276169e-01    0.000000e+00
  1.279158e-01    0.000000e+00
  1.282147e-01    0.000000e+00
  1.285137e-01    0.000000e+00
  1.288126e-01    0.000000e+00
  1.291115e-01    0.000000e+00
  1.294105e-01    0.000000e+00
  1.297094e-01    0.000000e+00
  1.300083e-01    0.000000e+00
  1.303072e-01    0.000000e+00
  1.306062e-01    0.000000e+00
  1.309051e-01    0.000000e+00
  1.312040e-01    0.000000e+00
  1.315030e-01    0.000000e+00
  1.318019e-01    0.000000e+00
  1.321008e-01    0.000000e+00
  1.323998e-01    0.000000e+00
  1.326987e-01    0.000000e+00
  1.329976e-01    0.000000e+00
  1.332965e-01    0.000000e+00
  1.335955e-01    0.000000e+00
  1.338944e-01    0.000000e+00
  1.341933e-01    0.000000e+00
  1.344923e-01    0.000000e+00
  1.347912e-01    0.000000e+00
  1.350901e-01    0.000000e+00
  1.353891e-01    0.000000e+00
  1.356880e-01    0.000000e+00
  1.359869e-01    0.000000e+00
  1.362859e-01    0.000000e+00
  1.365848e-01    0.000000e+00
  1.368837e-01    0.000000e+00
  1.371826e-01    0.000000e+00
  1.374816e-01    0.000000e+00
  1.377805e-01    0.000000e+00
  1.380794e-01    0.000000e+00
  1.383784e-01    0.000000e+00
  1.386773e-01    0.000000e+00
  1.389762e-01    0.000000e+00
  1.392752e-01    0.000000e+00
  1.395741e-01    0.000000e+00
  1.398730e-01    0.000000e+00
  1.401719e-01    0.000000e+00
  1.404709e-01    0.000000e+00
  1.407698e-01    0.000000e+00
  1.410687e-01    0.000000e+00
  1.413677e-01    0.000000e+00
  1.416666e-01    0.000000e+00
  1.419655e-01    0.000000e+00
  1.422645e-01    0.000000e+00
  1.425634e-01    0.000000e+00
  1.428623e-01    0.000000e+00
  1.431613e-01    0.000000e+00
  1.434602e-01    0.000000e+00
  1.437591e-01    0.000000e+00
  1.440580e-01    0.000000e+00
  1.443570e-01    0.000000e+00
  1.446559e-01    0.000000e+00
  1.449548e-01    0.000000e+00
  1.452538e-01    0.000000e+00
  1.455527e-01    0.000000e+00
  1.458516e-01    0.000000e+00
  1.461506e-01    0.000000e+00
  1.464495e-01    0.000000e+00
  1.467484e-01    0.000000e+00
  1.470473e-01    0.000000e+00
  1.473463e-01    0.000000e+00
  1.476452e-01    0.000000e+00
  1.479441e-01    0.000000e+00
  1.482431e-01    0.000000e+00
  1.485420e-01    0.000000e+00
  1.488409e-01    0.000000e+00
  1.491399e-01    0.000000e+00
  1.494388e-01    0.000000e+00
  1.497377e-01    0.000000e+00
  1.500367e-01    0.000000e+00
  1.503356e-01    0.000000e+00
  1.506345e-01    0.000000e+00
  1.509334e-01    0.000000e+00
  1.512324e-01    0.000000e+00
  1.515313e-01    0.000000e+00
  1.518302e-01    0.000000e+00
  1.521292e-01    0.000000e+00
  1.524281e-01    0.000000e+00
  1.527270e-01    0.000000e+00
  1.530260e-01    0.000000e+00
  1.533249e-01    0.000000e+00
  1.536238e-01    0.000000e+00
