# == pyFAI calibration ==
# Distance Sample to Detector: 2.266 m
# PONI: 5.659e-02, 4.293e-02 m
# Rotations: 0.000000 0.000000 0.000000 rad
# 
# == Fit2d calibration ==
# Distance Sample-beamCenter: 2266.000 mm
# Center: x=249.594, y=329.012 pix
# Tilt: 0.000 deg  TiltPlanRot: 0.000 deg
# 
# Detector Pilatus 300k	 PixelSize= 1.720e-04, 1.720e-04 m
#    Detector has a mask: True 
#    Detector has a dark current: False 
#    detector has a flat field: False 
# 
# Wavelength: 1.27818e-10 m
# Mask applied: user provided
# Dark current applied: False
# Flat field applied: False
# Polarization factor: None
# Normalization factor: 5376234.4
# --> AL_F127_220226_53cf49ff-a028-47e9-a3d5-aa78e6cc82d3_0_r1d.csv
#        q_A^-1             I 
  4.457554e-03    1.266421e-03
  4.756484e-03    9.820921e-04
  5.055415e-03    6.856133e-04
  5.354345e-03    4.752092e-04
  5.653276e-03    3.595024e-04
  5.952206e-03    5.768572e-04
  6.251136e-03    5.271992e-04
  6.550067e-03    4.580031e-04
  6.848997e-03    3.905297e-04
  7.147927e-03    3.309801e-04
  7.446858e-03    2.832196e-04
  7.745788e-03    2.428399e-04
  8.044719e-03    2.089949e-04
  8.343649e-03    1.829147e-04
  8.642579e-03    1.607838e-04
  8.941510e-03    1.423999e-04
  9.240440e-03    1.263043e-04
  9.539371e-03    1.123729e-04
  9.838301e-03    9.961344e-05
  1.013723e-02    8.873311e-05
  1.043616e-02    8.018647e-05
  1.073509e-02    7.237805e-05
  1.103402e-02    6.612255e-05
  1.133295e-02    5.991729e-05
  1.163188e-02    5.461934e-05
  1.193081e-02    5.008424e-05
  1.222974e-02    4.606632e-05
  1.252867e-02    4.255864e-05
  1.282760e-02    3.908239e-05
  1.312654e-02    3.596619e-05
  1.342547e-02    3.360407e-05
  1.372440e-02    3.102731e-05
  1.402333e-02    2.877892e-05
  1.432226e-02    2.717395e-05
  1.462119e-02    2.531820e-05
  1.492012e-02    2.364260e-05
  1.521905e-02    2.239917e-05
  1.551798e-02    2.124211e-05
  1.581691e-02    1.998387e-05
  1.611584e-02    1.889065e-05
  1.641477e-02    1.782929e-05
  1.671370e-02    1.691206e-05
  1.701263e-02    1.599107e-05
  1.731156e-02    1.512555e-05
  1.761049e-02    1.454520e-05
  1.790942e-02    1.407049e-05
  1.820835e-02    1.350898e-05
  1.850728e-02    1.285691e-05
  1.880621e-02    1.235649e-05
  1.910514e-02    1.190645e-05
  1.940407e-02    1.137719e-05
  1.970300e-02    1.091282e-05
  2.000193e-02    1.060259e-05
  2.030086e-02    1.026185e-05
  2.059979e-02    9.910898e-06
  2.089873e-02    9.655716e-06
  2.119766e-02    9.432047e-06
  2.149659e-02    9.214352e-06
  2.179552e-02    8.990628e-06
  2.209445e-02    8.643489e-06
  2.239338e-02    8.449060e-06
  2.269231e-02    8.315365e-06
  2.299124e-02    8.094598e-06
  2.329017e-02    7.943122e-06
  2.358910e-02    7.734785e-06
  2.388803e-02    7.588894e-06
  2.418696e-02    7.439577e-06
  2.448589e-02    7.295941e-06
  2.478482e-02    7.157847e-06
  2.508375e-02    7.082222e-06
  2.538268e-02    6.970712e-06
  2.568161e-02    6.892989e-06
  2.598054e-02    6.755706e-06
  2.627947e-02    6.658835e-06
  2.657840e-02    6.598084e-06
  2.687733e-02    6.482816e-06
  2.717626e-02    6.371000e-06
  2.747519e-02    6.289505e-06
  2.777412e-02    6.289495e-06
  2.807305e-02    6.291892e-06
  2.837198e-02    6.116518e-06
  2.867092e-02    6.061199e-06
  2.896985e-02    6.054948e-06
  2.926878e-02    5.965675e-06
  2.956771e-02    5.977864e-06
  2.986664e-02    5.844217e-06
  3.016557e-02    5.701989e-06
  3.046450e-02    5.723175e-06
  3.076343e-02    5.680538e-06
  3.106236e-02    5.596951e-06
  3.136129e-02    5.608215e-06
  3.166022e-02    5.580668e-06
  3.195915e-02    5.526362e-06
  3.225808e-02    5.479932e-06
  3.255701e-02    5.470345e-06
  3.285594e-02    5.392979e-06
  3.315487e-02    5.317831e-06
  3.345380e-02    5.234126e-06
  3.375273e-02    5.186613e-06
  3.405166e-02    5.243963e-06
  3.435059e-02    5.198951e-06
  3.464952e-02    5.124342e-06
  3.494845e-02    5.125211e-06
  3.524738e-02    5.040050e-06
  3.554631e-02    5.016805e-06
  3.584524e-02    4.989882e-06
  3.614417e-02    4.928091e-06
  3.644310e-02    4.871213e-06
  3.674204e-02    4.842034e-06
  3.704097e-02    4.831241e-06
  3.733990e-02    4.835239e-06
  3.763883e-02    4.780687e-06
  3.793776e-02    4.773993e-06
  3.823669e-02    4.706497e-06
  3.853562e-02    4.702546e-06
  3.883455e-02    4.686788e-06
  3.913348e-02    4.616122e-06
  3.943241e-02    4.636629e-06
  3.973134e-02    4.646241e-06
  4.003027e-02    4.598188e-06
  4.032920e-02    4.558514e-06
  4.062813e-02    4.566643e-06
  4.092706e-02    4.539795e-06
  4.122599e-02    4.488647e-06
  4.152492e-02    4.458868e-06
  4.182385e-02    4.487909e-06
  4.212278e-02    4.463963e-06
  4.242171e-02    4.407616e-06
  4.272064e-02    4.392188e-06
  4.301957e-02    4.403847e-06
  4.331850e-02    4.446110e-06
  4.361743e-02    4.430369e-06
  4.391636e-02    4.373947e-06
  4.421529e-02    4.338879e-06
  4.451423e-02    4.357815e-06
  4.481316e-02    4.366783e-06
  4.511209e-02    4.346322e-06
  4.541102e-02    4.340059e-06
  4.570995e-02    4.360830e-06
  4.600888e-02    4.304221e-06
  4.630781e-02    4.266136e-06
  4.660674e-02    4.282668e-06
  4.690567e-02    4.291094e-06
  4.720460e-02    4.327656e-06
  4.750353e-02    4.325670e-06
  4.780246e-02    4.282696e-06
  4.810139e-02    4.245771e-06
  4.840032e-02    4.226487e-06
  4.869925e-02    4.274219e-06
  4.899818e-02    4.295223e-06
  4.929711e-02    4.313396e-06
  4.959604e-02    4.309961e-06
  4.989497e-02    4.361247e-06
  5.019390e-02    4.348619e-06
  5.049283e-02    4.284112e-06
  5.079176e-02    4.256236e-06
  5.109069e-02    4.301636e-06
  5.138962e-02    4.308042e-06
  5.168855e-02    4.364886e-06
  5.198748e-02    4.481033e-06
  5.228642e-02    4.478318e-06
  5.258535e-02    4.330323e-06
  5.288428e-02    4.271236e-06
  5.318321e-02    4.267992e-06
  5.348214e-02    4.257066e-06
  5.378107e-02    4.295272e-06
  5.408000e-02    4.270127e-06
  5.437893e-02    4.220995e-06
  5.467786e-02    4.234066e-06
  5.497679e-02    4.213626e-06
  5.527572e-02    4.178981e-06
  5.557465e-02    4.202314e-06
  5.587358e-02    4.224667e-06
  5.617251e-02    4.203755e-06
  5.647144e-02    4.215808e-06
  5.677037e-02    4.216156e-06
  5.706930e-02    4.250806e-06
  5.736823e-02    4.285570e-06
  5.766716e-02    4.244861e-06
  5.796609e-02    4.258506e-06
  5.826502e-02    4.262551e-06
  5.856395e-02    4.227592e-06
  5.886288e-02    4.198890e-06
  5.916181e-02    4.210363e-06
  5.946074e-02    4.218413e-06
  5.975967e-02    4.250914e-06
  6.005861e-02    4.243115e-06
  6.035754e-02    4.264336e-06
  6.065647e-02    4.304289e-06
  6.095540e-02    4.342805e-06
  6.125433e-02    4.382758e-06
  6.155326e-02    4.363545e-06
  6.185219e-02    4.336661e-06
  6.215112e-02    4.261697e-06
  6.245005e-02    4.266942e-06
  6.274898e-02    4.271284e-06
  6.304791e-02    4.262951e-06
  6.334684e-02    4.275562e-06
  6.364577e-02    4.275389e-06
  6.394470e-02    4.289987e-06
  6.424363e-02    4.297542e-06
  6.454256e-02    4.292738e-06
  6.484149e-02    4.289532e-06
  6.514042e-02    4.282416e-06
  6.543935e-02    4.270115e-06
  6.573828e-02    4.298742e-06
  6.603721e-02    4.344474e-06
  6.633614e-02    4.343665e-06
  6.663507e-02    4.306943e-06
  6.693400e-02    4.299034e-06
  6.723293e-02    4.308956e-06
  6.753186e-02    4.345712e-06
  6.783080e-02    4.372714e-06
  6.812973e-02    4.347188e-06
  6.842866e-02    4.347707e-06
  6.872759e-02    4.345993e-06
  6.902652e-02    4.355355e-06
  6.932545e-02    4.331609e-06
  6.962438e-02    4.341538e-06
  6.992331e-02    4.347827e-06
  7.022224e-02    4.354152e-06
  7.052117e-02    4.313931e-06
  7.082010e-02    4.339011e-06
  7.111903e-02    4.383370e-06
  7.141796e-02    4.353129e-06
  7.171689e-02    4.349110e-06
  7.201582e-02    4.375238e-06
  7.231475e-02    4.353250e-06
  7.261368e-02    4.350137e-06
  7.291261e-02    4.394172e-06
  7.321154e-02    4.412423e-06
  7.351047e-02    4.370548e-06
  7.380940e-02    4.348364e-06
  7.410833e-02    4.360996e-06
  7.440726e-02    4.369749e-06
  7.470619e-02    4.362182e-06
  7.500512e-02    4.340040e-06
  7.530405e-02    4.361817e-06
  7.560299e-02    4.386673e-06
  7.590192e-02    4.382319e-06
  7.620085e-02    4.399998e-06
  7.649978e-02    4.384553e-06
  7.679871e-02    4.351211e-06
  7.709764e-02    4.370960e-06
  7.739657e-02    4.364801e-06
  7.769550e-02    4.334584e-06
  7.799443e-02    4.334703e-06
  7.829336e-02    4.370862e-06
  7.859229e-02    4.371173e-06
  7.889122e-02    4.359996e-06
  7.919015e-02    4.369804e-06
  7.948908e-02    4.380101e-06
  7.978801e-02    4.334490e-06
  8.008694e-02    4.298909e-06
  8.038587e-02    4.287127e-06
  8.068480e-02    4.333636e-06
  8.098373e-02    4.317909e-06
  8.128266e-02    4.310255e-06
  8.158159e-02    4.307285e-06
  8.188052e-02    4.317367e-06
  8.217945e-02    4.313292e-06
  8.247838e-02    4.285129e-06
  8.277731e-02    4.289921e-06
  8.307624e-02    4.307524e-06
  8.337518e-02    4.315184e-06
  8.367411e-02    4.295106e-06
  8.397304e-02    4.265099e-06
  8.427197e-02    4.260512e-06
  8.457090e-02    4.256658e-06
  8.486983e-02    4.288013e-06
  8.516876e-02    4.267620e-06
  8.546769e-02    4.250387e-06
  8.576662e-02    4.248187e-06
  8.606555e-02    4.247939e-06
  8.636448e-02    4.243457e-06
  8.666341e-02    4.240927e-06
  8.696234e-02    4.222771e-06
  8.726127e-02    4.232392e-06
  8.756020e-02    4.240700e-06
  8.785913e-02    4.217436e-06
  8.815806e-02    4.213393e-06
  8.845699e-02    4.227042e-06
  8.875592e-02    4.257344e-06
  8.905485e-02    4.249519e-06
  8.935378e-02    4.213420e-06
  8.965271e-02    4.212168e-06
  8.995164e-02    4.211583e-06
  9.025057e-02    4.169986e-06
  9.054950e-02    4.152403e-06
  9.084843e-02    4.188165e-06
  9.114737e-02    4.205603e-06
  9.144630e-02    4.177286e-06
  9.174523e-02    4.170569e-06
  9.204416e-02    4.125813e-06
  9.234309e-02    4.108847e-06
  9.264202e-02    4.109152e-06
  9.294095e-02    4.128722e-06
  9.323988e-02    4.126468e-06
  9.353881e-02    4.123357e-06
  9.383774e-02    4.089340e-06
  9.413667e-02    4.069964e-06
  9.443560e-02    4.090613e-06
  9.473453e-02    4.111007e-06
  9.503346e-02    4.108183e-06
  9.533239e-02    4.056248e-06
  9.563132e-02    4.037828e-06
  9.593025e-02    4.084905e-06
  9.622918e-02    4.098480e-06
  9.652811e-02    4.129168e-06
  9.682704e-02    4.138561e-06
  9.712597e-02    4.108325e-06
  9.742490e-02    4.118795e-06
  9.772383e-02    4.120820e-06
  9.802276e-02    4.074499e-06
  9.832169e-02    4.030795e-06
  9.862062e-02    4.020632e-06
  9.891956e-02    4.034506e-06
  9.921849e-02    4.034865e-06
  9.951742e-02    4.029783e-06
  9.981635e-02    4.028948e-06
  1.001153e-01    3.997250e-06
  1.004142e-01    4.009504e-06
  1.007131e-01    3.998403e-06
  1.010121e-01    3.955785e-06
  1.013110e-01    3.934636e-06
  1.016099e-01    3.963432e-06
  1.019089e-01    3.968895e-06
  1.022078e-01    3.963200e-06
  1.025067e-01    3.983807e-06
  1.028057e-01    3.954352e-06
  1.031046e-01    3.940402e-06
  1.034035e-01    3.945713e-06
  1.037024e-01    3.985703e-06
  1.040014e-01    3.956206e-06
  1.043003e-01    3.906941e-06
  1.045992e-01    3.909636e-06
  1.048982e-01    3.911616e-06
  1.051971e-01    3.927673e-06
  1.054960e-01    3.894662e-06
  1.057950e-01    3.899375e-06
  1.060939e-01    3.917312e-06
  1.063928e-01    3.899813e-06
  1.066917e-01    3.883129e-06
  1.069907e-01    3.873469e-06
  1.072896e-01    3.861403e-06
  1.075885e-01    3.880073e-06
  1.078875e-01    3.894294e-06
  1.081864e-01    3.897132e-06
  1.084853e-01    3.896050e-06
  1.087843e-01    3.910822e-06
  1.090832e-01    3.897076e-06
  1.093821e-01    3.839041e-06
  1.096810e-01    3.822990e-06
  1.099800e-01    3.839512e-06
  1.102789e-01    3.827095e-06
  1.105778e-01    3.851683e-06
  1.108768e-01    3.821316e-06
  1.111757e-01    3.753308e-06
  1.114746e-01    3.764805e-06
  1.117736e-01    3.788825e-06
  1.120725e-01    3.764441e-06
  1.123714e-01    3.772799e-06
  1.126704e-01    3.791988e-06
  1.129693e-01    3.764536e-06
  1.132682e-01    3.728577e-06
  1.135671e-01    3.695576e-06
  1.138661e-01    3.678977e-06
  1.141650e-01    3.700959e-06
  1.144639e-01    3.715056e-06
  1.147629e-01    3.722229e-06
  1.150618e-01    3.697033e-06
  1.153607e-01    3.649398e-06
  1.156597e-01    3.678988e-06
  1.159586e-01    3.754803e-06
  1.162575e-01    3.736758e-06
  1.165564e-01    3.699197e-06
  1.168554e-01    3.694102e-06
  1.171543e-01    3.687133e-06
  1.174532e-01    3.706672e-06
  1.177522e-01    3.658838e-06
  1.180511e-01    3.722193e-06
  1.183500e-01    3.689768e-06
  1.186490e-01    3.658021e-06
  1.189479e-01    3.640829e-06
  1.192468e-01    3.616157e-06
  1.195458e-01    3.610467e-06
  1.198447e-01    3.638460e-06
  1.201436e-01    3.651018e-06
  1.204425e-01    3.628886e-06
  1.207415e-01    3.970550e-06
  1.210404e-01    4.095790e-06
  1.213393e-01    0.000000e+00
  1.216383e-01    0.000000e+00
  1.219372e-01    0.000000e+00
  1.222361e-01    0.000000e+00
  1.225351e-01    0.000000e+00
  1.228340e-01    0.000000e+00
  1.231329e-01    0.000000e+00
  1.234318e-01    0.000000e+00
  1.237308e-01    0.000000e+00
  1.240297e-01    0.000000e+00
  1.243286e-01    0.000000e+00
  1.246276e-01    0.000000e+00
  1.249265e-01    0.000000e+00
  1.252254e-01    0.000000e+00
  1.255244e-01    0.000000e+00
  1.258233e-01    0.000000e+00
  1.261222e-01    0.000000e+00
  1.264212e-01    0.000000e+00
  1.267201e-01    0.000000e+00
  1.270190e-01    0.000000e+00
  1.273179e-01    0.000000e+00
  1.276169e-01    0.000000e+00
  1.279158e-01    0.000000e+00
  1.282147e-01    0.000000e+00
  1.285137e-01    0.000000e+00
  1.288126e-01    0.000000e+00
  1.291115e-01    0.000000e+00
  1.294105e-01    0.000000e+00
  1.297094e-01    0.000000e+00
  1.300083e-01    0.000000e+00
  1.303072e-01    0.000000e+00
  1.306062e-01    0.000000e+00
  1.309051e-01    0.000000e+00
  1.312040e-01    0.000000e+00
  1.315030e-01    0.000000e+00
  1.318019e-01    0.000000e+00
  1.321008e-01    0.000000e+00
  1.323998e-01    0.000000e+00
  1.326987e-01    0.000000e+00
  1.329976e-01    0.000000e+00
  1.332965e-01    0.000000e+00
  1.335955e-01    0.000000e+00
  1.338944e-01    0.000000e+00
  1.341933e-01    0.000000e+00
  1.344923e-01    0.000000e+00
  1.347912e-01    0.000000e+00
  1.350901e-01    0.000000e+00
  1.353891e-01    0.000000e+00
  1.356880e-01    0.000000e+00
  1.359869e-01    0.000000e+00
  1.362859e-01    0.000000e+00
  1.365848e-01    0.000000e+00
  1.368837e-01    0.000000e+00
  1.371826e-01    0.000000e+00
  1.374816e-01    0.000000e+00
  1.377805e-01    0.000000e+00
  1.380794e-01    0.000000e+00
  1.383784e-01    0.000000e+00
  1.386773e-01    0.000000e+00
  1.389762e-01    0.000000e+00
  1.392752e-01    0.000000e+00
  1.395741e-01    0.000000e+00
  1.398730e-01    0.000000e+00
  1.401719e-01    0.000000e+00
  1.404709e-01    0.000000e+00
  1.407698e-01    0.000000e+00
  1.410687e-01    0.000000e+00
  1.413677e-01    0.000000e+00
  1.416666e-01    0.000000e+00
  1.419655e-01    0.000000e+00
  1.422645e-01    0.000000e+00
  1.425634e-01    0.000000e+00
  1.428623e-01    0.000000e+00
  1.431613e-01    0.000000e+00
  1.434602e-01    0.000000e+00
  1.437591e-01    0.000000e+00
  1.440580e-01    0.000000e+00
  1.443570e-01    0.000000e+00
  1.446559e-01    0.000000e+00
  1.449548e-01    0.000000e+00
  1.452538e-01    0.000000e+00
  1.455527e-01    0.000000e+00
  1.458516e-01    0.000000e+00
  1.461506e-01    0.000000e+00
  1.464495e-01    0.000000e+00
  1.467484e-01    0.000000e+00
  1.470473e-01    0.000000e+00
  1.473463e-01    0.000000e+00
  1.476452e-01    0.000000e+00
  1.479441e-01    0.000000e+00
  1.482431e-01    0.000000e+00
  1.485420e-01    0.000000e+00
  1.488409e-01    0.000000e+00
  1.491399e-01    0.000000e+00
  1.494388e-01    0.000000e+00
  1.497377e-01    0.000000e+00
  1.500367e-01    0.000000e+00
  1.503356e-01    0.000000e+00
  1.506345e-01    0.000000e+00
  1.509334e-01    0.000000e+00
  1.512324e-01    0.000000e+00
  1.515313e-01    0.000000e+00
  1.518302e-01    0.000000e+00
  1.521292e-01    0.000000e+00
  1.524281e-01    0.000000e+00
  1.527270e-01    0.000000e+00
  1.530260e-01    0.000000e+00
  1.533249e-01    0.000000e+00
  1.536238e-01    0.000000e+00
