# == pyFAI calibration ==
# Distance Sample to Detector: 2.266 m
# PONI: 5.659e-02, 4.293e-02 m
# Rotations: 0.000000 0.000000 0.000000 rad
# 
# == Fit2d calibration ==
# Distance Sample-beamCenter: 2266.000 mm
# Center: x=249.594, y=329.012 pix
# Tilt: 0.000 deg  TiltPlanRot: 0.000 deg
# 
# Detector Pilatus 300k	 PixelSize= 1.720e-04, 1.720e-04 m
#    Detector has a mask: True 
#    Detector has a dark current: False 
#    detector has a flat field: False 
# 
# Wavelength: 1.27818e-10 m
# Mask applied: user provided
# Dark current applied: False
# Flat field applied: False
# Polarization factor: None
# Normalization factor: 791674.8
# --> AL_F127_220301_c5fcf3f6-29e8-40b5-9ec7-6529272ceb82_2_r1d.csv
#        q_A^-1             I 
  4.457554e-03    2.686220e-03
  4.756484e-03    2.125341e-03
  5.055415e-03    1.525938e-03
  5.354345e-03    1.031859e-03
  5.653276e-03    7.629824e-04
  5.952206e-03    1.067030e-03
  6.251136e-03    9.808170e-04
  6.550067e-03    8.579027e-04
  6.848997e-03    7.368440e-04
  7.147927e-03    6.350828e-04
  7.446858e-03    5.550278e-04
  7.745788e-03    4.869720e-04
  8.044719e-03    4.306376e-04
  8.343649e-03    3.851419e-04
  8.642579e-03    3.484499e-04
  8.941510e-03    3.159734e-04
  9.240440e-03    2.900098e-04
  9.539371e-03    2.685427e-04
  9.838301e-03    2.485192e-04
  1.013723e-02    2.328301e-04
  1.043616e-02    2.193401e-04
  1.073509e-02    2.072363e-04
  1.103402e-02    1.966132e-04
  1.133295e-02    1.888319e-04
  1.163188e-02    1.822618e-04
  1.193081e-02    1.750212e-04
  1.222974e-02    1.702485e-04
  1.252867e-02    1.665160e-04
  1.282760e-02    1.622958e-04
  1.312654e-02    1.586920e-04
  1.342547e-02    1.564781e-04
  1.372440e-02    1.565181e-04
  1.402333e-02    1.558317e-04
  1.432226e-02    1.541083e-04
  1.462119e-02    1.544157e-04
  1.492012e-02    1.545740e-04
  1.521905e-02    1.551913e-04
  1.551798e-02    1.554005e-04
  1.581691e-02    1.562945e-04
  1.611584e-02    1.597573e-04
  1.641477e-02    1.643724e-04
  1.671370e-02    1.660364e-04
  1.701263e-02    1.684011e-04
  1.731156e-02    1.728100e-04
  1.761049e-02    1.782299e-04
  1.790942e-02    1.834217e-04
  1.820835e-02    1.889029e-04
  1.850728e-02    1.940794e-04
  1.880621e-02    1.993695e-04
  1.910514e-02    2.065359e-04
  1.940407e-02    2.147807e-04
  1.970300e-02    2.213252e-04
  2.000193e-02    2.276249e-04
  2.030086e-02    2.366758e-04
  2.059979e-02    2.457832e-04
  2.089873e-02    2.540036e-04
  2.119766e-02    2.634395e-04
  2.149659e-02    2.736057e-04
  2.179552e-02    2.823534e-04
  2.209445e-02    2.895562e-04
  2.239338e-02    2.979793e-04
  2.269231e-02    3.051243e-04
  2.299124e-02    3.118464e-04
  2.329017e-02    3.181431e-04
  2.358910e-02    3.236590e-04
  2.388803e-02    3.295926e-04
  2.418696e-02    3.329519e-04
  2.448589e-02    3.330150e-04
  2.478482e-02    3.342231e-04
  2.508375e-02    3.338658e-04
  2.538268e-02    3.316726e-04
  2.568161e-02    3.290183e-04
  2.598054e-02    3.253013e-04
  2.627947e-02    3.202904e-04
  2.657840e-02    3.135306e-04
  2.687733e-02    3.066351e-04
  2.717626e-02    2.988770e-04
  2.747519e-02    2.899128e-04
  2.777412e-02    2.816899e-04
  2.807305e-02    2.721033e-04
  2.837198e-02    2.627508e-04
  2.867092e-02    2.534462e-04
  2.896985e-02    2.450699e-04
  2.926878e-02    2.357580e-04
  2.956771e-02    2.264700e-04
  2.986664e-02    2.181691e-04
  3.016557e-02    2.097557e-04
  3.046450e-02    2.015702e-04
  3.076343e-02    1.934099e-04
  3.106236e-02    1.854049e-04
  3.136129e-02    1.787164e-04
  3.166022e-02    1.720756e-04
  3.195915e-02    1.650430e-04
  3.225808e-02    1.584503e-04
  3.255701e-02    1.524035e-04
  3.285594e-02    1.465954e-04
  3.315487e-02    1.421651e-04
  3.345380e-02    1.376869e-04
  3.375273e-02    1.331407e-04
  3.405166e-02    1.289747e-04
  3.435059e-02    1.250222e-04
  3.464952e-02    1.204024e-04
  3.494845e-02    1.163294e-04
  3.524738e-02    1.137201e-04
  3.554631e-02    1.106315e-04
  3.584524e-02    1.076311e-04
  3.614417e-02    1.050051e-04
  3.644310e-02    1.021906e-04
  3.674204e-02    9.986159e-05
  3.704097e-02    9.729819e-05
  3.733990e-02    9.510588e-05
  3.763883e-02    9.298173e-05
  3.793776e-02    9.143477e-05
  3.823669e-02    8.954931e-05
  3.853562e-02    8.691957e-05
  3.883455e-02    8.522136e-05
  3.913348e-02    8.369189e-05
  3.943241e-02    8.216967e-05
  3.973134e-02    8.065797e-05
  4.003027e-02    7.889289e-05
  4.032920e-02    7.727614e-05
  4.062813e-02    7.655485e-05
  4.092706e-02    7.542151e-05
  4.122599e-02    7.408626e-05
  4.152492e-02    7.251218e-05
  4.182385e-02    7.159789e-05
  4.212278e-02    7.068596e-05
  4.242171e-02    6.931945e-05
  4.272064e-02    6.786738e-05
  4.301957e-02    6.695033e-05
  4.331850e-02    6.626865e-05
  4.361743e-02    6.554002e-05
  4.391636e-02    6.467333e-05
  4.421529e-02    6.331703e-05
  4.451423e-02    6.279201e-05
  4.481316e-02    6.218873e-05
  4.511209e-02    6.112670e-05
  4.541102e-02    6.022297e-05
  4.570995e-02    5.892776e-05
  4.600888e-02    5.792293e-05
  4.630781e-02    5.737621e-05
  4.660674e-02    5.688471e-05
  4.690567e-02    5.594198e-05
  4.720460e-02    5.471259e-05
  4.750353e-02    5.411088e-05
  4.780246e-02    5.309441e-05
  4.810139e-02    5.186562e-05
  4.840032e-02    5.106772e-05
  4.869925e-02    5.004601e-05
  4.899818e-02    4.899942e-05
  4.929711e-02    4.839223e-05
  4.959604e-02    4.735315e-05
  4.989497e-02    4.639480e-05
  5.019390e-02    4.549284e-05
  5.049283e-02    4.466923e-05
  5.079176e-02    4.394255e-05
  5.109069e-02    4.261959e-05
  5.138962e-02    4.172686e-05
  5.168855e-02    4.100781e-05
  5.198748e-02    4.065982e-05
  5.228642e-02    3.947236e-05
  5.258535e-02    3.806620e-05
  5.288428e-02    3.727222e-05
  5.318321e-02    3.669586e-05
  5.348214e-02    3.583170e-05
  5.378107e-02    3.498428e-05
  5.408000e-02    3.389486e-05
  5.437893e-02    3.330282e-05
  5.467786e-02    3.279066e-05
  5.497679e-02    3.186595e-05
  5.527572e-02    3.117065e-05
  5.557465e-02    3.003183e-05
  5.587358e-02    2.926437e-05
  5.617251e-02    2.879924e-05
  5.647144e-02    2.782200e-05
  5.677037e-02    2.731914e-05
  5.706930e-02    2.695788e-05
  5.736823e-02    2.621347e-05
  5.766716e-02    2.566641e-05
  5.796609e-02    2.512712e-05
  5.826502e-02    2.444869e-05
  5.856395e-02    2.390680e-05
  5.886288e-02    2.347674e-05
  5.916181e-02    2.281032e-05
  5.946074e-02    2.238473e-05
  5.975967e-02    2.204001e-05
  6.005861e-02    2.133113e-05
  6.035754e-02    2.087871e-05
  6.065647e-02    2.047453e-05
  6.095540e-02    2.020041e-05
  6.125433e-02    1.983065e-05
  6.155326e-02    1.926391e-05
  6.185219e-02    1.885222e-05
  6.215112e-02    1.874501e-05
  6.245005e-02    1.825253e-05
  6.274898e-02    1.770995e-05
  6.304791e-02    1.735589e-05
  6.334684e-02    1.714049e-05
  6.364577e-02    1.676424e-05
  6.394470e-02    1.644321e-05
  6.424363e-02    1.603533e-05
  6.454256e-02    1.579417e-05
  6.484149e-02    1.553650e-05
  6.514042e-02    1.524795e-05
  6.543935e-02    1.500300e-05
  6.573828e-02    1.494210e-05
  6.603721e-02    1.464614e-05
  6.633614e-02    1.426991e-05
  6.663507e-02    1.416923e-05
  6.693400e-02    1.401352e-05
  6.723293e-02    1.370168e-05
  6.753186e-02    1.353380e-05
  6.783080e-02    1.352370e-05
  6.812973e-02    1.320547e-05
  6.842866e-02    1.301368e-05
  6.872759e-02    1.287784e-05
  6.902652e-02    1.286019e-05
  6.932545e-02    1.253664e-05
  6.962438e-02    1.229719e-05
  6.992331e-02    1.220352e-05
  7.022224e-02    1.213205e-05
  7.052117e-02    1.202251e-05
  7.082010e-02    1.176448e-05
  7.111903e-02    1.157041e-05
  7.141796e-02    1.157954e-05
  7.171689e-02    1.160676e-05
  7.201582e-02    1.161046e-05
  7.231475e-02    1.133928e-05
  7.261368e-02    1.124204e-05
  7.291261e-02    1.120312e-05
  7.321154e-02    1.100850e-05
  7.351047e-02    1.088470e-05
  7.380940e-02    1.091915e-05
  7.410833e-02    1.085291e-05
  7.440726e-02    1.075821e-05
  7.470619e-02    1.058885e-05
  7.500512e-02    1.048486e-05
  7.530405e-02    1.048152e-05
  7.560299e-02    1.045903e-05
  7.590192e-02    1.037615e-05
  7.620085e-02    1.032428e-05
  7.649978e-02    1.032627e-05
  7.679871e-02    1.035133e-05
  7.709764e-02    1.009235e-05
  7.739657e-02    9.989911e-06
  7.769550e-02    1.002635e-05
  7.799443e-02    1.018826e-05
  7.829336e-02    1.008632e-05
  7.859229e-02    9.988999e-06
  7.889122e-02    1.015962e-05
  7.919015e-02    1.025515e-05
  7.948908e-02    1.006957e-05
  7.978801e-02    9.813525e-06
  8.008694e-02    9.819063e-06
  8.038587e-02    9.829102e-06
  8.068480e-02    9.779592e-06
  8.098373e-02    9.829346e-06
  8.128266e-02    9.841107e-06
  8.158159e-02    9.858022e-06
  8.188052e-02    9.950715e-06
  8.217945e-02    9.962091e-06
  8.247838e-02    9.783635e-06
  8.277731e-02    9.811353e-06
  8.307624e-02    9.792659e-06
  8.337518e-02    9.709654e-06
  8.367411e-02    9.706117e-06
  8.397304e-02    9.755257e-06
  8.427197e-02    9.760838e-06
  8.457090e-02    9.781810e-06
  8.486983e-02    9.842240e-06
  8.516876e-02    9.864764e-06
  8.546769e-02    9.874370e-06
  8.576662e-02    9.874829e-06
  8.606555e-02    9.827188e-06
  8.636448e-02    9.817165e-06
  8.666341e-02    9.893852e-06
  8.696234e-02    9.866823e-06
  8.726127e-02    9.732521e-06
  8.756020e-02    9.793864e-06
  8.785913e-02    9.792018e-06
  8.815806e-02    9.683087e-06
  8.845699e-02    9.721701e-06
  8.875592e-02    9.804561e-06
  8.905485e-02    9.880942e-06
  8.935378e-02    9.961707e-06
  8.965271e-02    9.949811e-06
  8.995164e-02    9.894533e-06
  9.025057e-02    9.974715e-06
  9.054950e-02    9.952570e-06
  9.084843e-02    9.878218e-06
  9.114737e-02    9.938622e-06
  9.144630e-02    9.791762e-06
  9.174523e-02    9.749220e-06
  9.204416e-02    9.929407e-06
  9.234309e-02    1.000875e-05
  9.264202e-02    9.869918e-06
  9.294095e-02    9.864381e-06
  9.323988e-02    9.980249e-06
  9.353881e-02    1.006136e-05
  9.383774e-02    1.013271e-05
  9.413667e-02    1.012380e-05
  9.443560e-02    1.012251e-05
  9.473453e-02    1.023696e-05
  9.503346e-02    1.017598e-05
  9.533239e-02    9.990129e-06
  9.563132e-02    9.924304e-06
  9.593025e-02    9.984326e-06
  9.622918e-02    1.001265e-05
  9.652811e-02    1.006443e-05
  9.682704e-02    1.008199e-05
  9.712597e-02    1.015780e-05
  9.742490e-02    1.007871e-05
  9.772383e-02    1.012248e-05
  9.802276e-02    1.018535e-05
  9.832169e-02    1.002315e-05
  9.862062e-02    1.004551e-05
  9.891956e-02    1.010636e-05
  9.921849e-02    1.011441e-05
  9.951742e-02    1.013256e-05
  9.981635e-02    9.942059e-06
  1.001153e-01    9.990069e-06
  1.004142e-01    1.002955e-05
  1.007131e-01    1.005626e-05
  1.010121e-01    1.007882e-05
  1.013110e-01    9.907924e-06
  1.016099e-01    9.935531e-06
  1.019089e-01    9.930615e-06
  1.022078e-01    9.947531e-06
  1.025067e-01    9.975732e-06
  1.028057e-01    9.908234e-06
  1.031046e-01    9.893222e-06
  1.034035e-01    9.977904e-06
  1.037024e-01    9.816791e-06
  1.040014e-01    9.698572e-06
  1.043003e-01    9.768430e-06
  1.045992e-01    9.824132e-06
  1.048982e-01    9.888003e-06
  1.051971e-01    9.848112e-06
  1.054960e-01    9.766622e-06
  1.057950e-01    9.727410e-06
  1.060939e-01    9.712383e-06
  1.063928e-01    9.750974e-06
  1.066917e-01    9.932129e-06
  1.069907e-01    9.780236e-06
  1.072896e-01    9.687404e-06
  1.075885e-01    9.718761e-06
  1.078875e-01    9.829090e-06
  1.081864e-01    9.785716e-06
  1.084853e-01    9.594350e-06
  1.087843e-01    9.659298e-06
  1.090832e-01    9.811220e-06
  1.093821e-01    9.847974e-06
  1.096810e-01    9.900587e-06
  1.099800e-01    9.943007e-06
  1.102789e-01    9.833638e-06
  1.105778e-01    9.761535e-06
  1.108768e-01    9.737818e-06
  1.111757e-01    9.599649e-06
  1.114746e-01    9.475870e-06
  1.117736e-01    9.267326e-06
  1.120725e-01    9.048519e-06
  1.123714e-01    8.895720e-06
  1.126704e-01    8.927387e-06
  1.129693e-01    8.999569e-06
  1.132682e-01    8.681709e-06
  1.135671e-01    8.478753e-06
  1.138661e-01    8.369422e-06
  1.141650e-01    8.320656e-06
  1.144639e-01    8.075153e-06
  1.147629e-01    8.212329e-06
  1.150618e-01    8.393940e-06
  1.153607e-01    8.195866e-06
  1.156597e-01    7.797003e-06
  1.159586e-01    7.737916e-06
  1.162575e-01    7.836304e-06
  1.165564e-01    8.040498e-06
  1.168554e-01    7.924910e-06
  1.171543e-01    8.056621e-06
  1.174532e-01    8.123144e-06
  1.177522e-01    8.007025e-06
  1.180511e-01    7.842576e-06
  1.183500e-01    7.934002e-06
  1.186490e-01    8.103767e-06
  1.189479e-01    7.882640e-06
  1.192468e-01    7.512899e-06
  1.195458e-01    7.504402e-06
  1.198447e-01    7.916785e-06
  1.201436e-01    7.931528e-06
  1.204425e-01    7.011254e-06
  1.207415e-01    6.199958e-06
  1.210404e-01    5.057157e-06
  1.213393e-01    0.000000e+00
  1.216383e-01    0.000000e+00
  1.219372e-01    0.000000e+00
  1.222361e-01    0.000000e+00
  1.225351e-01    0.000000e+00
  1.228340e-01    0.000000e+00
  1.231329e-01    0.000000e+00
  1.234318e-01    0.000000e+00
  1.237308e-01    0.000000e+00
  1.240297e-01    0.000000e+00
  1.243286e-01    0.000000e+00
  1.246276e-01    0.000000e+00
  1.249265e-01    0.000000e+00
  1.252254e-01    0.000000e+00
  1.255244e-01    0.000000e+00
  1.258233e-01    0.000000e+00
  1.261222e-01    0.000000e+00
  1.264212e-01    0.000000e+00
  1.267201e-01    0.000000e+00
  1.270190e-01    0.000000e+00
  1.273179e-01    0.000000e+00
  1.276169e-01    0.000000e+00
  1.279158e-01    0.000000e+00
  1.282147e-01    0.000000e+00
  1.285137e-01    0.000000e+00
  1.288126e-01    0.000000e+00
  1.291115e-01    0.000000e+00
  1.294105e-01    0.000000e+00
  1.297094e-01    0.000000e+00
  1.300083e-01    0.000000e+00
  1.303072e-01    0.000000e+00
  1.306062e-01    0.000000e+00
  1.309051e-01    0.000000e+00
  1.312040e-01    0.000000e+00
  1.315030e-01    0.000000e+00
  1.318019e-01    0.000000e+00
  1.321008e-01    0.000000e+00
  1.323998e-01    0.000000e+00
  1.326987e-01    0.000000e+00
  1.329976e-01    0.000000e+00
  1.332965e-01    0.000000e+00
  1.335955e-01    0.000000e+00
  1.338944e-01    0.000000e+00
  1.341933e-01    0.000000e+00
  1.344923e-01    0.000000e+00
  1.347912e-01    0.000000e+00
  1.350901e-01    0.000000e+00
  1.353891e-01    0.000000e+00
  1.356880e-01    0.000000e+00
  1.359869e-01    0.000000e+00
  1.362859e-01    0.000000e+00
  1.365848e-01    0.000000e+00
  1.368837e-01    0.000000e+00
  1.371826e-01    0.000000e+00
  1.374816e-01    0.000000e+00
  1.377805e-01    0.000000e+00
  1.380794e-01    0.000000e+00
  1.383784e-01    0.000000e+00
  1.386773e-01    0.000000e+00
  1.389762e-01    0.000000e+00
  1.392752e-01    0.000000e+00
  1.395741e-01    0.000000e+00
  1.398730e-01    0.000000e+00
  1.401719e-01    0.000000e+00
  1.404709e-01    0.000000e+00
  1.407698e-01    0.000000e+00
  1.410687e-01    0.000000e+00
  1.413677e-01    0.000000e+00
  1.416666e-01    0.000000e+00
  1.419655e-01    0.000000e+00
  1.422645e-01    0.000000e+00
  1.425634e-01    0.000000e+00
  1.428623e-01    0.000000e+00
  1.431613e-01    0.000000e+00
  1.434602e-01    0.000000e+00
  1.437591e-01    0.000000e+00
  1.440580e-01    0.000000e+00
  1.443570e-01    0.000000e+00
  1.446559e-01    0.000000e+00
  1.449548e-01    0.000000e+00
  1.452538e-01    0.000000e+00
  1.455527e-01    0.000000e+00
  1.458516e-01    0.000000e+00
  1.461506e-01    0.000000e+00
  1.464495e-01    0.000000e+00
  1.467484e-01    0.000000e+00
  1.470473e-01    0.000000e+00
  1.473463e-01    0.000000e+00
  1.476452e-01    0.000000e+00
  1.479441e-01    0.000000e+00
  1.482431e-01    0.000000e+00
  1.485420e-01    0.000000e+00
  1.488409e-01    0.000000e+00
  1.491399e-01    0.000000e+00
  1.494388e-01    0.000000e+00
  1.497377e-01    0.000000e+00
  1.500367e-01    0.000000e+00
  1.503356e-01    0.000000e+00
  1.506345e-01    0.000000e+00
  1.509334e-01    0.000000e+00
  1.512324e-01    0.000000e+00
  1.515313e-01    0.000000e+00
  1.518302e-01    0.000000e+00
  1.521292e-01    0.000000e+00
  1.524281e-01    0.000000e+00
  1.527270e-01    0.000000e+00
  1.530260e-01    0.000000e+00
  1.533249e-01    0.000000e+00
  1.536238e-01    0.000000e+00
