# == pyFAI calibration ==
# Distance Sample to Detector: 2.266 m
# PONI: 5.659e-02, 4.293e-02 m
# Rotations: 0.000000 0.000000 0.000000 rad
# 
# == Fit2d calibration ==
# Distance Sample-beamCenter: 2266.000 mm
# Center: x=249.594, y=329.012 pix
# Tilt: 0.000 deg  TiltPlanRot: 0.000 deg
# 
# Detector Pilatus 300k	 PixelSize= 1.720e-04, 1.720e-04 m
#    Detector has a mask: True 
#    Detector has a dark current: False 
#    detector has a flat field: False 
# 
# Wavelength: 1.27818e-10 m
# Mask applied: user provided
# Dark current applied: False
# Flat field applied: False
# Polarization factor: None
# Normalization factor: 2007453.1999999997
# --> AL_F127_220228_3e7741a7-c79f-41cb-b0fd-baab8bb09ff7_2_r1d.csv
#        q_A^-1             I 
  4.457554e-03    2.241741e-03
  4.756484e-03    1.723806e-03
  5.055415e-03    1.222573e-03
  5.354345e-03    8.628483e-04
  5.653276e-03    6.723945e-04
  5.952206e-03    1.000259e-03
  6.251136e-03    9.193563e-04
  6.550067e-03    8.074418e-04
  6.848997e-03    6.902039e-04
  7.147927e-03    5.855612e-04
  7.446858e-03    5.022357e-04
  7.745788e-03    4.338879e-04
  8.044719e-03    3.746615e-04
  8.343649e-03    3.269649e-04
  8.642579e-03    2.884290e-04
  8.941510e-03    2.545935e-04
  9.240440e-03    2.264544e-04
  9.539371e-03    2.014097e-04
  9.838301e-03    1.783580e-04
  1.013723e-02    1.608845e-04
  1.043616e-02    1.455183e-04
  1.073509e-02    1.313785e-04
  1.103402e-02    1.194801e-04
  1.133295e-02    1.081577e-04
  1.163188e-02    9.926421e-05
  1.193081e-02    9.006670e-05
  1.222974e-02    8.263020e-05
  1.252867e-02    7.600622e-05
  1.282760e-02    6.984005e-05
  1.312654e-02    6.400971e-05
  1.342547e-02    5.987880e-05
  1.372440e-02    5.539967e-05
  1.402333e-02    5.085534e-05
  1.432226e-02    4.759793e-05
  1.462119e-02    4.462279e-05
  1.492012e-02    4.152936e-05
  1.521905e-02    3.877743e-05
  1.551798e-02    3.624750e-05
  1.581691e-02    3.417446e-05
  1.611584e-02    3.222153e-05
  1.641477e-02    3.025599e-05
  1.671370e-02    2.868430e-05
  1.701263e-02    2.716162e-05
  1.731156e-02    2.550327e-05
  1.761049e-02    2.428799e-05
  1.790942e-02    2.317078e-05
  1.820835e-02    2.234413e-05
  1.850728e-02    2.122426e-05
  1.880621e-02    2.010045e-05
  1.910514e-02    1.925814e-05
  1.940407e-02    1.856359e-05
  1.970300e-02    1.767929e-05
  2.000193e-02    1.707427e-05
  2.030086e-02    1.653914e-05
  2.059979e-02    1.592722e-05
  2.089873e-02    1.523700e-05
  2.119766e-02    1.467054e-05
  2.149659e-02    1.411724e-05
  2.179552e-02    1.388748e-05
  2.209445e-02    1.322131e-05
  2.239338e-02    1.290160e-05
  2.269231e-02    1.263761e-05
  2.299124e-02    1.231013e-05
  2.329017e-02    1.191942e-05
  2.358910e-02    1.168642e-05
  2.388803e-02    1.127282e-05
  2.418696e-02    1.093407e-05
  2.448589e-02    1.069288e-05
  2.478482e-02    1.054519e-05
  2.508375e-02    1.023228e-05
  2.538268e-02    1.016530e-05
  2.568161e-02    1.004658e-05
  2.598054e-02    9.870902e-06
  2.627947e-02    9.644587e-06
  2.657840e-02    9.423748e-06
  2.687733e-02    9.303684e-06
  2.717626e-02    9.164326e-06
  2.747519e-02    9.082871e-06
  2.777412e-02    8.900189e-06
  2.807305e-02    8.741449e-06
  2.837198e-02    8.708256e-06
  2.867092e-02    8.614579e-06
  2.896985e-02    8.537287e-06
  2.926878e-02    8.410098e-06
  2.956771e-02    8.309422e-06
  2.986664e-02    8.175691e-06
  3.016557e-02    7.899554e-06
  3.046450e-02    7.938462e-06
  3.076343e-02    7.967335e-06
  3.106236e-02    7.738208e-06
  3.136129e-02    7.781032e-06
  3.166022e-02    7.704889e-06
  3.195915e-02    7.521379e-06
  3.225808e-02    7.485750e-06
  3.255701e-02    7.479328e-06
  3.285594e-02    7.280466e-06
  3.315487e-02    7.281335e-06
  3.345380e-02    7.137749e-06
  3.375273e-02    7.002961e-06
  3.405166e-02    6.979683e-06
  3.435059e-02    6.923453e-06
  3.464952e-02    6.892516e-06
  3.494845e-02    6.851400e-06
  3.524738e-02    6.709362e-06
  3.554631e-02    6.547222e-06
  3.584524e-02    6.474482e-06
  3.614417e-02    6.533671e-06
  3.644310e-02    6.537357e-06
  3.674204e-02    6.365668e-06
  3.704097e-02    6.254280e-06
  3.733990e-02    6.216626e-06
  3.763883e-02    6.169857e-06
  3.793776e-02    6.044997e-06
  3.823669e-02    6.067590e-06
  3.853562e-02    6.024654e-06
  3.883455e-02    5.934205e-06
  3.913348e-02    6.021337e-06
  3.943241e-02    5.881748e-06
  3.973134e-02    5.729672e-06
  4.003027e-02    5.774905e-06
  4.032920e-02    5.852459e-06
  4.062813e-02    5.800704e-06
  4.092706e-02    5.765807e-06
  4.122599e-02    5.706286e-06
  4.152492e-02    5.590163e-06
  4.182385e-02    5.582503e-06
  4.212278e-02    5.561521e-06
  4.242171e-02    5.471758e-06
  4.272064e-02    5.487592e-06
  4.301957e-02    5.516796e-06
  4.331850e-02    5.514119e-06
  4.361743e-02    5.474056e-06
  4.391636e-02    5.450076e-06
  4.421529e-02    5.427749e-06
  4.451423e-02    5.312058e-06
  4.481316e-02    5.242858e-06
  4.511209e-02    5.373589e-06
  4.541102e-02    5.378286e-06
  4.570995e-02    5.349337e-06
  4.600888e-02    5.357999e-06
  4.630781e-02    5.235658e-06
  4.660674e-02    5.212326e-06
  4.690567e-02    5.290204e-06
  4.720460e-02    5.247924e-06
  4.750353e-02    5.161299e-06
  4.780246e-02    5.227264e-06
  4.810139e-02    5.269493e-06
  4.840032e-02    5.239225e-06
  4.869925e-02    5.216261e-06
  4.899818e-02    5.174965e-06
  4.929711e-02    5.275499e-06
  4.959604e-02    5.256240e-06
  4.989497e-02    5.135598e-06
  5.019390e-02    5.183526e-06
  5.049283e-02    5.214559e-06
  5.079176e-02    5.222767e-06
  5.109069e-02    5.275208e-06
  5.138962e-02    5.296752e-06
  5.168855e-02    5.429204e-06
  5.198748e-02    5.568875e-06
  5.228642e-02    5.477466e-06
  5.258535e-02    5.215869e-06
  5.288428e-02    5.172172e-06
  5.318321e-02    5.158568e-06
  5.348214e-02    5.153972e-06
  5.378107e-02    5.121620e-06
  5.408000e-02    5.107717e-06
  5.437893e-02    5.109753e-06
  5.467786e-02    5.074860e-06
  5.497679e-02    5.090213e-06
  5.527572e-02    5.098279e-06
  5.557465e-02    5.081937e-06
  5.587358e-02    5.021585e-06
  5.617251e-02    5.079501e-06
  5.647144e-02    5.080760e-06
  5.677037e-02    5.045157e-06
  5.706930e-02    5.093405e-06
  5.736823e-02    5.110610e-06
  5.766716e-02    5.044830e-06
  5.796609e-02    4.994820e-06
  5.826502e-02    4.956404e-06
  5.856395e-02    5.046644e-06
  5.886288e-02    5.107529e-06
  5.916181e-02    5.072488e-06
  5.946074e-02    5.066542e-06
  5.975967e-02    5.084597e-06
  6.005861e-02    5.119318e-06
  6.035754e-02    5.144022e-06
  6.065647e-02    5.199330e-06
  6.095540e-02    5.263776e-06
  6.125433e-02    5.340190e-06
  6.155326e-02    5.302456e-06
  6.185219e-02    5.099335e-06
  6.215112e-02    5.106952e-06
  6.245005e-02    5.077259e-06
  6.274898e-02    5.084016e-06
  6.304791e-02    5.078657e-06
  6.334684e-02    5.106816e-06
  6.364577e-02    5.057213e-06
  6.394470e-02    5.137159e-06
  6.424363e-02    5.094774e-06
  6.454256e-02    5.085310e-06
  6.484149e-02    5.103340e-06
  6.514042e-02    5.169002e-06
  6.543935e-02    5.166123e-06
  6.573828e-02    5.229846e-06
  6.603721e-02    5.247834e-06
  6.633614e-02    5.208838e-06
  6.663507e-02    5.243168e-06
  6.693400e-02    5.265078e-06
  6.723293e-02    5.274277e-06
  6.753186e-02    5.269350e-06
  6.783080e-02    5.251576e-06
  6.812973e-02    5.291415e-06
  6.842866e-02    5.287072e-06
  6.872759e-02    5.281966e-06
  6.902652e-02    5.300388e-06
  6.932545e-02    5.243521e-06
  6.962438e-02    5.278383e-06
  6.992331e-02    5.331133e-06
  7.022224e-02    5.272937e-06
  7.052117e-02    5.300721e-06
  7.082010e-02    5.313455e-06
  7.111903e-02    5.315068e-06
  7.141796e-02    5.254555e-06
  7.171689e-02    5.285968e-06
  7.201582e-02    5.438651e-06
  7.231475e-02    5.388480e-06
  7.261368e-02    5.374588e-06
  7.291261e-02    5.347826e-06
  7.321154e-02    5.341674e-06
  7.351047e-02    5.331389e-06
  7.380940e-02    5.324626e-06
  7.410833e-02    5.369227e-06
  7.440726e-02    5.343695e-06
  7.470619e-02    5.356615e-06
  7.500512e-02    5.365073e-06
  7.530405e-02    5.304047e-06
  7.560299e-02    5.319167e-06
  7.590192e-02    5.278673e-06
  7.620085e-02    5.315499e-06
  7.649978e-02    5.280530e-06
  7.679871e-02    5.362285e-06
  7.709764e-02    5.327980e-06
  7.739657e-02    5.292646e-06
  7.769550e-02    5.344959e-06
  7.799443e-02    5.357879e-06
  7.829336e-02    5.327634e-06
  7.859229e-02    5.341368e-06
  7.889122e-02    5.309697e-06
  7.919015e-02    5.276416e-06
  7.948908e-02    5.268768e-06
  7.978801e-02    5.263325e-06
  8.008694e-02    5.321115e-06
  8.038587e-02    5.289276e-06
  8.068480e-02    5.246474e-06
  8.098373e-02    5.261620e-06
  8.128266e-02    5.244591e-06
  8.158159e-02    5.213238e-06
  8.188052e-02    5.236468e-06
  8.217945e-02    5.258134e-06
  8.247838e-02    5.223626e-06
  8.277731e-02    5.182424e-06
  8.307624e-02    5.152556e-06
  8.337518e-02    5.213031e-06
  8.367411e-02    5.185714e-06
  8.397304e-02    5.178334e-06
  8.427197e-02    5.152895e-06
  8.457090e-02    5.127711e-06
  8.486983e-02    5.187604e-06
  8.516876e-02    5.211460e-06
  8.546769e-02    5.188160e-06
  8.576662e-02    5.097085e-06
  8.606555e-02    5.125748e-06
  8.636448e-02    5.163635e-06
  8.666341e-02    5.133776e-06
  8.696234e-02    5.146026e-06
  8.726127e-02    5.142495e-06
  8.756020e-02    5.080832e-06
  8.785913e-02    5.074614e-06
  8.815806e-02    5.122590e-06
  8.845699e-02    5.105900e-06
  8.875592e-02    5.072294e-06
  8.905485e-02    5.066005e-06
  8.935378e-02    5.042648e-06
  8.965271e-02    5.012940e-06
  8.995164e-02    4.946514e-06
  9.025057e-02    4.980647e-06
  9.054950e-02    4.993787e-06
  9.084843e-02    4.970215e-06
  9.114737e-02    5.034308e-06
  9.144630e-02    4.995364e-06
  9.174523e-02    4.923935e-06
  9.204416e-02    4.936459e-06
  9.234309e-02    4.926445e-06
  9.264202e-02    4.976800e-06
  9.294095e-02    4.924085e-06
  9.323988e-02    4.898620e-06
  9.353881e-02    4.872175e-06
  9.383774e-02    4.925227e-06
  9.413667e-02    4.918643e-06
  9.443560e-02    4.862585e-06
  9.473453e-02    4.790746e-06
  9.503346e-02    4.803477e-06
  9.533239e-02    4.817483e-06
  9.563132e-02    4.804153e-06
  9.593025e-02    4.834977e-06
  9.622918e-02    4.819941e-06
  9.652811e-02    4.876865e-06
  9.682704e-02    4.906846e-06
  9.712597e-02    4.921138e-06
  9.742490e-02    4.901926e-06
  9.772383e-02    4.810493e-06
  9.802276e-02    4.781291e-06
  9.832169e-02    4.777653e-06
  9.862062e-02    4.765915e-06
  9.891956e-02    4.791902e-06
  9.921849e-02    4.741993e-06
  9.951742e-02    4.724187e-06
  9.981635e-02    4.702345e-06
  1.001153e-01    4.625285e-06
  1.004142e-01    4.643629e-06
  1.007131e-01    4.698628e-06
  1.010121e-01    4.642500e-06
  1.013110e-01    4.623835e-06
  1.016099e-01    4.580787e-06
  1.019089e-01    4.591545e-06
  1.022078e-01    4.647730e-06
  1.025067e-01    4.634869e-06
  1.028057e-01    4.586721e-06
  1.031046e-01    4.581265e-06
  1.034035e-01    4.607281e-06
  1.037024e-01    4.624138e-06
  1.040014e-01    4.600382e-06
  1.043003e-01    4.542029e-06
  1.045992e-01    4.526992e-06
  1.048982e-01    4.500756e-06
  1.051971e-01    4.512151e-06
  1.054960e-01    4.488275e-06
  1.057950e-01    4.461187e-06
  1.060939e-01    4.523210e-06
  1.063928e-01    4.548025e-06
  1.066917e-01    4.467485e-06
  1.069907e-01    4.453736e-06
  1.072896e-01    4.462259e-06
  1.075885e-01    4.470900e-06
  1.078875e-01    4.478141e-06
  1.081864e-01    4.476891e-06
  1.084853e-01    4.487625e-06
  1.087843e-01    4.452606e-06
  1.090832e-01    4.454268e-06
  1.093821e-01    4.390402e-06
  1.096810e-01    4.379772e-06
  1.099800e-01    4.374787e-06
  1.102789e-01    4.346698e-06
  1.105778e-01    4.330335e-06
  1.108768e-01    4.270309e-06
  1.111757e-01    4.248535e-06
  1.114746e-01    4.219251e-06
  1.117736e-01    4.229591e-06
  1.120725e-01    4.276364e-06
  1.123714e-01    4.295932e-06
  1.126704e-01    4.350459e-06
  1.129693e-01    4.356457e-06
  1.132682e-01    4.284158e-06
  1.135671e-01    4.256596e-06
  1.138661e-01    4.344006e-06
  1.141650e-01    4.296436e-06
  1.144639e-01    4.262209e-06
  1.147629e-01    4.245006e-06
  1.150618e-01    4.193401e-06
  1.153607e-01    4.172101e-06
  1.156597e-01    4.165548e-06
  1.159586e-01    4.193701e-06
  1.162575e-01    4.186801e-06
  1.165564e-01    4.190700e-06
  1.168554e-01    4.128025e-06
  1.171543e-01    4.251664e-06
  1.174532e-01    4.290387e-06
  1.177522e-01    4.207954e-06
  1.180511e-01    4.255757e-06
  1.183500e-01    4.321813e-06
  1.186490e-01    4.191326e-06
  1.189479e-01    4.213927e-06
  1.192468e-01    4.329482e-06
  1.195458e-01    4.324244e-06
  1.198447e-01    4.442093e-06
  1.201436e-01    4.531918e-06
  1.204425e-01    3.817529e-06
  1.207415e-01    3.511508e-06
  1.210404e-01    4.985949e-06
  1.213393e-01    0.000000e+00
  1.216383e-01    0.000000e+00
  1.219372e-01    0.000000e+00
  1.222361e-01    0.000000e+00
  1.225351e-01    0.000000e+00
  1.228340e-01    0.000000e+00
  1.231329e-01    0.000000e+00
  1.234318e-01    0.000000e+00
  1.237308e-01    0.000000e+00
  1.240297e-01    0.000000e+00
  1.243286e-01    0.000000e+00
  1.246276e-01    0.000000e+00
  1.249265e-01    0.000000e+00
  1.252254e-01    0.000000e+00
  1.255244e-01    0.000000e+00
  1.258233e-01    0.000000e+00
  1.261222e-01    0.000000e+00
  1.264212e-01    0.000000e+00
  1.267201e-01    0.000000e+00
  1.270190e-01    0.000000e+00
  1.273179e-01    0.000000e+00
  1.276169e-01    0.000000e+00
  1.279158e-01    0.000000e+00
  1.282147e-01    0.000000e+00
  1.285137e-01    0.000000e+00
  1.288126e-01    0.000000e+00
  1.291115e-01    0.000000e+00
  1.294105e-01    0.000000e+00
  1.297094e-01    0.000000e+00
  1.300083e-01    0.000000e+00
  1.303072e-01    0.000000e+00
  1.306062e-01    0.000000e+00
  1.309051e-01    0.000000e+00
  1.312040e-01    0.000000e+00
  1.315030e-01    0.000000e+00
  1.318019e-01    0.000000e+00
  1.321008e-01    0.000000e+00
  1.323998e-01    0.000000e+00
  1.326987e-01    0.000000e+00
  1.329976e-01    0.000000e+00
  1.332965e-01    0.000000e+00
  1.335955e-01    0.000000e+00
  1.338944e-01    0.000000e+00
  1.341933e-01    0.000000e+00
  1.344923e-01    0.000000e+00
  1.347912e-01    0.000000e+00
  1.350901e-01    0.000000e+00
  1.353891e-01    0.000000e+00
  1.356880e-01    0.000000e+00
  1.359869e-01    0.000000e+00
  1.362859e-01    0.000000e+00
  1.365848e-01    0.000000e+00
  1.368837e-01    0.000000e+00
  1.371826e-01    0.000000e+00
  1.374816e-01    0.000000e+00
  1.377805e-01    0.000000e+00
  1.380794e-01    0.000000e+00
  1.383784e-01    0.000000e+00
  1.386773e-01    0.000000e+00
  1.389762e-01    0.000000e+00
  1.392752e-01    0.000000e+00
  1.395741e-01    0.000000e+00
  1.398730e-01    0.000000e+00
  1.401719e-01    0.000000e+00
  1.404709e-01    0.000000e+00
  1.407698e-01    0.000000e+00
  1.410687e-01    0.000000e+00
  1.413677e-01    0.000000e+00
  1.416666e-01    0.000000e+00
  1.419655e-01    0.000000e+00
  1.422645e-01    0.000000e+00
  1.425634e-01    0.000000e+00
  1.428623e-01    0.000000e+00
  1.431613e-01    0.000000e+00
  1.434602e-01    0.000000e+00
  1.437591e-01    0.000000e+00
  1.440580e-01    0.000000e+00
  1.443570e-01    0.000000e+00
  1.446559e-01    0.000000e+00
  1.449548e-01    0.000000e+00
  1.452538e-01    0.000000e+00
  1.455527e-01    0.000000e+00
  1.458516e-01    0.000000e+00
  1.461506e-01    0.000000e+00
  1.464495e-01    0.000000e+00
  1.467484e-01    0.000000e+00
  1.470473e-01    0.000000e+00
  1.473463e-01    0.000000e+00
  1.476452e-01    0.000000e+00
  1.479441e-01    0.000000e+00
  1.482431e-01    0.000000e+00
  1.485420e-01    0.000000e+00
  1.488409e-01    0.000000e+00
  1.491399e-01    0.000000e+00
  1.494388e-01    0.000000e+00
  1.497377e-01    0.000000e+00
  1.500367e-01    0.000000e+00
  1.503356e-01    0.000000e+00
  1.506345e-01    0.000000e+00
  1.509334e-01    0.000000e+00
  1.512324e-01    0.000000e+00
  1.515313e-01    0.000000e+00
  1.518302e-01    0.000000e+00
  1.521292e-01    0.000000e+00
  1.524281e-01    0.000000e+00
  1.527270e-01    0.000000e+00
  1.530260e-01    0.000000e+00
  1.533249e-01    0.000000e+00
  1.536238e-01    0.000000e+00
