# == pyFAI calibration ==
# Distance Sample to Detector: 2.266 m
# PONI: 5.659e-02, 4.293e-02 m
# Rotations: 0.000000 0.000000 0.000000 rad
# 
# == Fit2d calibration ==
# Distance Sample-beamCenter: 2266.000 mm
# Center: x=249.594, y=329.012 pix
# Tilt: 0.000 deg  TiltPlanRot: 0.000 deg
# 
# Detector Pilatus 300k	 PixelSize= 1.720e-04, 1.720e-04 m
#    Detector has a mask: True 
#    Detector has a dark current: False 
#    detector has a flat field: False 
# 
# Wavelength: 1.27818e-10 m
# Mask applied: user provided
# Dark current applied: False
# Flat field applied: False
# Polarization factor: None
# Normalization factor: 1747021.8000000005
# --> AL_F127_220301_c7cebd52-aecd-4793-97d8-f56d634c8c11_2_r1d.csv
#        q_A^-1             I 
  4.457554e-03    2.305067e-03
  4.756484e-03    1.780082e-03
  5.055415e-03    1.231959e-03
  5.354345e-03    8.184299e-04
  5.653276e-03    6.025258e-04
  5.952206e-03    8.961497e-04
  6.251136e-03    8.118318e-04
  6.550067e-03    7.051551e-04
  6.848997e-03    6.019761e-04
  7.147927e-03    5.131165e-04
  7.446858e-03    4.420349e-04
  7.745788e-03    3.826759e-04
  8.044719e-03    3.303302e-04
  8.343649e-03    2.895445e-04
  8.642579e-03    2.526987e-04
  8.941510e-03    2.239246e-04
  9.240440e-03    2.010651e-04
  9.539371e-03    1.794064e-04
  9.838301e-03    1.601108e-04
  1.013723e-02    1.456791e-04
  1.043616e-02    1.318902e-04
  1.073509e-02    1.196677e-04
  1.103402e-02    1.105314e-04
  1.133295e-02    1.015540e-04
  1.163188e-02    9.440619e-05
  1.193081e-02    8.791295e-05
  1.222974e-02    8.141637e-05
  1.252867e-02    7.541368e-05
  1.282760e-02    7.137955e-05
  1.312654e-02    6.730021e-05
  1.342547e-02    6.367120e-05
  1.372440e-02    5.964080e-05
  1.402333e-02    5.671798e-05
  1.432226e-02    5.395283e-05
  1.462119e-02    5.200113e-05
  1.492012e-02    5.056794e-05
  1.521905e-02    4.891337e-05
  1.551798e-02    4.737355e-05
  1.581691e-02    4.585722e-05
  1.611584e-02    4.527696e-05
  1.641477e-02    4.446099e-05
  1.671370e-02    4.363202e-05
  1.701263e-02    4.343473e-05
  1.731156e-02    4.305643e-05
  1.761049e-02    4.323108e-05
  1.790942e-02    4.340398e-05
  1.820835e-02    4.347510e-05
  1.850728e-02    4.351899e-05
  1.880621e-02    4.400482e-05
  1.910514e-02    4.475235e-05
  1.940407e-02    4.535774e-05
  1.970300e-02    4.667322e-05
  2.000193e-02    4.787541e-05
  2.030086e-02    4.845179e-05
  2.059979e-02    4.958722e-05
  2.089873e-02    5.124477e-05
  2.119766e-02    5.252211e-05
  2.149659e-02    5.415596e-05
  2.179552e-02    5.586742e-05
  2.209445e-02    5.773153e-05
  2.239338e-02    5.940904e-05
  2.269231e-02    6.106339e-05
  2.299124e-02    6.273715e-05
  2.329017e-02    6.367204e-05
  2.358910e-02    6.464220e-05
  2.388803e-02    6.564349e-05
  2.418696e-02    6.650844e-05
  2.448589e-02    6.759090e-05
  2.478482e-02    6.781635e-05
  2.508375e-02    6.767530e-05
  2.538268e-02    6.779791e-05
  2.568161e-02    6.754802e-05
  2.598054e-02    6.705917e-05
  2.627947e-02    6.584519e-05
  2.657840e-02    6.474347e-05
  2.687733e-02    6.382402e-05
  2.717626e-02    6.244367e-05
  2.747519e-02    6.113798e-05
  2.777412e-02    5.985142e-05
  2.807305e-02    5.845127e-05
  2.837198e-02    5.676023e-05
  2.867092e-02    5.523697e-05
  2.896985e-02    5.395320e-05
  2.926878e-02    5.258687e-05
  2.956771e-02    5.129964e-05
  2.986664e-02    5.002096e-05
  3.016557e-02    4.889105e-05
  3.046450e-02    4.775593e-05
  3.076343e-02    4.676576e-05
  3.106236e-02    4.593396e-05
  3.136129e-02    4.506445e-05
  3.166022e-02    4.407457e-05
  3.195915e-02    4.316577e-05
  3.225808e-02    4.270617e-05
  3.255701e-02    4.221183e-05
  3.285594e-02    4.164850e-05
  3.315487e-02    4.074363e-05
  3.345380e-02    4.035887e-05
  3.375273e-02    4.009657e-05
  3.405166e-02    3.937701e-05
  3.435059e-02    3.891490e-05
  3.464952e-02    3.849163e-05
  3.494845e-02    3.819419e-05
  3.524738e-02    3.789785e-05
  3.554631e-02    3.744817e-05
  3.584524e-02    3.713442e-05
  3.614417e-02    3.699444e-05
  3.644310e-02    3.681081e-05
  3.674204e-02    3.664215e-05
  3.704097e-02    3.658679e-05
  3.733990e-02    3.640326e-05
  3.763883e-02    3.652937e-05
  3.793776e-02    3.632234e-05
  3.823669e-02    3.619300e-05
  3.853562e-02    3.608265e-05
  3.883455e-02    3.578728e-05
  3.913348e-02    3.583046e-05
  3.943241e-02    3.578418e-05
  3.973134e-02    3.563549e-05
  4.003027e-02    3.553823e-05
  4.032920e-02    3.548227e-05
  4.062813e-02    3.557029e-05
  4.092706e-02    3.535701e-05
  4.122599e-02    3.525231e-05
  4.152492e-02    3.537097e-05
  4.182385e-02    3.514526e-05
  4.212278e-02    3.509375e-05
  4.242171e-02    3.502910e-05
  4.272064e-02    3.480292e-05
  4.301957e-02    3.479930e-05
  4.331850e-02    3.485998e-05
  4.361743e-02    3.452699e-05
  4.391636e-02    3.426173e-05
  4.421529e-02    3.402474e-05
  4.451423e-02    3.380050e-05
  4.481316e-02    3.366638e-05
  4.511209e-02    3.338247e-05
  4.541102e-02    3.320830e-05
  4.570995e-02    3.291493e-05
  4.600888e-02    3.257408e-05
  4.630781e-02    3.254253e-05
  4.660674e-02    3.225246e-05
  4.690567e-02    3.171424e-05
  4.720460e-02    3.134826e-05
  4.750353e-02    3.113244e-05
  4.780246e-02    3.078984e-05
  4.810139e-02    3.026069e-05
  4.840032e-02    2.966075e-05
  4.869925e-02    2.926244e-05
  4.899818e-02    2.898241e-05
  4.929711e-02    2.869691e-05
  4.959604e-02    2.835582e-05
  4.989497e-02    2.779525e-05
  5.019390e-02    2.728326e-05
  5.049283e-02    2.662859e-05
  5.079176e-02    2.605216e-05
  5.109069e-02    2.569105e-05
  5.138962e-02    2.520028e-05
  5.168855e-02    2.488936e-05
  5.198748e-02    2.454265e-05
  5.228642e-02    2.398552e-05
  5.258535e-02    2.343561e-05
  5.288428e-02    2.299859e-05
  5.318321e-02    2.271532e-05
  5.348214e-02    2.222480e-05
  5.378107e-02    2.165067e-05
  5.408000e-02    2.122583e-05
  5.437893e-02    2.091003e-05
  5.467786e-02    2.038206e-05
  5.497679e-02    2.003077e-05
  5.527572e-02    1.978725e-05
  5.557465e-02    1.943802e-05
  5.587358e-02    1.910791e-05
  5.617251e-02    1.875889e-05
  5.647144e-02    1.842819e-05
  5.677037e-02    1.813916e-05
  5.706930e-02    1.765721e-05
  5.736823e-02    1.730996e-05
  5.766716e-02    1.711819e-05
  5.796609e-02    1.676027e-05
  5.826502e-02    1.644506e-05
  5.856395e-02    1.626293e-05
  5.886288e-02    1.608131e-05
  5.916181e-02    1.574366e-05
  5.946074e-02    1.563043e-05
  5.975967e-02    1.541591e-05
  6.005861e-02    1.503453e-05
  6.035754e-02    1.476053e-05
  6.065647e-02    1.460551e-05
  6.095540e-02    1.435623e-05
  6.125433e-02    1.422263e-05
  6.155326e-02    1.407390e-05
  6.185219e-02    1.386281e-05
  6.215112e-02    1.360787e-05
  6.245005e-02    1.343476e-05
  6.274898e-02    1.321955e-05
  6.304791e-02    1.305097e-05
  6.334684e-02    1.294687e-05
  6.364577e-02    1.275033e-05
  6.394470e-02    1.259159e-05
  6.424363e-02    1.250717e-05
  6.454256e-02    1.237207e-05
  6.484149e-02    1.224939e-05
  6.514042e-02    1.215377e-05
  6.543935e-02    1.192935e-05
  6.573828e-02    1.171905e-05
  6.603721e-02    1.161659e-05
  6.633614e-02    1.152348e-05
  6.663507e-02    1.141808e-05
  6.693400e-02    1.132665e-05
  6.723293e-02    1.111688e-05
  6.753186e-02    1.107869e-05
  6.783080e-02    1.104537e-05
  6.812973e-02    1.094052e-05
  6.842866e-02    1.074732e-05
  6.872759e-02    1.067426e-05
  6.902652e-02    1.062855e-05
  6.932545e-02    1.042983e-05
  6.962438e-02    1.042459e-05
  6.992331e-02    1.035760e-05
  7.022224e-02    1.019308e-05
  7.052117e-02    1.012854e-05
  7.082010e-02    1.001877e-05
  7.111903e-02    9.949536e-06
  7.141796e-02    9.947718e-06
  7.171689e-02    9.904055e-06
  7.201582e-02    9.824065e-06
  7.231475e-02    9.743257e-06
  7.261368e-02    9.691798e-06
  7.291261e-02    9.658478e-06
  7.321154e-02    9.606853e-06
  7.351047e-02    9.533470e-06
  7.380940e-02    9.492381e-06
  7.410833e-02    9.446506e-06
  7.440726e-02    9.390068e-06
  7.470619e-02    9.216799e-06
  7.500512e-02    9.175606e-06
  7.530405e-02    9.161210e-06
  7.560299e-02    9.115784e-06
  7.590192e-02    9.074234e-06
  7.620085e-02    9.033714e-06
  7.649978e-02    9.075640e-06
  7.679871e-02    9.108223e-06
  7.709764e-02    8.962913e-06
  7.739657e-02    8.985852e-06
  7.769550e-02    9.049783e-06
  7.799443e-02    8.931458e-06
  7.829336e-02    8.900216e-06
  7.859229e-02    8.857343e-06
  7.889122e-02    8.845022e-06
  7.919015e-02    8.735291e-06
  7.948908e-02    8.717092e-06
  7.978801e-02    8.704647e-06
  8.008694e-02    8.731194e-06
  8.038587e-02    8.709282e-06
  8.068480e-02    8.675714e-06
  8.098373e-02    8.732986e-06
  8.128266e-02    8.610888e-06
  8.158159e-02    8.618975e-06
  8.188052e-02    8.625394e-06
  8.217945e-02    8.547073e-06
  8.247838e-02    8.555895e-06
  8.277731e-02    8.574829e-06
  8.307624e-02    8.634865e-06
  8.337518e-02    8.636684e-06
  8.367411e-02    8.621888e-06
  8.397304e-02    8.610552e-06
  8.427197e-02    8.523863e-06
  8.457090e-02    8.482195e-06
  8.486983e-02    8.514823e-06
  8.516876e-02    8.590931e-06
  8.546769e-02    8.567179e-06
  8.576662e-02    8.551698e-06
  8.606555e-02    8.552587e-06
  8.636448e-02    8.554382e-06
  8.666341e-02    8.575931e-06
  8.696234e-02    8.467036e-06
  8.726127e-02    8.451178e-06
  8.756020e-02    8.490211e-06
  8.785913e-02    8.444803e-06
  8.815806e-02    8.477499e-06
  8.845699e-02    8.528893e-06
  8.875592e-02    8.485091e-06
  8.905485e-02    8.491926e-06
  8.935378e-02    8.432126e-06
  8.965271e-02    8.514891e-06
  8.995164e-02    8.519452e-06
  9.025057e-02    8.410994e-06
  9.054950e-02    8.380517e-06
  9.084843e-02    8.360079e-06
  9.114737e-02    8.422794e-06
  9.144630e-02    8.526871e-06
  9.174523e-02    8.452494e-06
  9.204416e-02    8.392795e-06
  9.234309e-02    8.445802e-06
  9.264202e-02    8.442571e-06
  9.294095e-02    8.460204e-06
  9.323988e-02    8.440468e-06
  9.353881e-02    8.323206e-06
  9.383774e-02    8.477321e-06
  9.413667e-02    8.544784e-06
  9.443560e-02    8.497833e-06
  9.473453e-02    8.531500e-06
  9.503346e-02    8.444104e-06
  9.533239e-02    8.378932e-06
  9.563132e-02    8.389853e-06
  9.593025e-02    8.387275e-06
  9.622918e-02    8.463658e-06
  9.652811e-02    8.429774e-06
  9.682704e-02    8.581597e-06
  9.712597e-02    8.474040e-06
  9.742490e-02    8.483805e-06
  9.772383e-02    8.557572e-06
  9.802276e-02    8.479472e-06
  9.832169e-02    8.510978e-06
  9.862062e-02    8.533107e-06
  9.891956e-02    8.422228e-06
  9.921849e-02    8.394284e-06
  9.951742e-02    8.409353e-06
  9.981635e-02    8.404006e-06
  1.001153e-01    8.370604e-06
  1.004142e-01    8.346127e-06
  1.007131e-01    8.389206e-06
  1.010121e-01    8.415569e-06
  1.013110e-01    8.402495e-06
  1.016099e-01    8.367492e-06
  1.019089e-01    8.345481e-06
  1.022078e-01    8.436818e-06
  1.025067e-01    8.431687e-06
  1.028057e-01    8.374986e-06
  1.031046e-01    8.384006e-06
  1.034035e-01    8.394021e-06
  1.037024e-01    8.411973e-06
  1.040014e-01    8.352073e-06
  1.043003e-01    8.311788e-06
  1.045992e-01    8.295004e-06
  1.048982e-01    8.311268e-06
  1.051971e-01    8.371522e-06
  1.054960e-01    8.356286e-06
  1.057950e-01    8.330880e-06
  1.060939e-01    8.332820e-06
  1.063928e-01    8.361501e-06
  1.066917e-01    8.295902e-06
  1.069907e-01    8.315985e-06
  1.072896e-01    8.364711e-06
  1.075885e-01    8.354155e-06
  1.078875e-01    8.375629e-06
  1.081864e-01    8.336255e-06
  1.084853e-01    8.321345e-06
  1.087843e-01    8.380420e-06
  1.090832e-01    8.371411e-06
  1.093821e-01    8.400828e-06
  1.096810e-01    8.392130e-06
  1.099800e-01    8.445022e-06
  1.102789e-01    8.420396e-06
  1.105778e-01    8.349674e-06
  1.108768e-01    8.259128e-06
  1.111757e-01    8.252642e-06
  1.114746e-01    8.234969e-06
  1.117736e-01    8.184770e-06
  1.120725e-01    8.091107e-06
  1.123714e-01    8.042208e-06
  1.126704e-01    7.988025e-06
  1.129693e-01    7.914338e-06
  1.132682e-01    7.815923e-06
  1.135671e-01    7.729188e-06
  1.138661e-01    7.618320e-06
  1.141650e-01    7.451009e-06
  1.144639e-01    7.344474e-06
  1.147629e-01    7.388128e-06
  1.150618e-01    7.360252e-06
  1.153607e-01    7.289673e-06
  1.156597e-01    7.304743e-06
  1.159586e-01    7.314703e-06
  1.162575e-01    7.173963e-06
  1.165564e-01    7.123550e-06
  1.168554e-01    7.127564e-06
  1.171543e-01    7.095065e-06
  1.174532e-01    7.200195e-06
  1.177522e-01    7.251936e-06
  1.180511e-01    7.059146e-06
  1.183500e-01    7.174240e-06
  1.186490e-01    7.312018e-06
  1.189479e-01    7.161474e-06
  1.192468e-01    6.975204e-06
  1.195458e-01    6.934644e-06
  1.198447e-01    6.983284e-06
  1.201436e-01    7.139179e-06
  1.204425e-01    7.106460e-06
  1.207415e-01    7.417643e-06
  1.210404e-01    9.739661e-06
  1.213393e-01    0.000000e+00
  1.216383e-01    0.000000e+00
  1.219372e-01    0.000000e+00
  1.222361e-01    0.000000e+00
  1.225351e-01    0.000000e+00
  1.228340e-01    0.000000e+00
  1.231329e-01    0.000000e+00
  1.234318e-01    0.000000e+00
  1.237308e-01    0.000000e+00
  1.240297e-01    0.000000e+00
  1.243286e-01    0.000000e+00
  1.246276e-01    0.000000e+00
  1.249265e-01    0.000000e+00
  1.252254e-01    0.000000e+00
  1.255244e-01    0.000000e+00
  1.258233e-01    0.000000e+00
  1.261222e-01    0.000000e+00
  1.264212e-01    0.000000e+00
  1.267201e-01    0.000000e+00
  1.270190e-01    0.000000e+00
  1.273179e-01    0.000000e+00
  1.276169e-01    0.000000e+00
  1.279158e-01    0.000000e+00
  1.282147e-01    0.000000e+00
  1.285137e-01    0.000000e+00
  1.288126e-01    0.000000e+00
  1.291115e-01    0.000000e+00
  1.294105e-01    0.000000e+00
  1.297094e-01    0.000000e+00
  1.300083e-01    0.000000e+00
  1.303072e-01    0.000000e+00
  1.306062e-01    0.000000e+00
  1.309051e-01    0.000000e+00
  1.312040e-01    0.000000e+00
  1.315030e-01    0.000000e+00
  1.318019e-01    0.000000e+00
  1.321008e-01    0.000000e+00
  1.323998e-01    0.000000e+00
  1.326987e-01    0.000000e+00
  1.329976e-01    0.000000e+00
  1.332965e-01    0.000000e+00
  1.335955e-01    0.000000e+00
  1.338944e-01    0.000000e+00
  1.341933e-01    0.000000e+00
  1.344923e-01    0.000000e+00
  1.347912e-01    0.000000e+00
  1.350901e-01    0.000000e+00
  1.353891e-01    0.000000e+00
  1.356880e-01    0.000000e+00
  1.359869e-01    0.000000e+00
  1.362859e-01    0.000000e+00
  1.365848e-01    0.000000e+00
  1.368837e-01    0.000000e+00
  1.371826e-01    0.000000e+00
  1.374816e-01    0.000000e+00
  1.377805e-01    0.000000e+00
  1.380794e-01    0.000000e+00
  1.383784e-01    0.000000e+00
  1.386773e-01    0.000000e+00
  1.389762e-01    0.000000e+00
  1.392752e-01    0.000000e+00
  1.395741e-01    0.000000e+00
  1.398730e-01    0.000000e+00
  1.401719e-01    0.000000e+00
  1.404709e-01    0.000000e+00
  1.407698e-01    0.000000e+00
  1.410687e-01    0.000000e+00
  1.413677e-01    0.000000e+00
  1.416666e-01    0.000000e+00
  1.419655e-01    0.000000e+00
  1.422645e-01    0.000000e+00
  1.425634e-01    0.000000e+00
  1.428623e-01    0.000000e+00
  1.431613e-01    0.000000e+00
  1.434602e-01    0.000000e+00
  1.437591e-01    0.000000e+00
  1.440580e-01    0.000000e+00
  1.443570e-01    0.000000e+00
  1.446559e-01    0.000000e+00
  1.449548e-01    0.000000e+00
  1.452538e-01    0.000000e+00
  1.455527e-01    0.000000e+00
  1.458516e-01    0.000000e+00
  1.461506e-01    0.000000e+00
  1.464495e-01    0.000000e+00
  1.467484e-01    0.000000e+00
  1.470473e-01    0.000000e+00
  1.473463e-01    0.000000e+00
  1.476452e-01    0.000000e+00
  1.479441e-01    0.000000e+00
  1.482431e-01    0.000000e+00
  1.485420e-01    0.000000e+00
  1.488409e-01    0.000000e+00
  1.491399e-01    0.000000e+00
  1.494388e-01    0.000000e+00
  1.497377e-01    0.000000e+00
  1.500367e-01    0.000000e+00
  1.503356e-01    0.000000e+00
  1.506345e-01    0.000000e+00
  1.509334e-01    0.000000e+00
  1.512324e-01    0.000000e+00
  1.515313e-01    0.000000e+00
  1.518302e-01    0.000000e+00
  1.521292e-01    0.000000e+00
  1.524281e-01    0.000000e+00
  1.527270e-01    0.000000e+00
  1.530260e-01    0.000000e+00
  1.533249e-01    0.000000e+00
  1.536238e-01    0.000000e+00
