# == pyFAI calibration ==
# Distance Sample to Detector: 2.266 m
# PONI: 5.659e-02, 4.293e-02 m
# Rotations: 0.000000 0.000000 0.000000 rad
# 
# == Fit2d calibration ==
# Distance Sample-beamCenter: 2266.000 mm
# Center: x=249.594, y=329.012 pix
# Tilt: 0.000 deg  TiltPlanRot: 0.000 deg
# 
# Detector Pilatus 300k	 PixelSize= 1.720e-04, 1.720e-04 m
#    Detector has a mask: True 
#    Detector has a dark current: False 
#    detector has a flat field: False 
# 
# Wavelength: 1.27818e-10 m
# Mask applied: user provided
# Dark current applied: False
# Flat field applied: False
# Polarization factor: None
# Normalization factor: 24687342.0
# --> AL_F127_220225_8e78beba-1dff-4888-86f5-f77be312a5ee_0_r1d.csv
#        q_A^-1             I 
  4.457554e-03    1.338109e-04
  4.756484e-03    1.055690e-04
  5.055415e-03    7.629811e-05
  5.354345e-03    5.322059e-05
  5.653276e-03    4.004312e-05
  5.952206e-03    6.195337e-05
  6.251136e-03    5.667639e-05
  6.550067e-03    4.919295e-05
  6.848997e-03    4.201000e-05
  7.147927e-03    3.545346e-05
  7.446858e-03    3.025400e-05
  7.745788e-03    2.608889e-05
  8.044719e-03    2.261246e-05
  8.343649e-03    1.994503e-05
  8.642579e-03    1.759516e-05
  8.941510e-03    1.555921e-05
  9.240440e-03    1.390350e-05
  9.539371e-03    1.243887e-05
  9.838301e-03    1.121608e-05
  1.013723e-02    1.016216e-05
  1.043616e-02    9.184192e-06
  1.073509e-02    8.332066e-06
  1.103402e-02    7.661474e-06
  1.133295e-02    7.029990e-06
  1.163188e-02    6.440953e-06
  1.193081e-02    5.924227e-06
  1.222974e-02    5.487827e-06
  1.252867e-02    5.066628e-06
  1.282760e-02    4.696308e-06
  1.312654e-02    4.418678e-06
  1.342547e-02    4.133653e-06
  1.372440e-02    3.894403e-06
  1.402333e-02    3.657689e-06
  1.432226e-02    3.456407e-06
  1.462119e-02    3.269912e-06
  1.492012e-02    3.094878e-06
  1.521905e-02    2.932894e-06
  1.551798e-02    2.767474e-06
  1.581691e-02    2.624219e-06
  1.611584e-02    2.515486e-06
  1.641477e-02    2.396090e-06
  1.671370e-02    2.291681e-06
  1.701263e-02    2.182286e-06
  1.731156e-02    2.095900e-06
  1.761049e-02    2.025432e-06
  1.790942e-02    1.963552e-06
  1.820835e-02    1.901208e-06
  1.850728e-02    1.842563e-06
  1.880621e-02    1.791993e-06
  1.910514e-02    1.743501e-06
  1.940407e-02    1.701914e-06
  1.970300e-02    1.652017e-06
  2.000193e-02    1.637766e-06
  2.030086e-02    1.604761e-06
  2.059979e-02    1.555578e-06
  2.089873e-02    1.534257e-06
  2.119766e-02    1.503604e-06
  2.149659e-02    1.454223e-06
  2.179552e-02    1.440456e-06
  2.209445e-02    1.402719e-06
  2.239338e-02    1.378497e-06
  2.269231e-02    1.361808e-06
  2.299124e-02    1.337578e-06
  2.329017e-02    1.320265e-06
  2.358910e-02    1.307501e-06
  2.388803e-02    1.281782e-06
  2.418696e-02    1.254029e-06
  2.448589e-02    1.217350e-06
  2.478482e-02    1.185250e-06
  2.508375e-02    1.163543e-06
  2.538268e-02    1.142948e-06
  2.568161e-02    1.129406e-06
  2.598054e-02    1.128542e-06
  2.627947e-02    1.120822e-06
  2.657840e-02    1.101326e-06
  2.687733e-02    1.074956e-06
  2.717626e-02    1.056212e-06
  2.747519e-02    1.041480e-06
  2.777412e-02    1.025233e-06
  2.807305e-02    1.004033e-06
  2.837198e-02    9.953637e-07
  2.867092e-02    9.984766e-07
  2.896985e-02    9.911323e-07
  2.926878e-02    9.630444e-07
  2.956771e-02    9.491881e-07
  2.986664e-02    9.371211e-07
  3.016557e-02    9.179410e-07
  3.046450e-02    9.006138e-07
  3.076343e-02    8.894099e-07
  3.106236e-02    8.716161e-07
  3.136129e-02    8.570946e-07
  3.166022e-02    8.555146e-07
  3.195915e-02    8.499390e-07
  3.225808e-02    8.421380e-07
  3.255701e-02    8.397587e-07
  3.285594e-02    8.233295e-07
  3.315487e-02    8.023712e-07
  3.345380e-02    7.915227e-07
  3.375273e-02    7.863525e-07
  3.405166e-02    7.802540e-07
  3.435059e-02    7.662397e-07
  3.464952e-02    7.649010e-07
  3.494845e-02    7.595631e-07
  3.524738e-02    7.439307e-07
  3.554631e-02    7.339590e-07
  3.584524e-02    7.260753e-07
  3.614417e-02    7.214887e-07
  3.644310e-02    7.262024e-07
  3.674204e-02    7.212093e-07
  3.704097e-02    7.100577e-07
  3.733990e-02    7.096004e-07
  3.763883e-02    7.021353e-07
  3.793776e-02    6.963232e-07
  3.823669e-02    6.898770e-07
  3.853562e-02    6.853907e-07
  3.883455e-02    6.864781e-07
  3.913348e-02    6.859913e-07
  3.943241e-02    6.746462e-07
  3.973134e-02    6.715422e-07
  4.003027e-02    6.737731e-07
  4.032920e-02    6.604750e-07
  4.062813e-02    6.582532e-07
  4.092706e-02    6.597610e-07
  4.122599e-02    6.484266e-07
  4.152492e-02    6.448801e-07
  4.182385e-02    6.450354e-07
  4.212278e-02    6.434904e-07
  4.242171e-02    6.355218e-07
  4.272064e-02    6.290202e-07
  4.301957e-02    6.232671e-07
  4.331850e-02    6.309128e-07
  4.361743e-02    6.288339e-07
  4.391636e-02    6.190307e-07
  4.421529e-02    6.086003e-07
  4.451423e-02    6.047867e-07
  4.481316e-02    6.027160e-07
  4.511209e-02    6.045832e-07
  4.541102e-02    6.006280e-07
  4.570995e-02    5.907279e-07
  4.600888e-02    5.855027e-07
  4.630781e-02    5.786924e-07
  4.660674e-02    5.811179e-07
  4.690567e-02    5.820890e-07
  4.720460e-02    5.832032e-07
  4.750353e-02    5.844072e-07
  4.780246e-02    5.737500e-07
  4.810139e-02    5.766967e-07
  4.840032e-02    5.707562e-07
  4.869925e-02    5.673155e-07
  4.899818e-02    5.652229e-07
  4.929711e-02    5.675933e-07
  4.959604e-02    5.707669e-07
  4.989497e-02    5.676129e-07
  5.019390e-02    5.660773e-07
  5.049283e-02    5.679514e-07
  5.079176e-02    5.696014e-07
  5.109069e-02    5.700635e-07
  5.138962e-02    5.669180e-07
  5.168855e-02    5.723064e-07
  5.198748e-02    5.767419e-07
  5.228642e-02    5.730470e-07
  5.258535e-02    5.627944e-07
  5.288428e-02    5.658357e-07
  5.318321e-02    5.668879e-07
  5.348214e-02    5.545120e-07
  5.378107e-02    5.541484e-07
  5.408000e-02    5.573019e-07
  5.437893e-02    5.525723e-07
  5.467786e-02    5.498727e-07
  5.497679e-02    5.542475e-07
  5.527572e-02    5.488170e-07
  5.557465e-02    5.464151e-07
  5.587358e-02    5.535773e-07
  5.617251e-02    5.511050e-07
  5.647144e-02    5.474001e-07
  5.677037e-02    5.411925e-07
  5.706930e-02    5.349822e-07
  5.736823e-02    5.454972e-07
  5.766716e-02    5.478334e-07
  5.796609e-02    5.464314e-07
  5.826502e-02    5.415515e-07
  5.856395e-02    5.355529e-07
  5.886288e-02    5.339633e-07
  5.916181e-02    5.370321e-07
  5.946074e-02    5.400195e-07
  5.975967e-02    5.387681e-07
  6.005861e-02    5.372970e-07
  6.035754e-02    5.332418e-07
  6.065647e-02    5.398717e-07
  6.095540e-02    5.454481e-07
  6.125433e-02    5.435239e-07
  6.155326e-02    5.423535e-07
  6.185219e-02    5.367373e-07
  6.215112e-02    5.341861e-07
  6.245005e-02    5.353856e-07
  6.274898e-02    5.398195e-07
  6.304791e-02    5.359203e-07
  6.334684e-02    5.365636e-07
  6.364577e-02    5.359761e-07
  6.394470e-02    5.381473e-07
  6.424363e-02    5.404237e-07
  6.454256e-02    5.429263e-07
  6.484149e-02    5.368710e-07
  6.514042e-02    5.374083e-07
  6.543935e-02    5.419499e-07
  6.573828e-02    5.469411e-07
  6.603721e-02    5.441218e-07
  6.633614e-02    5.371287e-07
  6.663507e-02    5.354937e-07
  6.693400e-02    5.372822e-07
  6.723293e-02    5.373449e-07
  6.753186e-02    5.386701e-07
  6.783080e-02    5.337019e-07
  6.812973e-02    5.331424e-07
  6.842866e-02    5.296434e-07
  6.872759e-02    5.358808e-07
  6.902652e-02    5.475038e-07
  6.932545e-02    5.420744e-07
  6.962438e-02    5.373211e-07
  6.992331e-02    5.434481e-07
  7.022224e-02    5.503906e-07
  7.052117e-02    5.482453e-07
  7.082010e-02    5.446431e-07
  7.111903e-02    5.412937e-07
  7.141796e-02    5.483213e-07
  7.171689e-02    5.451880e-07
  7.201582e-02    5.399837e-07
  7.231475e-02    5.422589e-07
  7.261368e-02    5.434270e-07
  7.291261e-02    5.420740e-07
  7.321154e-02    5.397163e-07
  7.351047e-02    5.423974e-07
  7.380940e-02    5.430328e-07
  7.410833e-02    5.429472e-07
  7.440726e-02    5.435003e-07
  7.470619e-02    5.432136e-07
  7.500512e-02    5.461315e-07
  7.530405e-02    5.425466e-07
  7.560299e-02    5.398016e-07
  7.590192e-02    5.420329e-07
  7.620085e-02    5.431676e-07
  7.649978e-02    5.440079e-07
  7.679871e-02    5.449691e-07
  7.709764e-02    5.441865e-07
  7.739657e-02    5.377843e-07
  7.769550e-02    5.337188e-07
  7.799443e-02    5.436756e-07
  7.829336e-02    5.477467e-07
  7.859229e-02    5.416210e-07
  7.889122e-02    5.433777e-07
  7.919015e-02    5.450618e-07
  7.948908e-02    5.454473e-07
  7.978801e-02    5.375432e-07
  8.008694e-02    5.386984e-07
  8.038587e-02    5.368277e-07
  8.068480e-02    5.377388e-07
  8.098373e-02    5.365854e-07
  8.128266e-02    5.313804e-07
  8.158159e-02    5.304757e-07
  8.188052e-02    5.340552e-07
  8.217945e-02    5.419377e-07
  8.247838e-02    5.385635e-07
  8.277731e-02    5.370537e-07
  8.307624e-02    5.427282e-07
  8.337518e-02    5.372972e-07
  8.367411e-02    5.295888e-07
  8.397304e-02    5.335541e-07
  8.427197e-02    5.367743e-07
  8.457090e-02    5.348255e-07
  8.486983e-02    5.369553e-07
  8.516876e-02    5.416243e-07
  8.546769e-02    5.372726e-07
  8.576662e-02    5.284822e-07
  8.606555e-02    5.283154e-07
  8.636448e-02    5.307312e-07
  8.666341e-02    5.288131e-07
  8.696234e-02    5.315488e-07
  8.726127e-02    5.365453e-07
  8.756020e-02    5.355834e-07
  8.785913e-02    5.310523e-07
  8.815806e-02    5.282598e-07
  8.845699e-02    5.293005e-07
  8.875592e-02    5.351089e-07
  8.905485e-02    5.301087e-07
  8.935378e-02    5.288309e-07
  8.965271e-02    5.288337e-07
  8.995164e-02    5.284360e-07
  9.025057e-02    5.324971e-07
  9.054950e-02    5.361566e-07
  9.084843e-02    5.329724e-07
  9.114737e-02    5.367059e-07
  9.144630e-02    5.354317e-07
  9.174523e-02    5.340910e-07
  9.204416e-02    5.376968e-07
  9.234309e-02    5.350805e-07
  9.264202e-02    5.329995e-07
  9.294095e-02    5.296941e-07
  9.323988e-02    5.300682e-07
  9.353881e-02    5.292217e-07
  9.383774e-02    5.330824e-07
  9.413667e-02    5.343854e-07
  9.443560e-02    5.298517e-07
  9.473453e-02    5.286999e-07
  9.503346e-02    5.358050e-07
  9.533239e-02    5.386859e-07
  9.563132e-02    5.393246e-07
  9.593025e-02    5.384501e-07
  9.622918e-02    5.401263e-07
  9.652811e-02    5.394878e-07
  9.682704e-02    5.392929e-07
  9.712597e-02    5.413468e-07
  9.742490e-02    5.438736e-07
  9.772383e-02    5.437361e-07
  9.802276e-02    5.421178e-07
  9.832169e-02    5.390401e-07
  9.862062e-02    5.450927e-07
  9.891956e-02    5.488136e-07
  9.921849e-02    5.438678e-07
  9.951742e-02    5.415650e-07
  9.981635e-02    5.385211e-07
  1.001153e-01    5.437452e-07
  1.004142e-01    5.416201e-07
  1.007131e-01    5.387902e-07
  1.010121e-01    5.407561e-07
  1.013110e-01    5.462517e-07
  1.016099e-01    5.490435e-07
  1.019089e-01    5.463444e-07
  1.022078e-01    5.427768e-07
  1.025067e-01    5.415961e-07
  1.028057e-01    5.393828e-07
  1.031046e-01    5.420700e-07
  1.034035e-01    5.459445e-07
  1.037024e-01    5.414358e-07
  1.040014e-01    5.367905e-07
  1.043003e-01    5.366284e-07
  1.045992e-01    5.381079e-07
  1.048982e-01    5.399736e-07
  1.051971e-01    5.461508e-07
  1.054960e-01    5.402988e-07
  1.057950e-01    5.396527e-07
  1.060939e-01    5.427391e-07
  1.063928e-01    5.487936e-07
  1.066917e-01    5.508592e-07
  1.069907e-01    5.479277e-07
  1.072896e-01    5.515625e-07
  1.075885e-01    5.505980e-07
  1.078875e-01    5.473668e-07
  1.081864e-01    5.448557e-07
  1.084853e-01    5.486569e-07
  1.087843e-01    5.521152e-07
  1.090832e-01    5.524253e-07
  1.093821e-01    5.559678e-07
  1.096810e-01    5.536356e-07
  1.099800e-01    5.460518e-07
  1.102789e-01    5.493499e-07
  1.105778e-01    5.539897e-07
  1.108768e-01    5.504943e-07
  1.111757e-01    5.484336e-07
  1.114746e-01    5.380538e-07
  1.117736e-01    5.310491e-07
  1.120725e-01    5.307448e-07
  1.123714e-01    5.253991e-07
  1.126704e-01    5.163907e-07
  1.129693e-01    5.143015e-07
  1.132682e-01    5.038942e-07
  1.135671e-01    4.945544e-07
  1.138661e-01    4.962136e-07
  1.141650e-01    4.927672e-07
  1.144639e-01    4.779651e-07
  1.147629e-01    4.629341e-07
  1.150618e-01    4.583135e-07
  1.153607e-01    4.617092e-07
  1.156597e-01    4.639410e-07
  1.159586e-01    4.558517e-07
  1.162575e-01    4.615876e-07
  1.165564e-01    4.589900e-07
  1.168554e-01    4.599332e-07
  1.171543e-01    4.616017e-07
  1.174532e-01    4.589224e-07
  1.177522e-01    4.576323e-07
  1.180511e-01    4.486066e-07
  1.183500e-01    4.634548e-07
  1.186490e-01    4.734278e-07
  1.189479e-01    4.608207e-07
  1.192468e-01    4.569036e-07
  1.195458e-01    4.827338e-07
  1.198447e-01    5.038220e-07
  1.201436e-01    5.128805e-07
  1.204425e-01    5.022843e-07
  1.207415e-01    4.484729e-07
  1.210404e-01    3.243462e-07
  1.213393e-01    0.000000e+00
  1.216383e-01    0.000000e+00
  1.219372e-01    0.000000e+00
  1.222361e-01    0.000000e+00
  1.225351e-01    0.000000e+00
  1.228340e-01    0.000000e+00
  1.231329e-01    0.000000e+00
  1.234318e-01    0.000000e+00
  1.237308e-01    0.000000e+00
  1.240297e-01    0.000000e+00
  1.243286e-01    0.000000e+00
  1.246276e-01    0.000000e+00
  1.249265e-01    0.000000e+00
  1.252254e-01    0.000000e+00
  1.255244e-01    0.000000e+00
  1.258233e-01    0.000000e+00
  1.261222e-01    0.000000e+00
  1.264212e-01    0.000000e+00
  1.267201e-01    0.000000e+00
  1.270190e-01    0.000000e+00
  1.273179e-01    0.000000e+00
  1.276169e-01    0.000000e+00
  1.279158e-01    0.000000e+00
  1.282147e-01    0.000000e+00
  1.285137e-01    0.000000e+00
  1.288126e-01    0.000000e+00
  1.291115e-01    0.000000e+00
  1.294105e-01    0.000000e+00
  1.297094e-01    0.000000e+00
  1.300083e-01    0.000000e+00
  1.303072e-01    0.000000e+00
  1.306062e-01    0.000000e+00
  1.309051e-01    0.000000e+00
  1.312040e-01    0.000000e+00
  1.315030e-01    0.000000e+00
  1.318019e-01    0.000000e+00
  1.321008e-01    0.000000e+00
  1.323998e-01    0.000000e+00
  1.326987e-01    0.000000e+00
  1.329976e-01    0.000000e+00
  1.332965e-01    0.000000e+00
  1.335955e-01    0.000000e+00
  1.338944e-01    0.000000e+00
  1.341933e-01    0.000000e+00
  1.344923e-01    0.000000e+00
  1.347912e-01    0.000000e+00
  1.350901e-01    0.000000e+00
  1.353891e-01    0.000000e+00
  1.356880e-01    0.000000e+00
  1.359869e-01    0.000000e+00
  1.362859e-01    0.000000e+00
  1.365848e-01    0.000000e+00
  1.368837e-01    0.000000e+00
  1.371826e-01    0.000000e+00
  1.374816e-01    0.000000e+00
  1.377805e-01    0.000000e+00
  1.380794e-01    0.000000e+00
  1.383784e-01    0.000000e+00
  1.386773e-01    0.000000e+00
  1.389762e-01    0.000000e+00
  1.392752e-01    0.000000e+00
  1.395741e-01    0.000000e+00
  1.398730e-01    0.000000e+00
  1.401719e-01    0.000000e+00
  1.404709e-01    0.000000e+00
  1.407698e-01    0.000000e+00
  1.410687e-01    0.000000e+00
  1.413677e-01    0.000000e+00
  1.416666e-01    0.000000e+00
  1.419655e-01    0.000000e+00
  1.422645e-01    0.000000e+00
  1.425634e-01    0.000000e+00
  1.428623e-01    0.000000e+00
  1.431613e-01    0.000000e+00
  1.434602e-01    0.000000e+00
  1.437591e-01    0.000000e+00
  1.440580e-01    0.000000e+00
  1.443570e-01    0.000000e+00
  1.446559e-01    0.000000e+00
  1.449548e-01    0.000000e+00
  1.452538e-01    0.000000e+00
  1.455527e-01    0.000000e+00
  1.458516e-01    0.000000e+00
  1.461506e-01    0.000000e+00
  1.464495e-01    0.000000e+00
  1.467484e-01    0.000000e+00
  1.470473e-01    0.000000e+00
  1.473463e-01    0.000000e+00
  1.476452e-01    0.000000e+00
  1.479441e-01    0.000000e+00
  1.482431e-01    0.000000e+00
  1.485420e-01    0.000000e+00
  1.488409e-01    0.000000e+00
  1.491399e-01    0.000000e+00
  1.494388e-01    0.000000e+00
  1.497377e-01    0.000000e+00
  1.500367e-01    0.000000e+00
  1.503356e-01    0.000000e+00
  1.506345e-01    0.000000e+00
  1.509334e-01    0.000000e+00
  1.512324e-01    0.000000e+00
  1.515313e-01    0.000000e+00
  1.518302e-01    0.000000e+00
  1.521292e-01    0.000000e+00
  1.524281e-01    0.000000e+00
  1.527270e-01    0.000000e+00
  1.530260e-01    0.000000e+00
  1.533249e-01    0.000000e+00
  1.536238e-01    0.000000e+00
