# == pyFAI calibration ==
# Distance Sample to Detector: 2.266 m
# PONI: 5.659e-02, 4.293e-02 m
# Rotations: 0.000000 0.000000 0.000000 rad
# 
# == Fit2d calibration ==
# Distance Sample-beamCenter: 2266.000 mm
# Center: x=249.594, y=329.012 pix
# Tilt: 0.000 deg  TiltPlanRot: 0.000 deg
# 
# Detector Pilatus 300k	 PixelSize= 1.720e-04, 1.720e-04 m
#    Detector has a mask: True 
#    Detector has a dark current: False 
#    detector has a flat field: False 
# 
# Wavelength: 1.27818e-10 m
# Mask applied: user provided
# Dark current applied: False
# Flat field applied: False
# Polarization factor: None
# Normalization factor: 4613315.600000001
# --> AL_F127_220301_3e612500-a98f-400e-8c11-285eaaf0fdca_0_r1d.csv
#        q_A^-1             I 
  4.457554e-03    9.527878e-03
  4.756484e-03    7.538815e-03
  5.055415e-03    5.491396e-03
  5.354345e-03    3.969778e-03
  5.653276e-03    3.134520e-03
  5.952206e-03    5.054191e-03
  6.251136e-03    4.598084e-03
  6.550067e-03    3.966973e-03
  6.848997e-03    3.353835e-03
  7.147927e-03    2.834461e-03
  7.446858e-03    2.426438e-03
  7.745788e-03    2.085599e-03
  8.044719e-03    1.800072e-03
  8.343649e-03    1.575132e-03
  8.642579e-03    1.379186e-03
  8.941510e-03    1.213993e-03
  9.240440e-03    1.077180e-03
  9.539371e-03    9.571714e-04
  9.838301e-03    8.521754e-04
  1.013723e-02    7.644239e-04
  1.043616e-02    6.888233e-04
  1.073509e-02    6.200823e-04
  1.103402e-02    5.618233e-04
  1.133295e-02    5.094793e-04
  1.163188e-02    4.648714e-04
  1.193081e-02    4.247552e-04
  1.222974e-02    3.886366e-04
  1.252867e-02    3.562591e-04
  1.282760e-02    3.276289e-04
  1.312654e-02    3.024498e-04
  1.342547e-02    2.794774e-04
  1.372440e-02    2.583965e-04
  1.402333e-02    2.396082e-04
  1.432226e-02    2.240294e-04
  1.462119e-02    2.096054e-04
  1.492012e-02    1.960958e-04
  1.521905e-02    1.832420e-04
  1.551798e-02    1.718443e-04
  1.581691e-02    1.608842e-04
  1.611584e-02    1.510265e-04
  1.641477e-02    1.424650e-04
  1.671370e-02    1.342346e-04
  1.701263e-02    1.272148e-04
  1.731156e-02    1.208403e-04
  1.761049e-02    1.149503e-04
  1.790942e-02    1.095812e-04
  1.820835e-02    1.040649e-04
  1.850728e-02    9.901670e-05
  1.880621e-02    9.457520e-05
  1.910514e-02    9.056687e-05
  1.940407e-02    8.683676e-05
  1.970300e-02    8.333938e-05
  2.000193e-02    8.027629e-05
  2.030086e-02    7.712575e-05
  2.059979e-02    7.448200e-05
  2.089873e-02    7.179296e-05
  2.119766e-02    6.918915e-05
  2.149659e-02    6.704557e-05
  2.179552e-02    6.472939e-05
  2.209445e-02    6.278503e-05
  2.239338e-02    6.093456e-05
  2.269231e-02    5.931928e-05
  2.299124e-02    5.800521e-05
  2.329017e-02    5.630676e-05
  2.358910e-02    5.457070e-05
  2.388803e-02    5.325861e-05
  2.418696e-02    5.216465e-05
  2.448589e-02    5.093352e-05
  2.478482e-02    4.968981e-05
  2.508375e-02    4.867932e-05
  2.538268e-02    4.760548e-05
  2.568161e-02    4.669576e-05
  2.598054e-02    4.583661e-05
  2.627947e-02    4.505055e-05
  2.657840e-02    4.431034e-05
  2.687733e-02    4.348027e-05
  2.717626e-02    4.288577e-05
  2.747519e-02    4.223891e-05
  2.777412e-02    4.146842e-05
  2.807305e-02    4.070260e-05
  2.837198e-02    4.004942e-05
  2.867092e-02    3.971797e-05
  2.896985e-02    3.920637e-05
  2.926878e-02    3.863762e-05
  2.956771e-02    3.793341e-05
  2.986664e-02    3.753822e-05
  3.016557e-02    3.734187e-05
  3.046450e-02    3.676004e-05
  3.076343e-02    3.634764e-05
  3.106236e-02    3.597473e-05
  3.136129e-02    3.577049e-05
  3.166022e-02    3.547459e-05
  3.195915e-02    3.494868e-05
  3.225808e-02    3.474059e-05
  3.255701e-02    3.462137e-05
  3.285594e-02    3.414267e-05
  3.315487e-02    3.379952e-05
  3.345380e-02    3.339689e-05
  3.375273e-02    3.315388e-05
  3.405166e-02    3.290483e-05
  3.435059e-02    3.255262e-05
  3.464952e-02    3.234522e-05
  3.494845e-02    3.212492e-05
  3.524738e-02    3.184852e-05
  3.554631e-02    3.150310e-05
  3.584524e-02    3.118199e-05
  3.614417e-02    3.085344e-05
  3.644310e-02    3.053061e-05
  3.674204e-02    3.039408e-05
  3.704097e-02    3.027937e-05
  3.733990e-02    3.004571e-05
  3.763883e-02    3.001492e-05
  3.793776e-02    2.977480e-05
  3.823669e-02    2.953146e-05
  3.853562e-02    2.941175e-05
  3.883455e-02    2.918202e-05
  3.913348e-02    2.908359e-05
  3.943241e-02    2.893832e-05
  3.973134e-02    2.866234e-05
  4.003027e-02    2.857864e-05
  4.032920e-02    2.853192e-05
  4.062813e-02    2.832422e-05
  4.092706e-02    2.833768e-05
  4.122599e-02    2.815989e-05
  4.152492e-02    2.789867e-05
  4.182385e-02    2.776221e-05
  4.212278e-02    2.760518e-05
  4.242171e-02    2.762129e-05
  4.272064e-02    2.755370e-05
  4.301957e-02    2.748434e-05
  4.331850e-02    2.748881e-05
  4.361743e-02    2.730218e-05
  4.391636e-02    2.723072e-05
  4.421529e-02    2.716277e-05
  4.451423e-02    2.718715e-05
  4.481316e-02    2.717654e-05
  4.511209e-02    2.698186e-05
  4.541102e-02    2.697541e-05
  4.570995e-02    2.702517e-05
  4.600888e-02    2.702781e-05
  4.630781e-02    2.691991e-05
  4.660674e-02    2.676775e-05
  4.690567e-02    2.685705e-05
  4.720460e-02    2.696725e-05
  4.750353e-02    2.689713e-05
  4.780246e-02    2.675361e-05
  4.810139e-02    2.668749e-05
  4.840032e-02    2.663908e-05
  4.869925e-02    2.665625e-05
  4.899818e-02    2.677247e-05
  4.929711e-02    2.686844e-05
  4.959604e-02    2.670154e-05
  4.989497e-02    2.659127e-05
  5.019390e-02    2.666852e-05
  5.049283e-02    2.667993e-05
  5.079176e-02    2.664622e-05
  5.109069e-02    2.669833e-05
  5.138962e-02    2.685099e-05
  5.168855e-02    2.722187e-05
  5.198748e-02    2.757860e-05
  5.228642e-02    2.740694e-05
  5.258535e-02    2.686129e-05
  5.288428e-02    2.658981e-05
  5.318321e-02    2.662215e-05
  5.348214e-02    2.673098e-05
  5.378107e-02    2.664318e-05
  5.408000e-02    2.666281e-05
  5.437893e-02    2.666785e-05
  5.467786e-02    2.654223e-05
  5.497679e-02    2.656466e-05
  5.527572e-02    2.651123e-05
  5.557465e-02    2.653671e-05
  5.587358e-02    2.658522e-05
  5.617251e-02    2.665655e-05
  5.647144e-02    2.669756e-05
  5.677037e-02    2.675182e-05
  5.706930e-02    2.676195e-05
  5.736823e-02    2.670498e-05
  5.766716e-02    2.667480e-05
  5.796609e-02    2.677434e-05
  5.826502e-02    2.679579e-05
  5.856395e-02    2.682130e-05
  5.886288e-02    2.686218e-05
  5.916181e-02    2.682712e-05
  5.946074e-02    2.703783e-05
  5.975967e-02    2.707173e-05
  6.005861e-02    2.705130e-05
  6.035754e-02    2.707665e-05
  6.065647e-02    2.710668e-05
  6.095540e-02    2.740697e-05
  6.125433e-02    2.770986e-05
  6.155326e-02    2.767774e-05
  6.185219e-02    2.754150e-05
  6.215112e-02    2.739022e-05
  6.245005e-02    2.735500e-05
  6.274898e-02    2.738186e-05
  6.304791e-02    2.741311e-05
  6.334684e-02    2.749009e-05
  6.364577e-02    2.738475e-05
  6.394470e-02    2.745569e-05
  6.424363e-02    2.757229e-05
  6.454256e-02    2.758771e-05
  6.484149e-02    2.763045e-05
  6.514042e-02    2.771511e-05
  6.543935e-02    2.769407e-05
  6.573828e-02    2.775398e-05
  6.603721e-02    2.776761e-05
  6.633614e-02    2.784426e-05
  6.663507e-02    2.796792e-05
  6.693400e-02    2.788751e-05
  6.723293e-02    2.789982e-05
  6.753186e-02    2.801258e-05
  6.783080e-02    2.800347e-05
  6.812973e-02    2.811649e-05
  6.842866e-02    2.811982e-05
  6.872759e-02    2.813171e-05
  6.902652e-02    2.818775e-05
  6.932545e-02    2.821858e-05
  6.962438e-02    2.822945e-05
  6.992331e-02    2.835063e-05
  7.022224e-02    2.839353e-05
  7.052117e-02    2.837752e-05
  7.082010e-02    2.839755e-05
  7.111903e-02    2.839809e-05
  7.141796e-02    2.841756e-05
  7.171689e-02    2.844402e-05
  7.201582e-02    2.848902e-05
  7.231475e-02    2.864989e-05
  7.261368e-02    2.858817e-05
  7.291261e-02    2.856489e-05
  7.321154e-02    2.861633e-05
  7.351047e-02    2.863239e-05
  7.380940e-02    2.875738e-05
  7.410833e-02    2.878701e-05
  7.440726e-02    2.868792e-05
  7.470619e-02    2.868049e-05
  7.500512e-02    2.865485e-05
  7.530405e-02    2.864212e-05
  7.560299e-02    2.879547e-05
  7.590192e-02    2.886593e-05
  7.620085e-02    2.886629e-05
  7.649978e-02    2.879176e-05
  7.679871e-02    2.866763e-05
  7.709764e-02    2.860228e-05
  7.739657e-02    2.867756e-05
  7.769550e-02    2.874830e-05
  7.799443e-02    2.873684e-05
  7.829336e-02    2.874764e-05
  7.859229e-02    2.866599e-05
  7.889122e-02    2.861935e-05
  7.919015e-02    2.867879e-05
  7.948908e-02    2.858090e-05
  7.978801e-02    2.859169e-05
  8.008694e-02    2.856221e-05
  8.038587e-02    2.861654e-05
  8.068480e-02    2.867468e-05
  8.098373e-02    2.863901e-05
  8.128266e-02    2.851418e-05
  8.158159e-02    2.839634e-05
  8.188052e-02    2.836614e-05
  8.217945e-02    2.840186e-05
  8.247838e-02    2.835323e-05
  8.277731e-02    2.831220e-05
  8.307624e-02    2.839287e-05
  8.337518e-02    2.838568e-05
  8.367411e-02    2.835362e-05
  8.397304e-02    2.828587e-05
  8.427197e-02    2.824429e-05
  8.457090e-02    2.818189e-05
  8.486983e-02    2.810339e-05
  8.516876e-02    2.817965e-05
  8.546769e-02    2.807596e-05
  8.576662e-02    2.801222e-05
  8.606555e-02    2.801063e-05
  8.636448e-02    2.803765e-05
  8.666341e-02    2.801909e-05
  8.696234e-02    2.789243e-05
  8.726127e-02    2.794992e-05
  8.756020e-02    2.789990e-05
  8.785913e-02    2.785563e-05
  8.815806e-02    2.778528e-05
  8.845699e-02    2.765868e-05
  8.875592e-02    2.766939e-05
  8.905485e-02    2.763715e-05
  8.935378e-02    2.755611e-05
  8.965271e-02    2.765043e-05
  8.995164e-02    2.760197e-05
  9.025057e-02    2.747848e-05
  9.054950e-02    2.753741e-05
  9.084843e-02    2.750704e-05
  9.114737e-02    2.734478e-05
  9.144630e-02    2.721964e-05
  9.174523e-02    2.716447e-05
  9.204416e-02    2.717492e-05
  9.234309e-02    2.709037e-05
  9.264202e-02    2.701080e-05
  9.294095e-02    2.692878e-05
  9.323988e-02    2.694831e-05
  9.353881e-02    2.708101e-05
  9.383774e-02    2.692208e-05
  9.413667e-02    2.684562e-05
  9.443560e-02    2.669971e-05
  9.473453e-02    2.668949e-05
  9.503346e-02    2.675682e-05
  9.533239e-02    2.670280e-05
  9.563132e-02    2.663258e-05
  9.593025e-02    2.666112e-05
  9.622918e-02    2.664491e-05
  9.652811e-02    2.664009e-05
  9.682704e-02    2.659728e-05
  9.712597e-02    2.653778e-05
  9.742490e-02    2.647768e-05
  9.772383e-02    2.642873e-05
  9.802276e-02    2.638674e-05
  9.832169e-02    2.628442e-05
  9.862062e-02    2.612583e-05
  9.891956e-02    2.605107e-05
  9.921849e-02    2.594347e-05
  9.951742e-02    2.589605e-05
  9.981635e-02    2.589133e-05
  1.001153e-01    2.584709e-05
  1.004142e-01    2.584031e-05
  1.007131e-01    2.578842e-05
  1.010121e-01    2.564654e-05
  1.013110e-01    2.569058e-05
  1.016099e-01    2.569826e-05
  1.019089e-01    2.565115e-05
  1.022078e-01    2.556966e-05
  1.025067e-01    2.544971e-05
  1.028057e-01    2.541632e-05
  1.031046e-01    2.546315e-05
  1.034035e-01    2.545350e-05
  1.037024e-01    2.540808e-05
  1.040014e-01    2.525570e-05
  1.043003e-01    2.517441e-05
  1.045992e-01    2.514947e-05
  1.048982e-01    2.506078e-05
  1.051971e-01    2.503390e-05
  1.054960e-01    2.490975e-05
  1.057950e-01    2.483979e-05
  1.060939e-01    2.481564e-05
  1.063928e-01    2.488992e-05
  1.066917e-01    2.482848e-05
  1.069907e-01    2.472406e-05
  1.072896e-01    2.477021e-05
  1.075885e-01    2.466731e-05
  1.078875e-01    2.452344e-05
  1.081864e-01    2.452356e-05
  1.084853e-01    2.455632e-05
  1.087843e-01    2.458223e-05
  1.090832e-01    2.453025e-05
  1.093821e-01    2.447588e-05
  1.096810e-01    2.436577e-05
  1.099800e-01    2.427040e-05
  1.102789e-01    2.423049e-05
  1.105778e-01    2.407150e-05
  1.108768e-01    2.402526e-05
  1.111757e-01    2.398216e-05
  1.114746e-01    2.385464e-05
  1.117736e-01    2.392517e-05
  1.120725e-01    2.384986e-05
  1.123714e-01    2.381744e-05
  1.126704e-01    2.382348e-05
  1.129693e-01    2.376109e-05
  1.132682e-01    2.364210e-05
  1.135671e-01    2.348800e-05
  1.138661e-01    2.353045e-05
  1.141650e-01    2.349260e-05
  1.144639e-01    2.338725e-05
  1.147629e-01    2.339975e-05
  1.150618e-01    2.328171e-05
  1.153607e-01    2.318726e-05
  1.156597e-01    2.311624e-05
  1.159586e-01    2.296522e-05
  1.162575e-01    2.278411e-05
  1.165564e-01    2.291600e-05
  1.168554e-01    2.325782e-05
  1.171543e-01    2.338793e-05
  1.174532e-01    2.311491e-05
  1.177522e-01    2.308913e-05
  1.180511e-01    2.311143e-05
  1.183500e-01    2.307264e-05
  1.186490e-01    2.314923e-05
  1.189479e-01    2.316389e-05
  1.192468e-01    2.292769e-05
  1.195458e-01    2.278107e-05
  1.198447e-01    2.261402e-05
  1.201436e-01    2.234275e-05
  1.204425e-01    2.193800e-05
  1.207415e-01    2.117962e-05
  1.210404e-01    2.234690e-05
  1.213393e-01    0.000000e+00
  1.216383e-01    0.000000e+00
  1.219372e-01    0.000000e+00
  1.222361e-01    0.000000e+00
  1.225351e-01    0.000000e+00
  1.228340e-01    0.000000e+00
  1.231329e-01    0.000000e+00
  1.234318e-01    0.000000e+00
  1.237308e-01    0.000000e+00
  1.240297e-01    0.000000e+00
  1.243286e-01    0.000000e+00
  1.246276e-01    0.000000e+00
  1.249265e-01    0.000000e+00
  1.252254e-01    0.000000e+00
  1.255244e-01    0.000000e+00
  1.258233e-01    0.000000e+00
  1.261222e-01    0.000000e+00
  1.264212e-01    0.000000e+00
  1.267201e-01    0.000000e+00
  1.270190e-01    0.000000e+00
  1.273179e-01    0.000000e+00
  1.276169e-01    0.000000e+00
  1.279158e-01    0.000000e+00
  1.282147e-01    0.000000e+00
  1.285137e-01    0.000000e+00
  1.288126e-01    0.000000e+00
  1.291115e-01    0.000000e+00
  1.294105e-01    0.000000e+00
  1.297094e-01    0.000000e+00
  1.300083e-01    0.000000e+00
  1.303072e-01    0.000000e+00
  1.306062e-01    0.000000e+00
  1.309051e-01    0.000000e+00
  1.312040e-01    0.000000e+00
  1.315030e-01    0.000000e+00
  1.318019e-01    0.000000e+00
  1.321008e-01    0.000000e+00
  1.323998e-01    0.000000e+00
  1.326987e-01    0.000000e+00
  1.329976e-01    0.000000e+00
  1.332965e-01    0.000000e+00
  1.335955e-01    0.000000e+00
  1.338944e-01    0.000000e+00
  1.341933e-01    0.000000e+00
  1.344923e-01    0.000000e+00
  1.347912e-01    0.000000e+00
  1.350901e-01    0.000000e+00
  1.353891e-01    0.000000e+00
  1.356880e-01    0.000000e+00
  1.359869e-01    0.000000e+00
  1.362859e-01    0.000000e+00
  1.365848e-01    0.000000e+00
  1.368837e-01    0.000000e+00
  1.371826e-01    0.000000e+00
  1.374816e-01    0.000000e+00
  1.377805e-01    0.000000e+00
  1.380794e-01    0.000000e+00
  1.383784e-01    0.000000e+00
  1.386773e-01    0.000000e+00
  1.389762e-01    0.000000e+00
  1.392752e-01    0.000000e+00
  1.395741e-01    0.000000e+00
  1.398730e-01    0.000000e+00
  1.401719e-01    0.000000e+00
  1.404709e-01    0.000000e+00
  1.407698e-01    0.000000e+00
  1.410687e-01    0.000000e+00
  1.413677e-01    0.000000e+00
  1.416666e-01    0.000000e+00
  1.419655e-01    0.000000e+00
  1.422645e-01    0.000000e+00
  1.425634e-01    0.000000e+00
  1.428623e-01    0.000000e+00
  1.431613e-01    0.000000e+00
  1.434602e-01    0.000000e+00
  1.437591e-01    0.000000e+00
  1.440580e-01    0.000000e+00
  1.443570e-01    0.000000e+00
  1.446559e-01    0.000000e+00
  1.449548e-01    0.000000e+00
  1.452538e-01    0.000000e+00
  1.455527e-01    0.000000e+00
  1.458516e-01    0.000000e+00
  1.461506e-01    0.000000e+00
  1.464495e-01    0.000000e+00
  1.467484e-01    0.000000e+00
  1.470473e-01    0.000000e+00
  1.473463e-01    0.000000e+00
  1.476452e-01    0.000000e+00
  1.479441e-01    0.000000e+00
  1.482431e-01    0.000000e+00
  1.485420e-01    0.000000e+00
  1.488409e-01    0.000000e+00
  1.491399e-01    0.000000e+00
  1.494388e-01    0.000000e+00
  1.497377e-01    0.000000e+00
  1.500367e-01    0.000000e+00
  1.503356e-01    0.000000e+00
  1.506345e-01    0.000000e+00
  1.509334e-01    0.000000e+00
  1.512324e-01    0.000000e+00
  1.515313e-01    0.000000e+00
  1.518302e-01    0.000000e+00
  1.521292e-01    0.000000e+00
  1.524281e-01    0.000000e+00
  1.527270e-01    0.000000e+00
  1.530260e-01    0.000000e+00
  1.533249e-01    0.000000e+00
  1.536238e-01    0.000000e+00
