# == pyFAI calibration ==
# Distance Sample to Detector: 2.266 m
# PONI: 5.659e-02, 4.293e-02 m
# Rotations: 0.000000 0.000000 0.000000 rad
# 
# == Fit2d calibration ==
# Distance Sample-beamCenter: 2266.000 mm
# Center: x=249.594, y=329.012 pix
# Tilt: 0.000 deg  TiltPlanRot: 0.000 deg
# 
# Detector Pilatus 300k	 PixelSize= 1.720e-04, 1.720e-04 m
#    Detector has a mask: True 
#    Detector has a dark current: False 
#    detector has a flat field: False 
# 
# Wavelength: 1.27818e-10 m
# Mask applied: user provided
# Dark current applied: False
# Flat field applied: False
# Polarization factor: None
# Normalization factor: 9705244.8
# --> F127_154.958_NaCl_193.697_limonene_96.849mgml_1_r1d.csv
#        q_A^-1             I 
  4.457554e-03    3.120619e-03
  4.756484e-03    2.433979e-03
  5.055415e-03    1.715975e-03
  5.354345e-03    1.187749e-03
  5.653276e-03    8.972132e-04
  5.952206e-03    1.416451e-03
  6.251136e-03    1.285131e-03
  6.550067e-03    1.112745e-03
  6.848997e-03    9.461886e-04
  7.147927e-03    7.985004e-04
  7.446858e-03    6.804382e-04
  7.745788e-03    5.836429e-04
  8.044719e-03    5.033129e-04
  8.343649e-03    4.392642e-04
  8.642579e-03    3.839141e-04
  8.941510e-03    3.370812e-04
  9.240440e-03    2.980356e-04
  9.539371e-03    2.650029e-04
  9.838301e-03    2.364733e-04
  1.013723e-02    2.115589e-04
  1.043616e-02    1.900551e-04
  1.073509e-02    1.709050e-04
  1.103402e-02    1.546542e-04
  1.133295e-02    1.401627e-04
  1.163188e-02    1.281025e-04
  1.193081e-02    1.177512e-04
  1.222974e-02    1.080063e-04
  1.252867e-02    9.903904e-05
  1.282760e-02    9.167418e-05
  1.312654e-02    8.513076e-05
  1.342547e-02    7.885961e-05
  1.372440e-02    7.321569e-05
  1.402333e-02    6.847201e-05
  1.432226e-02    6.390947e-05
  1.462119e-02    6.020666e-05
  1.492012e-02    5.669230e-05
  1.521905e-02    5.326806e-05
  1.551798e-02    5.027020e-05
  1.581691e-02    4.760977e-05
  1.611584e-02    4.520795e-05
  1.641477e-02    4.326859e-05
  1.671370e-02    4.136223e-05
  1.701263e-02    3.963333e-05
  1.731156e-02    3.817184e-05
  1.761049e-02    3.679726e-05
  1.790942e-02    3.544158e-05
  1.820835e-02    3.439912e-05
  1.850728e-02    3.346120e-05
  1.880621e-02    3.257765e-05
  1.910514e-02    3.187874e-05
  1.940407e-02    3.125435e-05
  1.970300e-02    3.086326e-05
  2.000193e-02    3.049026e-05
  2.030086e-02    3.022840e-05
  2.059979e-02    3.019047e-05
  2.089873e-02    3.013553e-05
  2.119766e-02    3.005909e-05
  2.149659e-02    3.036343e-05
  2.179552e-02    3.074771e-05
  2.209445e-02    3.113460e-05
  2.239338e-02    3.162863e-05
  2.269231e-02    3.228091e-05
  2.299124e-02    3.310548e-05
  2.329017e-02    3.387511e-05
  2.358910e-02    3.486126e-05
  2.388803e-02    3.604185e-05
  2.418696e-02    3.725622e-05
  2.448589e-02    3.844585e-05
  2.478482e-02    3.970450e-05
  2.508375e-02    4.108069e-05
  2.538268e-02    4.226881e-05
  2.568161e-02    4.346078e-05
  2.598054e-02    4.452404e-05
  2.627947e-02    4.518940e-05
  2.657840e-02    4.585023e-05
  2.687733e-02    4.624336e-05
  2.717626e-02    4.640791e-05
  2.747519e-02    4.621702e-05
  2.777412e-02    4.572860e-05
  2.807305e-02    4.493689e-05
  2.837198e-02    4.393087e-05
  2.867092e-02    4.285754e-05
  2.896985e-02    4.151651e-05
  2.926878e-02    4.009862e-05
  2.956771e-02    3.852481e-05
  2.986664e-02    3.700549e-05
  3.016557e-02    3.538515e-05
  3.046450e-02    3.386841e-05
  3.076343e-02    3.242924e-05
  3.106236e-02    3.094640e-05
  3.136129e-02    2.953520e-05
  3.166022e-02    2.827017e-05
  3.195915e-02    2.696438e-05
  3.225808e-02    2.596359e-05
  3.255701e-02    2.498429e-05
  3.285594e-02    2.394215e-05
  3.315487e-02    2.309490e-05
  3.345380e-02    2.227753e-05
  3.375273e-02    2.146021e-05
  3.405166e-02    2.079346e-05
  3.435059e-02    2.017731e-05
  3.464952e-02    1.945185e-05
  3.494845e-02    1.891423e-05
  3.524738e-02    1.846382e-05
  3.554631e-02    1.801429e-05
  3.584524e-02    1.761463e-05
  3.614417e-02    1.720900e-05
  3.644310e-02    1.683472e-05
  3.674204e-02    1.650901e-05
  3.704097e-02    1.620110e-05
  3.733990e-02    1.591320e-05
  3.763883e-02    1.558362e-05
  3.793776e-02    1.535623e-05
  3.823669e-02    1.514557e-05
  3.853562e-02    1.490500e-05
  3.883455e-02    1.464265e-05
  3.913348e-02    1.448741e-05
  3.943241e-02    1.428259e-05
  3.973134e-02    1.414713e-05
  4.003027e-02    1.402518e-05
  4.032920e-02    1.385129e-05
  4.062813e-02    1.374526e-05
  4.092706e-02    1.360900e-05
  4.122599e-02    1.351613e-05
  4.152492e-02    1.345918e-05
  4.182385e-02    1.333009e-05
  4.212278e-02    1.320731e-05
  4.242171e-02    1.312726e-05
  4.272064e-02    1.306165e-05
  4.301957e-02    1.298999e-05
  4.331850e-02    1.289863e-05
  4.361743e-02    1.283572e-05
  4.391636e-02    1.278585e-05
  4.421529e-02    1.274506e-05
  4.451423e-02    1.273401e-05
  4.481316e-02    1.265114e-05
  4.511209e-02    1.260191e-05
  4.541102e-02    1.249422e-05
  4.570995e-02    1.249373e-05
  4.600888e-02    1.247436e-05
  4.630781e-02    1.241981e-05
  4.660674e-02    1.237910e-05
  4.690567e-02    1.227697e-05
  4.720460e-02    1.223427e-05
  4.750353e-02    1.223592e-05
  4.780246e-02    1.221749e-05
  4.810139e-02    1.214071e-05
  4.840032e-02    1.206936e-05
  4.869925e-02    1.200021e-05
  4.899818e-02    1.195686e-05
  4.929711e-02    1.192438e-05
  4.959604e-02    1.187147e-05
  4.989497e-02    1.183526e-05
  5.019390e-02    1.177322e-05
  5.049283e-02    1.172021e-05
  5.079176e-02    1.161337e-05
  5.109069e-02    1.150910e-05
  5.138962e-02    1.153282e-05
  5.168855e-02    1.159547e-05
  5.198748e-02    1.161129e-05
  5.228642e-02    1.152104e-05
  5.258535e-02    1.120881e-05
  5.288428e-02    1.102370e-05
  5.318321e-02    1.093675e-05
  5.348214e-02    1.085735e-05
  5.378107e-02    1.082299e-05
  5.408000e-02    1.072806e-05
  5.437893e-02    1.064242e-05
  5.467786e-02    1.053141e-05
  5.497679e-02    1.049103e-05
  5.527572e-02    1.038381e-05
  5.557465e-02    1.029320e-05
  5.587358e-02    1.021454e-05
  5.617251e-02    1.009686e-05
  5.647144e-02    1.001711e-05
  5.677037e-02    9.992201e-06
  5.706930e-02    9.916001e-06
  5.736823e-02    9.814984e-06
  5.766716e-02    9.781629e-06
  5.796609e-02    9.723880e-06
  5.826502e-02    9.666162e-06
  5.856395e-02    9.613791e-06
  5.886288e-02    9.583818e-06
  5.916181e-02    9.506322e-06
  5.946074e-02    9.486504e-06
  5.975967e-02    9.450886e-06
  6.005861e-02    9.395347e-06
  6.035754e-02    9.403714e-06
  6.065647e-02    9.404572e-06
  6.095540e-02    9.394104e-06
  6.125433e-02    9.431837e-06
  6.155326e-02    9.405951e-06
  6.185219e-02    9.262782e-06
  6.215112e-02    9.136013e-06
  6.245005e-02    9.134889e-06
  6.274898e-02    9.115891e-06
  6.304791e-02    9.056885e-06
  6.334684e-02    9.046565e-06
  6.364577e-02    9.045360e-06
  6.394470e-02    9.019294e-06
  6.424363e-02    8.985405e-06
  6.454256e-02    8.966548e-06
  6.484149e-02    8.985973e-06
  6.514042e-02    8.998474e-06
  6.543935e-02    8.957074e-06
  6.573828e-02    8.951443e-06
  6.603721e-02    8.918585e-06
  6.633614e-02    8.899292e-06
  6.663507e-02    8.901176e-06
  6.693400e-02    8.871859e-06
  6.723293e-02    8.864294e-06
  6.753186e-02    8.883640e-06
  6.783080e-02    8.860555e-06
  6.812973e-02    8.880479e-06
  6.842866e-02    8.872933e-06
  6.872759e-02    8.855312e-06
  6.902652e-02    8.829786e-06
  6.932545e-02    8.838020e-06
  6.962438e-02    8.837705e-06
  6.992331e-02    8.828779e-06
  7.022224e-02    8.818978e-06
  7.052117e-02    8.813556e-06
  7.082010e-02    8.802002e-06
  7.111903e-02    8.814645e-06
  7.141796e-02    8.818891e-06
  7.171689e-02    8.804474e-06
  7.201582e-02    8.773788e-06
  7.231475e-02    8.763405e-06
  7.261368e-02    8.791375e-06
  7.291261e-02    8.800259e-06
  7.321154e-02    8.795419e-06
  7.351047e-02    8.785982e-06
  7.380940e-02    8.755340e-06
  7.410833e-02    8.714391e-06
  7.440726e-02    8.724346e-06
  7.470619e-02    8.753815e-06
  7.500512e-02    8.729860e-06
  7.530405e-02    8.744316e-06
  7.560299e-02    8.777161e-06
  7.590192e-02    8.756706e-06
  7.620085e-02    8.718472e-06
  7.649978e-02    8.737260e-06
  7.679871e-02    8.735147e-06
  7.709764e-02    8.695552e-06
  7.739657e-02    8.660338e-06
  7.769550e-02    8.656784e-06
  7.799443e-02    8.672530e-06
  7.829336e-02    8.663334e-06
  7.859229e-02    8.630333e-06
  7.889122e-02    8.661001e-06
  7.919015e-02    8.668890e-06
  7.948908e-02    8.633590e-06
  7.978801e-02    8.611592e-06
  8.008694e-02    8.586006e-06
  8.038587e-02    8.553368e-06
  8.068480e-02    8.594624e-06
  8.098373e-02    8.651577e-06
  8.128266e-02    8.638986e-06
  8.158159e-02    8.578899e-06
  8.188052e-02    8.555628e-06
  8.217945e-02    8.519568e-06
  8.247838e-02    8.523837e-06
  8.277731e-02    8.537770e-06
  8.307624e-02    8.573591e-06
  8.337518e-02    8.568767e-06
  8.367411e-02    8.534026e-06
  8.397304e-02    8.539672e-06
  8.427197e-02    8.511016e-06
  8.457090e-02    8.527150e-06
  8.486983e-02    8.506442e-06
  8.516876e-02    8.476466e-06
  8.546769e-02    8.473808e-06
  8.576662e-02    8.478012e-06
  8.606555e-02    8.458162e-06
  8.636448e-02    8.391077e-06
  8.666341e-02    8.371698e-06
  8.696234e-02    8.359370e-06
  8.726127e-02    8.352202e-06
  8.756020e-02    8.319178e-06
  8.785913e-02    8.325268e-06
  8.815806e-02    8.340156e-06
  8.845699e-02    8.302011e-06
  8.875592e-02    8.310299e-06
  8.905485e-02    8.298985e-06
  8.935378e-02    8.288360e-06
  8.965271e-02    8.270072e-06
  8.995164e-02    8.228561e-06
  9.025057e-02    8.253704e-06
  9.054950e-02    8.261048e-06
  9.084843e-02    8.239729e-06
  9.114737e-02    8.185463e-06
  9.144630e-02    8.165330e-06
  9.174523e-02    8.178393e-06
  9.204416e-02    8.137540e-06
  9.234309e-02    8.139656e-06
  9.264202e-02    8.147766e-06
  9.294095e-02    8.089239e-06
  9.323988e-02    8.077603e-06
  9.353881e-02    8.056926e-06
  9.383774e-02    8.072128e-06
  9.413667e-02    8.071658e-06
  9.443560e-02    8.080591e-06
  9.473453e-02    8.072962e-06
  9.503346e-02    8.011886e-06
  9.533239e-02    8.003168e-06
  9.563132e-02    7.983778e-06
  9.593025e-02    7.967658e-06
  9.622918e-02    7.999030e-06
  9.652811e-02    8.047994e-06
  9.682704e-02    8.060214e-06
  9.712597e-02    8.026529e-06
  9.742490e-02    8.000388e-06
  9.772383e-02    7.990715e-06
  9.802276e-02    7.972989e-06
  9.832169e-02    7.931040e-06
  9.862062e-02    7.881044e-06
  9.891956e-02    7.861017e-06
  9.921849e-02    7.847829e-06
  9.951742e-02    7.820976e-06
  9.981635e-02    7.771594e-06
  1.001153e-01    7.790570e-06
  1.004142e-01    7.764045e-06
  1.007131e-01    7.727361e-06
  1.010121e-01    7.701018e-06
  1.013110e-01    7.736508e-06
  1.016099e-01    7.727295e-06
  1.019089e-01    7.678653e-06
  1.022078e-01    7.647009e-06
  1.025067e-01    7.614834e-06
  1.028057e-01    7.589743e-06
  1.031046e-01    7.613719e-06
  1.034035e-01    7.600740e-06
  1.037024e-01    7.581953e-06
  1.040014e-01    7.598385e-06
  1.043003e-01    7.548390e-06
  1.045992e-01    7.536824e-06
  1.048982e-01    7.536332e-06
  1.051971e-01    7.522282e-06
  1.054960e-01    7.512853e-06
  1.057950e-01    7.429913e-06
  1.060939e-01    7.461761e-06
  1.063928e-01    7.490351e-06
  1.066917e-01    7.499137e-06
  1.069907e-01    7.471150e-06
  1.072896e-01    7.435885e-06
  1.075885e-01    7.399582e-06
  1.078875e-01    7.408128e-06
  1.081864e-01    7.417344e-06
  1.084853e-01    7.410807e-06
  1.087843e-01    7.404111e-06
  1.090832e-01    7.373675e-06
  1.093821e-01    7.322533e-06
  1.096810e-01    7.322380e-06
  1.099800e-01    7.326809e-06
  1.102789e-01    7.312254e-06
  1.105778e-01    7.304758e-06
  1.108768e-01    7.251873e-06
  1.111757e-01    7.222452e-06
  1.114746e-01    7.219604e-06
  1.117736e-01    7.198204e-06
  1.120725e-01    7.176959e-06
  1.123714e-01    7.133425e-06
  1.126704e-01    7.054339e-06
  1.129693e-01    7.048438e-06
  1.132682e-01    7.024302e-06
  1.135671e-01    6.959096e-06
  1.138661e-01    6.900636e-06
  1.141650e-01    6.875800e-06
  1.144639e-01    6.811769e-06
  1.147629e-01    6.833028e-06
  1.150618e-01    6.831347e-06
  1.153607e-01    6.820292e-06
  1.156597e-01    6.765388e-06
  1.159586e-01    6.745472e-06
  1.162575e-01    6.750256e-06
  1.165564e-01    6.746582e-06
  1.168554e-01    6.744774e-06
  1.171543e-01    6.710709e-06
  1.174532e-01    6.622555e-06
  1.177522e-01    6.692415e-06
  1.180511e-01    6.776731e-06
  1.183500e-01    6.737841e-06
  1.186490e-01    6.627773e-06
  1.189479e-01    6.622949e-06
  1.192468e-01    6.608279e-06
  1.195458e-01    6.533975e-06
  1.198447e-01    6.563222e-06
  1.201436e-01    6.596617e-06
  1.204425e-01    6.547423e-06
  1.207415e-01    6.171000e-06
  1.210404e-01    5.259651e-06
  1.213393e-01    0.000000e+00
  1.216383e-01    0.000000e+00
  1.219372e-01    0.000000e+00
  1.222361e-01    0.000000e+00
  1.225351e-01    0.000000e+00
  1.228340e-01    0.000000e+00
  1.231329e-01    0.000000e+00
  1.234318e-01    0.000000e+00
  1.237308e-01    0.000000e+00
  1.240297e-01    0.000000e+00
  1.243286e-01    0.000000e+00
  1.246276e-01    0.000000e+00
  1.249265e-01    0.000000e+00
  1.252254e-01    0.000000e+00
  1.255244e-01    0.000000e+00
  1.258233e-01    0.000000e+00
  1.261222e-01    0.000000e+00
  1.264212e-01    0.000000e+00
  1.267201e-01    0.000000e+00
  1.270190e-01    0.000000e+00
  1.273179e-01    0.000000e+00
  1.276169e-01    0.000000e+00
  1.279158e-01    0.000000e+00
  1.282147e-01    0.000000e+00
  1.285137e-01    0.000000e+00
  1.288126e-01    0.000000e+00
  1.291115e-01    0.000000e+00
  1.294105e-01    0.000000e+00
  1.297094e-01    0.000000e+00
  1.300083e-01    0.000000e+00
  1.303072e-01    0.000000e+00
  1.306062e-01    0.000000e+00
  1.309051e-01    0.000000e+00
  1.312040e-01    0.000000e+00
  1.315030e-01    0.000000e+00
  1.318019e-01    0.000000e+00
  1.321008e-01    0.000000e+00
  1.323998e-01    0.000000e+00
  1.326987e-01    0.000000e+00
  1.329976e-01    0.000000e+00
  1.332965e-01    0.000000e+00
  1.335955e-01    0.000000e+00
  1.338944e-01    0.000000e+00
  1.341933e-01    0.000000e+00
  1.344923e-01    0.000000e+00
  1.347912e-01    0.000000e+00
  1.350901e-01    0.000000e+00
  1.353891e-01    0.000000e+00
  1.356880e-01    0.000000e+00
  1.359869e-01    0.000000e+00
  1.362859e-01    0.000000e+00
  1.365848e-01    0.000000e+00
  1.368837e-01    0.000000e+00
  1.371826e-01    0.000000e+00
  1.374816e-01    0.000000e+00
  1.377805e-01    0.000000e+00
  1.380794e-01    0.000000e+00
  1.383784e-01    0.000000e+00
  1.386773e-01    0.000000e+00
  1.389762e-01    0.000000e+00
  1.392752e-01    0.000000e+00
  1.395741e-01    0.000000e+00
  1.398730e-01    0.000000e+00
  1.401719e-01    0.000000e+00
  1.404709e-01    0.000000e+00
  1.407698e-01    0.000000e+00
  1.410687e-01    0.000000e+00
  1.413677e-01    0.000000e+00
  1.416666e-01    0.000000e+00
  1.419655e-01    0.000000e+00
  1.422645e-01    0.000000e+00
  1.425634e-01    0.000000e+00
  1.428623e-01    0.000000e+00
  1.431613e-01    0.000000e+00
  1.434602e-01    0.000000e+00
  1.437591e-01    0.000000e+00
  1.440580e-01    0.000000e+00
  1.443570e-01    0.000000e+00
  1.446559e-01    0.000000e+00
  1.449548e-01    0.000000e+00
  1.452538e-01    0.000000e+00
  1.455527e-01    0.000000e+00
  1.458516e-01    0.000000e+00
  1.461506e-01    0.000000e+00
  1.464495e-01    0.000000e+00
  1.467484e-01    0.000000e+00
  1.470473e-01    0.000000e+00
  1.473463e-01    0.000000e+00
  1.476452e-01    0.000000e+00
  1.479441e-01    0.000000e+00
  1.482431e-01    0.000000e+00
  1.485420e-01    0.000000e+00
  1.488409e-01    0.000000e+00
  1.491399e-01    0.000000e+00
  1.494388e-01    0.000000e+00
  1.497377e-01    0.000000e+00
  1.500367e-01    0.000000e+00
  1.503356e-01    0.000000e+00
  1.506345e-01    0.000000e+00
  1.509334e-01    0.000000e+00
  1.512324e-01    0.000000e+00
  1.515313e-01    0.000000e+00
  1.518302e-01    0.000000e+00
  1.521292e-01    0.000000e+00
  1.524281e-01    0.000000e+00
  1.527270e-01    0.000000e+00
  1.530260e-01    0.000000e+00
  1.533249e-01    0.000000e+00
  1.536238e-01    0.000000e+00
