# == pyFAI calibration ==
# Distance Sample to Detector: 2.266 m
# PONI: 5.659e-02, 4.293e-02 m
# Rotations: 0.000000 0.000000 0.000000 rad
# 
# == Fit2d calibration ==
# Distance Sample-beamCenter: 2266.000 mm
# Center: x=249.594, y=329.012 pix
# Tilt: 0.000 deg  TiltPlanRot: 0.000 deg
# 
# Detector Pilatus 300k	 PixelSize= 1.720e-04, 1.720e-04 m
#    Detector has a mask: True 
#    Detector has a dark current: False 
#    detector has a flat field: False 
# 
# Wavelength: 1.27818e-10 m
# Mask applied: user provided
# Dark current applied: False
# Flat field applied: False
# Polarization factor: None
# Normalization factor: 2771493.8000000003
# --> F127_131.775_hexanes_3.594_EtOH_37.322_NaCl_100.000mgml_2_r1d.csv
#        q_A^-1             I 
  4.457554e-03    2.311211e-03
  4.756484e-03    1.818046e-03
  5.055415e-03    1.302545e-03
  5.354345e-03    9.122188e-04
  5.653276e-03    6.973253e-04
  5.952206e-03    1.088456e-03
  6.251136e-03    9.958994e-04
  6.550067e-03    8.694863e-04
  6.848997e-03    7.441481e-04
  7.147927e-03    6.306337e-04
  7.446858e-03    5.377916e-04
  7.745788e-03    4.599352e-04
  8.044719e-03    3.958350e-04
  8.343649e-03    3.467134e-04
  8.642579e-03    3.045896e-04
  8.941510e-03    2.690401e-04
  9.240440e-03    2.379713e-04
  9.539371e-03    2.121813e-04
  9.838301e-03    1.895943e-04
  1.013723e-02    1.688656e-04
  1.043616e-02    1.517776e-04
  1.073509e-02    1.366303e-04
  1.103402e-02    1.231421e-04
  1.133295e-02    1.116165e-04
  1.163188e-02    1.021765e-04
  1.193081e-02    9.317263e-05
  1.222974e-02    8.505789e-05
  1.252867e-02    7.827701e-05
  1.282760e-02    7.161951e-05
  1.312654e-02    6.587970e-05
  1.342547e-02    6.110192e-05
  1.372440e-02    5.641062e-05
  1.402333e-02    5.227767e-05
  1.432226e-02    4.844477e-05
  1.462119e-02    4.488638e-05
  1.492012e-02    4.173879e-05
  1.521905e-02    3.927141e-05
  1.551798e-02    3.712846e-05
  1.581691e-02    3.473681e-05
  1.611584e-02    3.248001e-05
  1.641477e-02    3.040461e-05
  1.671370e-02    2.854970e-05
  1.701263e-02    2.709237e-05
  1.731156e-02    2.562524e-05
  1.761049e-02    2.420378e-05
  1.790942e-02    2.305886e-05
  1.820835e-02    2.188480e-05
  1.850728e-02    2.092863e-05
  1.880621e-02    2.011291e-05
  1.910514e-02    1.899051e-05
  1.940407e-02    1.830661e-05
  1.970300e-02    1.754039e-05
  2.000193e-02    1.687051e-05
  2.030086e-02    1.626488e-05
  2.059979e-02    1.565875e-05
  2.089873e-02    1.520095e-05
  2.119766e-02    1.462646e-05
  2.149659e-02    1.404474e-05
  2.179552e-02    1.358310e-05
  2.209445e-02    1.300109e-05
  2.239338e-02    1.257779e-05
  2.269231e-02    1.229571e-05
  2.299124e-02    1.185160e-05
  2.329017e-02    1.149594e-05
  2.358910e-02    1.118584e-05
  2.388803e-02    1.086676e-05
  2.418696e-02    1.072832e-05
  2.448589e-02    1.047327e-05
  2.478482e-02    1.030443e-05
  2.508375e-02    1.015359e-05
  2.538268e-02    9.902278e-06
  2.568161e-02    9.767379e-06
  2.598054e-02    9.626619e-06
  2.627947e-02    9.516093e-06
  2.657840e-02    9.312219e-06
  2.687733e-02    9.138842e-06
  2.717626e-02    8.979229e-06
  2.747519e-02    8.851067e-06
  2.777412e-02    8.731783e-06
  2.807305e-02    8.631651e-06
  2.837198e-02    8.478968e-06
  2.867092e-02    8.353074e-06
  2.896985e-02    8.207451e-06
  2.926878e-02    8.136716e-06
  2.956771e-02    8.087619e-06
  2.986664e-02    8.045739e-06
  3.016557e-02    7.983162e-06
  3.046450e-02    7.864068e-06
  3.076343e-02    7.734050e-06
  3.106236e-02    7.618815e-06
  3.136129e-02    7.531123e-06
  3.166022e-02    7.460277e-06
  3.195915e-02    7.424023e-06
  3.225808e-02    7.222567e-06
  3.255701e-02    7.191263e-06
  3.285594e-02    7.091204e-06
  3.315487e-02    6.978767e-06
  3.345380e-02    6.921343e-06
  3.375273e-02    6.871242e-06
  3.405166e-02    6.801716e-06
  3.435059e-02    6.662790e-06
  3.464952e-02    6.602684e-06
  3.494845e-02    6.571075e-06
  3.524738e-02    6.547472e-06
  3.554631e-02    6.456294e-06
  3.584524e-02    6.466612e-06
  3.614417e-02    6.368682e-06
  3.644310e-02    6.285543e-06
  3.674204e-02    6.239306e-06
  3.704097e-02    6.180776e-06
  3.733990e-02    6.106657e-06
  3.763883e-02    6.033606e-06
  3.793776e-02    6.040411e-06
  3.823669e-02    5.972866e-06
  3.853562e-02    5.907039e-06
  3.883455e-02    5.875984e-06
  3.913348e-02    5.894746e-06
  3.943241e-02    5.818564e-06
  3.973134e-02    5.708035e-06
  4.003027e-02    5.619396e-06
  4.032920e-02    5.611851e-06
  4.062813e-02    5.634656e-06
  4.092706e-02    5.631387e-06
  4.122599e-02    5.571487e-06
  4.152492e-02    5.514909e-06
  4.182385e-02    5.462277e-06
  4.212278e-02    5.452915e-06
  4.242171e-02    5.412028e-06
  4.272064e-02    5.381289e-06
  4.301957e-02    5.386872e-06
  4.331850e-02    5.413440e-06
  4.361743e-02    5.355005e-06
  4.391636e-02    5.259119e-06
  4.421529e-02    5.275081e-06
  4.451423e-02    5.314051e-06
  4.481316e-02    5.260940e-06
  4.511209e-02    5.252969e-06
  4.541102e-02    5.244142e-06
  4.570995e-02    5.275287e-06
  4.600888e-02    5.254090e-06
  4.630781e-02    5.280716e-06
  4.660674e-02    5.239738e-06
  4.690567e-02    5.201915e-06
  4.720460e-02    5.180511e-06
  4.750353e-02    5.228455e-06
  4.780246e-02    5.245014e-06
  4.810139e-02    5.246323e-06
  4.840032e-02    5.245074e-06
  4.869925e-02    5.218952e-06
  4.899818e-02    5.204734e-06
  4.929711e-02    5.209450e-06
  4.959604e-02    5.296508e-06
  4.989497e-02    5.241897e-06
  5.019390e-02    5.211259e-06
  5.049283e-02    5.181520e-06
  5.079176e-02    5.189308e-06
  5.109069e-02    5.236670e-06
  5.138962e-02    5.261176e-06
  5.168855e-02    5.336223e-06
  5.198748e-02    5.476345e-06
  5.228642e-02    5.515880e-06
  5.258535e-02    5.259717e-06
  5.288428e-02    5.134196e-06
  5.318321e-02    5.154929e-06
  5.348214e-02    5.128372e-06
  5.378107e-02    5.125010e-06
  5.408000e-02    5.089614e-06
  5.437893e-02    5.130921e-06
  5.467786e-02    5.137233e-06
  5.497679e-02    5.097559e-06
  5.527572e-02    5.075681e-06
  5.557465e-02    5.081150e-06
  5.587358e-02    5.115788e-06
  5.617251e-02    5.156965e-06
  5.647144e-02    5.127158e-06
  5.677037e-02    5.100732e-06
  5.706930e-02    5.078020e-06
  5.736823e-02    5.060529e-06
  5.766716e-02    5.073043e-06
  5.796609e-02    5.104841e-06
  5.826502e-02    5.138313e-06
  5.856395e-02    5.110645e-06
  5.886288e-02    5.063881e-06
  5.916181e-02    5.092990e-06
  5.946074e-02    5.137221e-06
  5.975967e-02    5.119938e-06
  6.005861e-02    5.162501e-06
  6.035754e-02    5.191653e-06
  6.065647e-02    5.214570e-06
  6.095540e-02    5.284548e-06
  6.125433e-02    5.394909e-06
  6.155326e-02    5.404494e-06
  6.185219e-02    5.271319e-06
  6.215112e-02    5.220673e-06
  6.245005e-02    5.220257e-06
  6.274898e-02    5.202333e-06
  6.304791e-02    5.218980e-06
  6.334684e-02    5.255645e-06
  6.364577e-02    5.186952e-06
  6.394470e-02    5.180696e-06
  6.424363e-02    5.228922e-06
  6.454256e-02    5.196505e-06
  6.484149e-02    5.235232e-06
  6.514042e-02    5.214498e-06
  6.543935e-02    5.264886e-06
  6.573828e-02    5.275133e-06
  6.603721e-02    5.284027e-06
  6.633614e-02    5.277470e-06
  6.663507e-02    5.282158e-06
  6.693400e-02    5.342631e-06
  6.723293e-02    5.400042e-06
  6.753186e-02    5.395605e-06
  6.783080e-02    5.286661e-06
  6.812973e-02    5.271500e-06
  6.842866e-02    5.283030e-06
  6.872759e-02    5.336682e-06
  6.902652e-02    5.386817e-06
  6.932545e-02    5.396319e-06
  6.962438e-02    5.344812e-06
  6.992331e-02    5.364928e-06
  7.022224e-02    5.388593e-06
  7.052117e-02    5.351101e-06
  7.082010e-02    5.414896e-06
  7.111903e-02    5.415575e-06
  7.141796e-02    5.418794e-06
  7.171689e-02    5.440680e-06
  7.201582e-02    5.397364e-06
  7.231475e-02    5.416379e-06
  7.261368e-02    5.433328e-06
  7.291261e-02    5.472141e-06
  7.321154e-02    5.467746e-06
  7.351047e-02    5.443915e-06
  7.380940e-02    5.428021e-06
  7.410833e-02    5.441962e-06
  7.440726e-02    5.451941e-06
  7.470619e-02    5.480882e-06
  7.500512e-02    5.513814e-06
  7.530405e-02    5.452582e-06
  7.560299e-02    5.443328e-06
  7.590192e-02    5.425305e-06
  7.620085e-02    5.430112e-06
  7.649978e-02    5.473009e-06
  7.679871e-02    5.491157e-06
  7.709764e-02    5.497880e-06
  7.739657e-02    5.497202e-06
  7.769550e-02    5.463798e-06
  7.799443e-02    5.420318e-06
  7.829336e-02    5.436241e-06
  7.859229e-02    5.472250e-06
  7.889122e-02    5.416508e-06
  7.919015e-02    5.435843e-06
  7.948908e-02    5.493780e-06
  7.978801e-02    5.433031e-06
  8.008694e-02    5.443971e-06
  8.038587e-02    5.427647e-06
  8.068480e-02    5.420491e-06
  8.098373e-02    5.403828e-06
  8.128266e-02    5.419478e-06
  8.158159e-02    5.391243e-06
  8.188052e-02    5.386887e-06
  8.217945e-02    5.345164e-06
  8.247838e-02    5.389654e-06
  8.277731e-02    5.443536e-06
  8.307624e-02    5.338820e-06
  8.337518e-02    5.314014e-06
  8.367411e-02    5.320126e-06
  8.397304e-02    5.311172e-06
  8.427197e-02    5.364422e-06
  8.457090e-02    5.389979e-06
  8.486983e-02    5.359304e-06
  8.516876e-02    5.330165e-06
  8.546769e-02    5.343169e-06
  8.576662e-02    5.358741e-06
  8.606555e-02    5.324237e-06
  8.636448e-02    5.331494e-06
  8.666341e-02    5.285538e-06
  8.696234e-02    5.315979e-06
  8.726127e-02    5.316514e-06
  8.756020e-02    5.324274e-06
  8.785913e-02    5.318414e-06
  8.815806e-02    5.265585e-06
  8.845699e-02    5.222208e-06
  8.875592e-02    5.237924e-06
  8.905485e-02    5.227275e-06
  8.935378e-02    5.203548e-06
  8.965271e-02    5.161881e-06
  8.995164e-02    5.129762e-06
  9.025057e-02    5.103156e-06
  9.054950e-02    5.080655e-06
  9.084843e-02    5.077346e-06
  9.114737e-02    5.069548e-06
  9.144630e-02    5.114838e-06
  9.174523e-02    5.093770e-06
  9.204416e-02    5.041068e-06
  9.234309e-02    5.056839e-06
  9.264202e-02    5.112089e-06
  9.294095e-02    5.096619e-06
  9.323988e-02    5.026826e-06
  9.353881e-02    5.033541e-06
  9.383774e-02    5.034524e-06
  9.413667e-02    5.006372e-06
  9.443560e-02    4.992897e-06
  9.473453e-02    5.023257e-06
  9.503346e-02    5.038053e-06
  9.533239e-02    4.985798e-06
  9.563132e-02    4.953986e-06
  9.593025e-02    4.989964e-06
  9.622918e-02    4.986258e-06
  9.652811e-02    5.042361e-06
  9.682704e-02    5.061886e-06
  9.712597e-02    5.057916e-06
  9.742490e-02    5.043916e-06
  9.772383e-02    4.992817e-06
  9.802276e-02    4.929555e-06
  9.832169e-02    4.868779e-06
  9.862062e-02    4.862399e-06
  9.891956e-02    4.878734e-06
  9.921849e-02    4.836992e-06
  9.951742e-02    4.798162e-06
  9.981635e-02    4.874737e-06
  1.001153e-01    4.889333e-06
  1.004142e-01    4.846806e-06
  1.007131e-01    4.786241e-06
  1.010121e-01    4.762472e-06
  1.013110e-01    4.770185e-06
  1.016099e-01    4.752848e-06
  1.019089e-01    4.715312e-06
  1.022078e-01    4.713429e-06
  1.025067e-01    4.725166e-06
  1.028057e-01    4.707892e-06
  1.031046e-01    4.703581e-06
  1.034035e-01    4.672162e-06
  1.037024e-01    4.648281e-06
  1.040014e-01    4.700233e-06
  1.043003e-01    4.788968e-06
  1.045992e-01    4.723175e-06
  1.048982e-01    4.670933e-06
  1.051971e-01    4.667118e-06
  1.054960e-01    4.678445e-06
  1.057950e-01    4.708291e-06
  1.060939e-01    4.674226e-06
  1.063928e-01    4.636819e-06
  1.066917e-01    4.638548e-06
  1.069907e-01    4.611095e-06
  1.072896e-01    4.658598e-06
  1.075885e-01    4.674038e-06
  1.078875e-01    4.634609e-06
  1.081864e-01    4.610376e-06
  1.084853e-01    4.572512e-06
  1.087843e-01    4.605584e-06
  1.090832e-01    4.636074e-06
  1.093821e-01    4.550950e-06
  1.096810e-01    4.491726e-06
  1.099800e-01    4.552418e-06
  1.102789e-01    4.517243e-06
  1.105778e-01    4.420936e-06
  1.108768e-01    4.475608e-06
  1.111757e-01    4.430501e-06
  1.114746e-01    4.426065e-06
  1.117736e-01    4.380812e-06
  1.120725e-01    4.373933e-06
  1.123714e-01    4.399628e-06
  1.126704e-01    4.476876e-06
  1.129693e-01    4.454389e-06
  1.132682e-01    4.327290e-06
  1.135671e-01    4.330278e-06
  1.138661e-01    4.340058e-06
  1.141650e-01    4.364081e-06
  1.144639e-01    4.389297e-06
  1.147629e-01    4.360042e-06
  1.150618e-01    4.329923e-06
  1.153607e-01    4.293540e-06
  1.156597e-01    4.315313e-06
  1.159586e-01    4.268663e-06
  1.162575e-01    4.238010e-06
  1.165564e-01    4.272571e-06
  1.168554e-01    4.235554e-06
  1.171543e-01    4.249322e-06
  1.174532e-01    4.332296e-06
  1.177522e-01    4.320669e-06
  1.180511e-01    4.310711e-06
  1.183500e-01    4.331257e-06
  1.186490e-01    4.259709e-06
  1.189479e-01    4.273907e-06
  1.192468e-01    4.336282e-06
  1.195458e-01    4.430397e-06
  1.198447e-01    4.420345e-06
  1.201436e-01    4.363392e-06
  1.204425e-01    4.203688e-06
  1.207415e-01    4.208174e-06
  1.210404e-01    4.333717e-06
  1.213393e-01    0.000000e+00
  1.216383e-01    0.000000e+00
  1.219372e-01    0.000000e+00
  1.222361e-01    0.000000e+00
  1.225351e-01    0.000000e+00
  1.228340e-01    0.000000e+00
  1.231329e-01    0.000000e+00
  1.234318e-01    0.000000e+00
  1.237308e-01    0.000000e+00
  1.240297e-01    0.000000e+00
  1.243286e-01    0.000000e+00
  1.246276e-01    0.000000e+00
  1.249265e-01    0.000000e+00
  1.252254e-01    0.000000e+00
  1.255244e-01    0.000000e+00
  1.258233e-01    0.000000e+00
  1.261222e-01    0.000000e+00
  1.264212e-01    0.000000e+00
  1.267201e-01    0.000000e+00
  1.270190e-01    0.000000e+00
  1.273179e-01    0.000000e+00
  1.276169e-01    0.000000e+00
  1.279158e-01    0.000000e+00
  1.282147e-01    0.000000e+00
  1.285137e-01    0.000000e+00
  1.288126e-01    0.000000e+00
  1.291115e-01    0.000000e+00
  1.294105e-01    0.000000e+00
  1.297094e-01    0.000000e+00
  1.300083e-01    0.000000e+00
  1.303072e-01    0.000000e+00
  1.306062e-01    0.000000e+00
  1.309051e-01    0.000000e+00
  1.312040e-01    0.000000e+00
  1.315030e-01    0.000000e+00
  1.318019e-01    0.000000e+00
  1.321008e-01    0.000000e+00
  1.323998e-01    0.000000e+00
  1.326987e-01    0.000000e+00
  1.329976e-01    0.000000e+00
  1.332965e-01    0.000000e+00
  1.335955e-01    0.000000e+00
  1.338944e-01    0.000000e+00
  1.341933e-01    0.000000e+00
  1.344923e-01    0.000000e+00
  1.347912e-01    0.000000e+00
  1.350901e-01    0.000000e+00
  1.353891e-01    0.000000e+00
  1.356880e-01    0.000000e+00
  1.359869e-01    0.000000e+00
  1.362859e-01    0.000000e+00
  1.365848e-01    0.000000e+00
  1.368837e-01    0.000000e+00
  1.371826e-01    0.000000e+00
  1.374816e-01    0.000000e+00
  1.377805e-01    0.000000e+00
  1.380794e-01    0.000000e+00
  1.383784e-01    0.000000e+00
  1.386773e-01    0.000000e+00
  1.389762e-01    0.000000e+00
  1.392752e-01    0.000000e+00
  1.395741e-01    0.000000e+00
  1.398730e-01    0.000000e+00
  1.401719e-01    0.000000e+00
  1.404709e-01    0.000000e+00
  1.407698e-01    0.000000e+00
  1.410687e-01    0.000000e+00
  1.413677e-01    0.000000e+00
  1.416666e-01    0.000000e+00
  1.419655e-01    0.000000e+00
  1.422645e-01    0.000000e+00
  1.425634e-01    0.000000e+00
  1.428623e-01    0.000000e+00
  1.431613e-01    0.000000e+00
  1.434602e-01    0.000000e+00
  1.437591e-01    0.000000e+00
  1.440580e-01    0.000000e+00
  1.443570e-01    0.000000e+00
  1.446559e-01    0.000000e+00
  1.449548e-01    0.000000e+00
  1.452538e-01    0.000000e+00
  1.455527e-01    0.000000e+00
  1.458516e-01    0.000000e+00
  1.461506e-01    0.000000e+00
  1.464495e-01    0.000000e+00
  1.467484e-01    0.000000e+00
  1.470473e-01    0.000000e+00
  1.473463e-01    0.000000e+00
  1.476452e-01    0.000000e+00
  1.479441e-01    0.000000e+00
  1.482431e-01    0.000000e+00
  1.485420e-01    0.000000e+00
  1.488409e-01    0.000000e+00
  1.491399e-01    0.000000e+00
  1.494388e-01    0.000000e+00
  1.497377e-01    0.000000e+00
  1.500367e-01    0.000000e+00
  1.503356e-01    0.000000e+00
  1.506345e-01    0.000000e+00
  1.509334e-01    0.000000e+00
  1.512324e-01    0.000000e+00
  1.515313e-01    0.000000e+00
  1.518302e-01    0.000000e+00
  1.521292e-01    0.000000e+00
  1.524281e-01    0.000000e+00
  1.527270e-01    0.000000e+00
  1.530260e-01    0.000000e+00
  1.533249e-01    0.000000e+00
  1.536238e-01    0.000000e+00
