# == pyFAI calibration ==
# Distance Sample to Detector: 2.266 m
# PONI: 5.659e-02, 4.293e-02 m
# Rotations: 0.000000 0.000000 0.000000 rad
# 
# == Fit2d calibration ==
# Distance Sample-beamCenter: 2266.000 mm
# Center: x=249.594, y=329.012 pix
# Tilt: 0.000 deg  TiltPlanRot: 0.000 deg
# 
# Detector Pilatus 300k	 PixelSize= 1.720e-04, 1.720e-04 m
#    Detector has a mask: True 
#    Detector has a dark current: False 
#    detector has a flat field: False 
# 
# Wavelength: 1.27818e-10 m
# Mask applied: user provided
# Dark current applied: False
# Flat field applied: False
# Polarization factor: None
# Normalization factor: 21892717.0
# --> F127_53.948_hexanes_57.801_NaCl_0.000mgml_0_r1d.csv
#        q_A^-1             I 
  4.457554e-03    1.460813e-03
  4.756484e-03    1.143222e-03
  5.055415e-03    8.194917e-04
  5.354345e-03    5.795315e-04
  5.653276e-03    4.520506e-04
  5.952206e-03    7.659218e-04
  6.251136e-03    6.940536e-04
  6.550067e-03    6.001998e-04
  6.848997e-03    5.090457e-04
  7.147927e-03    4.293419e-04
  7.446858e-03    3.660905e-04
  7.745788e-03    3.130018e-04
  8.044719e-03    2.691008e-04
  8.343649e-03    2.347524e-04
  8.642579e-03    2.053650e-04
  8.941510e-03    1.807975e-04
  9.240440e-03    1.601206e-04
  9.539371e-03    1.421706e-04
  9.838301e-03    1.266737e-04
  1.013723e-02    1.136129e-04
  1.043616e-02    1.020056e-04
  1.073509e-02    9.145264e-05
  1.103402e-02    8.291719e-05
  1.133295e-02    7.539247e-05
  1.163188e-02    6.878784e-05
  1.193081e-02    6.292852e-05
  1.222974e-02    5.764058e-05
  1.252867e-02    5.292157e-05
  1.282760e-02    4.870438e-05
  1.312654e-02    4.500511e-05
  1.342547e-02    4.177049e-05
  1.372440e-02    3.874746e-05
  1.402333e-02    3.588953e-05
  1.432226e-02    3.341258e-05
  1.462119e-02    3.123664e-05
  1.492012e-02    2.930932e-05
  1.521905e-02    2.743614e-05
  1.551798e-02    2.578696e-05
  1.581691e-02    2.428405e-05
  1.611584e-02    2.279353e-05
  1.641477e-02    2.145855e-05
  1.671370e-02    2.030979e-05
  1.701263e-02    1.927687e-05
  1.731156e-02    1.832684e-05
  1.761049e-02    1.742897e-05
  1.790942e-02    1.659893e-05
  1.820835e-02    1.584463e-05
  1.850728e-02    1.517628e-05
  1.880621e-02    1.446562e-05
  1.910514e-02    1.389731e-05
  1.940407e-02    1.332679e-05
  1.970300e-02    1.279516e-05
  2.000193e-02    1.231727e-05
  2.030086e-02    1.185427e-05
  2.059979e-02    1.142393e-05
  2.089873e-02    1.106322e-05
  2.119766e-02    1.071788e-05
  2.149659e-02    1.036579e-05
  2.179552e-02    1.005956e-05
  2.209445e-02    9.755058e-06
  2.239338e-02    9.469045e-06
  2.269231e-02    9.216410e-06
  2.299124e-02    8.990020e-06
  2.329017e-02    8.744581e-06
  2.358910e-02    8.555995e-06
  2.388803e-02    8.338699e-06
  2.418696e-02    8.149099e-06
  2.448589e-02    7.965055e-06
  2.478482e-02    7.766381e-06
  2.508375e-02    7.599127e-06
  2.538268e-02    7.484155e-06
  2.568161e-02    7.382703e-06
  2.598054e-02    7.207695e-06
  2.627947e-02    7.062310e-06
  2.657840e-02    6.965027e-06
  2.687733e-02    6.851645e-06
  2.717626e-02    6.754476e-06
  2.747519e-02    6.661240e-06
  2.777412e-02    6.571663e-06
  2.807305e-02    6.483448e-06
  2.837198e-02    6.382821e-06
  2.867092e-02    6.306940e-06
  2.896985e-02    6.222825e-06
  2.926878e-02    6.133224e-06
  2.956771e-02    6.058516e-06
  2.986664e-02    6.005828e-06
  3.016557e-02    5.915775e-06
  3.046450e-02    5.866581e-06
  3.076343e-02    5.786858e-06
  3.106236e-02    5.745453e-06
  3.136129e-02    5.697263e-06
  3.166022e-02    5.618574e-06
  3.195915e-02    5.588721e-06
  3.225808e-02    5.542913e-06
  3.255701e-02    5.474810e-06
  3.285594e-02    5.427084e-06
  3.315487e-02    5.394230e-06
  3.345380e-02    5.347202e-06
  3.375273e-02    5.300960e-06
  3.405166e-02    5.208251e-06
  3.435059e-02    5.172430e-06
  3.464952e-02    5.166489e-06
  3.494845e-02    5.136326e-06
  3.524738e-02    5.088375e-06
  3.554631e-02    5.035587e-06
  3.584524e-02    4.980072e-06
  3.614417e-02    4.938491e-06
  3.644310e-02    4.909678e-06
  3.674204e-02    4.860378e-06
  3.704097e-02    4.824017e-06
  3.733990e-02    4.790994e-06
  3.763883e-02    4.777398e-06
  3.793776e-02    4.726952e-06
  3.823669e-02    4.663366e-06
  3.853562e-02    4.646078e-06
  3.883455e-02    4.640529e-06
  3.913348e-02    4.602930e-06
  3.943241e-02    4.594625e-06
  3.973134e-02    4.569461e-06
  4.003027e-02    4.553100e-06
  4.032920e-02    4.515015e-06
  4.062813e-02    4.474399e-06
  4.092706e-02    4.466939e-06
  4.122599e-02    4.436422e-06
  4.152492e-02    4.432783e-06
  4.182385e-02    4.417006e-06
  4.212278e-02    4.399516e-06
  4.242171e-02    4.380934e-06
  4.272064e-02    4.386469e-06
  4.301957e-02    4.366428e-06
  4.331850e-02    4.337645e-06
  4.361743e-02    4.335987e-06
  4.391636e-02    4.329826e-06
  4.421529e-02    4.327513e-06
  4.451423e-02    4.301880e-06
  4.481316e-02    4.290736e-06
  4.511209e-02    4.279934e-06
  4.541102e-02    4.276869e-06
  4.570995e-02    4.278070e-06
  4.600888e-02    4.270183e-06
  4.630781e-02    4.241368e-06
  4.660674e-02    4.248040e-06
  4.690567e-02    4.252381e-06
  4.720460e-02    4.255003e-06
  4.750353e-02    4.272857e-06
  4.780246e-02    4.248060e-06
  4.810139e-02    4.232440e-06
  4.840032e-02    4.240419e-06
  4.869925e-02    4.233661e-06
  4.899818e-02    4.216402e-06
  4.929711e-02    4.235148e-06
  4.959604e-02    4.238811e-06
  4.989497e-02    4.234265e-06
  5.019390e-02    4.231940e-06
  5.049283e-02    4.233959e-06
  5.079176e-02    4.239145e-06
  5.109069e-02    4.251002e-06
  5.138962e-02    4.260922e-06
  5.168855e-02    4.317743e-06
  5.198748e-02    4.394022e-06
  5.228642e-02    4.338036e-06
  5.258535e-02    4.240712e-06
  5.288428e-02    4.221979e-06
  5.318321e-02    4.198462e-06
  5.348214e-02    4.195417e-06
  5.378107e-02    4.215921e-06
  5.408000e-02    4.218823e-06
  5.437893e-02    4.220569e-06
  5.467786e-02    4.221031e-06
  5.497679e-02    4.213915e-06
  5.527572e-02    4.214020e-06
  5.557465e-02    4.205424e-06
  5.587358e-02    4.202912e-06
  5.617251e-02    4.196662e-06
  5.647144e-02    4.215342e-06
  5.677037e-02    4.240798e-06
  5.706930e-02    4.224661e-06
  5.736823e-02    4.231821e-06
  5.766716e-02    4.232153e-06
  5.796609e-02    4.236683e-06
  5.826502e-02    4.250360e-06
  5.856395e-02    4.242701e-06
  5.886288e-02    4.241763e-06
  5.916181e-02    4.261079e-06
  5.946074e-02    4.290161e-06
  5.975967e-02    4.269392e-06
  6.005861e-02    4.285444e-06
  6.035754e-02    4.296033e-06
  6.065647e-02    4.287640e-06
  6.095540e-02    4.322279e-06
  6.125433e-02    4.372924e-06
  6.155326e-02    4.396270e-06
  6.185219e-02    4.341032e-06
  6.215112e-02    4.313791e-06
  6.245005e-02    4.327986e-06
  6.274898e-02    4.312084e-06
  6.304791e-02    4.310682e-06
  6.334684e-02    4.333903e-06
  6.364577e-02    4.317571e-06
  6.394470e-02    4.312570e-06
  6.424363e-02    4.326675e-06
  6.454256e-02    4.325522e-06
  6.484149e-02    4.339480e-06
  6.514042e-02    4.368982e-06
  6.543935e-02    4.365289e-06
  6.573828e-02    4.363113e-06
  6.603721e-02    4.362015e-06
  6.633614e-02    4.371294e-06
  6.663507e-02    4.371516e-06
  6.693400e-02    4.376080e-06
  6.723293e-02    4.376269e-06
  6.753186e-02    4.385968e-06
  6.783080e-02    4.403017e-06
  6.812973e-02    4.413896e-06
  6.842866e-02    4.413675e-06
  6.872759e-02    4.409366e-06
  6.902652e-02    4.431668e-06
  6.932545e-02    4.436892e-06
  6.962438e-02    4.429241e-06
  6.992331e-02    4.426487e-06
  7.022224e-02    4.435516e-06
  7.052117e-02    4.449716e-06
  7.082010e-02    4.465477e-06
  7.111903e-02    4.443722e-06
  7.141796e-02    4.437648e-06
  7.171689e-02    4.463128e-06
  7.201582e-02    4.463955e-06
  7.231475e-02    4.460283e-06
  7.261368e-02    4.458733e-06
  7.291261e-02    4.453772e-06
  7.321154e-02    4.460818e-06
  7.351047e-02    4.477804e-06
  7.380940e-02    4.488676e-06
  7.410833e-02    4.467985e-06
  7.440726e-02    4.464571e-06
  7.470619e-02    4.469775e-06
  7.500512e-02    4.463805e-06
  7.530405e-02    4.466290e-06
  7.560299e-02    4.459590e-06
  7.590192e-02    4.454754e-06
  7.620085e-02    4.452963e-06
  7.649978e-02    4.469549e-06
  7.679871e-02    4.482149e-06
  7.709764e-02    4.474507e-06
  7.739657e-02    4.461396e-06
  7.769550e-02    4.460763e-06
  7.799443e-02    4.458640e-06
  7.829336e-02    4.442594e-06
  7.859229e-02    4.441338e-06
  7.889122e-02    4.454219e-06
  7.919015e-02    4.456477e-06
  7.948908e-02    4.436299e-06
  7.978801e-02    4.449762e-06
  8.008694e-02    4.452713e-06
  8.038587e-02    4.429393e-06
  8.068480e-02    4.433417e-06
  8.098373e-02    4.444410e-06
  8.128266e-02    4.426903e-06
  8.158159e-02    4.430829e-06
  8.188052e-02    4.415028e-06
  8.217945e-02    4.399043e-06
  8.247838e-02    4.407406e-06
  8.277731e-02    4.418385e-06
  8.307624e-02    4.402795e-06
  8.337518e-02    4.378511e-06
  8.367411e-02    4.360916e-06
  8.397304e-02    4.367854e-06
  8.427197e-02    4.379344e-06
  8.457090e-02    4.380155e-06
  8.486983e-02    4.367175e-06
  8.516876e-02    4.350971e-06
  8.546769e-02    4.340920e-06
  8.576662e-02    4.327671e-06
  8.606555e-02    4.332959e-06
  8.636448e-02    4.342989e-06
  8.666341e-02    4.327062e-06
  8.696234e-02    4.326173e-06
  8.726127e-02    4.324254e-06
  8.756020e-02    4.308776e-06
  8.785913e-02    4.297614e-06
  8.815806e-02    4.285754e-06
  8.845699e-02    4.289246e-06
  8.875592e-02    4.281148e-06
  8.905485e-02    4.276107e-06
  8.935378e-02    4.257434e-06
  8.965271e-02    4.244264e-06
  8.995164e-02    4.250246e-06
  9.025057e-02    4.245288e-06
  9.054950e-02    4.234930e-06
  9.084843e-02    4.235661e-06
  9.114737e-02    4.226245e-06
  9.144630e-02    4.214096e-06
  9.174523e-02    4.203367e-06
  9.204416e-02    4.206291e-06
  9.234309e-02    4.194301e-06
  9.264202e-02    4.185039e-06
  9.294095e-02    4.176140e-06
  9.323988e-02    4.175683e-06
  9.353881e-02    4.164833e-06
  9.383774e-02    4.149505e-06
  9.413667e-02    4.148721e-06
  9.443560e-02    4.150630e-06
  9.473453e-02    4.141911e-06
  9.503346e-02    4.133815e-06
  9.533239e-02    4.138498e-06
  9.563132e-02    4.137722e-06
  9.593025e-02    4.141717e-06
  9.622918e-02    4.132663e-06
  9.652811e-02    4.121949e-06
  9.682704e-02    4.127033e-06
  9.712597e-02    4.124114e-06
  9.742490e-02    4.129694e-06
  9.772383e-02    4.116285e-06
  9.802276e-02    4.087558e-06
  9.832169e-02    4.062078e-06
  9.862062e-02    4.057721e-06
  9.891956e-02    4.033676e-06
  9.921849e-02    4.012791e-06
  9.951742e-02    4.013694e-06
  9.981635e-02    4.008420e-06
  1.001153e-01    4.015668e-06
  1.004142e-01    4.000731e-06
  1.007131e-01    3.974276e-06
  1.010121e-01    3.957861e-06
  1.013110e-01    3.961467e-06
  1.016099e-01    3.964791e-06
  1.019089e-01    3.957697e-06
  1.022078e-01    3.943024e-06
  1.025067e-01    3.944051e-06
  1.028057e-01    3.935566e-06
  1.031046e-01    3.942668e-06
  1.034035e-01    3.929201e-06
  1.037024e-01    3.903328e-06
  1.040014e-01    3.901715e-06
  1.043003e-01    3.888519e-06
  1.045992e-01    3.876871e-06
  1.048982e-01    3.884603e-06
  1.051971e-01    3.894813e-06
  1.054960e-01    3.877734e-06
  1.057950e-01    3.881391e-06
  1.060939e-01    3.884527e-06
  1.063928e-01    3.863615e-06
  1.066917e-01    3.862865e-06
  1.069907e-01    3.845296e-06
  1.072896e-01    3.840134e-06
  1.075885e-01    3.817879e-06
  1.078875e-01    3.804395e-06
  1.081864e-01    3.822710e-06
  1.084853e-01    3.831770e-06
  1.087843e-01    3.830079e-06
  1.090832e-01    3.813222e-06
  1.093821e-01    3.791977e-06
  1.096810e-01    3.783430e-06
  1.099800e-01    3.776265e-06
  1.102789e-01    3.758180e-06
  1.105778e-01    3.746944e-06
  1.108768e-01    3.715016e-06
  1.111757e-01    3.708754e-06
  1.114746e-01    3.717246e-06
  1.117736e-01    3.704092e-06
  1.120725e-01    3.697241e-06
  1.123714e-01    3.715235e-06
  1.126704e-01    3.691688e-06
  1.129693e-01    3.665929e-06
  1.132682e-01    3.639257e-06
  1.135671e-01    3.600522e-06
  1.138661e-01    3.597904e-06
  1.141650e-01    3.575935e-06
  1.144639e-01    3.556939e-06
  1.147629e-01    3.575729e-06
  1.150618e-01    3.567059e-06
  1.153607e-01    3.575698e-06
  1.156597e-01    3.592335e-06
  1.159586e-01    3.558122e-06
  1.162575e-01    3.555444e-06
  1.165564e-01    3.558530e-06
  1.168554e-01    3.565979e-06
  1.171543e-01    3.553451e-06
  1.174532e-01    3.542531e-06
  1.177522e-01    3.544130e-06
  1.180511e-01    3.544871e-06
  1.183500e-01    3.523952e-06
  1.186490e-01    3.520826e-06
  1.189479e-01    3.529789e-06
  1.192468e-01    3.499234e-06
  1.195458e-01    3.548028e-06
  1.198447e-01    3.588357e-06
  1.201436e-01    3.518854e-06
  1.204425e-01    3.419379e-06
  1.207415e-01    3.344286e-06
  1.210404e-01    3.474619e-06
  1.213393e-01    0.000000e+00
  1.216383e-01    0.000000e+00
  1.219372e-01    0.000000e+00
  1.222361e-01    0.000000e+00
  1.225351e-01    0.000000e+00
  1.228340e-01    0.000000e+00
  1.231329e-01    0.000000e+00
  1.234318e-01    0.000000e+00
  1.237308e-01    0.000000e+00
  1.240297e-01    0.000000e+00
  1.243286e-01    0.000000e+00
  1.246276e-01    0.000000e+00
  1.249265e-01    0.000000e+00
  1.252254e-01    0.000000e+00
  1.255244e-01    0.000000e+00
  1.258233e-01    0.000000e+00
  1.261222e-01    0.000000e+00
  1.264212e-01    0.000000e+00
  1.267201e-01    0.000000e+00
  1.270190e-01    0.000000e+00
  1.273179e-01    0.000000e+00
  1.276169e-01    0.000000e+00
  1.279158e-01    0.000000e+00
  1.282147e-01    0.000000e+00
  1.285137e-01    0.000000e+00
  1.288126e-01    0.000000e+00
  1.291115e-01    0.000000e+00
  1.294105e-01    0.000000e+00
  1.297094e-01    0.000000e+00
  1.300083e-01    0.000000e+00
  1.303072e-01    0.000000e+00
  1.306062e-01    0.000000e+00
  1.309051e-01    0.000000e+00
  1.312040e-01    0.000000e+00
  1.315030e-01    0.000000e+00
  1.318019e-01    0.000000e+00
  1.321008e-01    0.000000e+00
  1.323998e-01    0.000000e+00
  1.326987e-01    0.000000e+00
  1.329976e-01    0.000000e+00
  1.332965e-01    0.000000e+00
  1.335955e-01    0.000000e+00
  1.338944e-01    0.000000e+00
  1.341933e-01    0.000000e+00
  1.344923e-01    0.000000e+00
  1.347912e-01    0.000000e+00
  1.350901e-01    0.000000e+00
  1.353891e-01    0.000000e+00
  1.356880e-01    0.000000e+00
  1.359869e-01    0.000000e+00
  1.362859e-01    0.000000e+00
  1.365848e-01    0.000000e+00
  1.368837e-01    0.000000e+00
  1.371826e-01    0.000000e+00
  1.374816e-01    0.000000e+00
  1.377805e-01    0.000000e+00
  1.380794e-01    0.000000e+00
  1.383784e-01    0.000000e+00
  1.386773e-01    0.000000e+00
  1.389762e-01    0.000000e+00
  1.392752e-01    0.000000e+00
  1.395741e-01    0.000000e+00
  1.398730e-01    0.000000e+00
  1.401719e-01    0.000000e+00
  1.404709e-01    0.000000e+00
  1.407698e-01    0.000000e+00
  1.410687e-01    0.000000e+00
  1.413677e-01    0.000000e+00
  1.416666e-01    0.000000e+00
  1.419655e-01    0.000000e+00
  1.422645e-01    0.000000e+00
  1.425634e-01    0.000000e+00
  1.428623e-01    0.000000e+00
  1.431613e-01    0.000000e+00
  1.434602e-01    0.000000e+00
  1.437591e-01    0.000000e+00
  1.440580e-01    0.000000e+00
  1.443570e-01    0.000000e+00
  1.446559e-01    0.000000e+00
  1.449548e-01    0.000000e+00
  1.452538e-01    0.000000e+00
  1.455527e-01    0.000000e+00
  1.458516e-01    0.000000e+00
  1.461506e-01    0.000000e+00
  1.464495e-01    0.000000e+00
  1.467484e-01    0.000000e+00
  1.470473e-01    0.000000e+00
  1.473463e-01    0.000000e+00
  1.476452e-01    0.000000e+00
  1.479441e-01    0.000000e+00
  1.482431e-01    0.000000e+00
  1.485420e-01    0.000000e+00
  1.488409e-01    0.000000e+00
  1.491399e-01    0.000000e+00
  1.494388e-01    0.000000e+00
  1.497377e-01    0.000000e+00
  1.500367e-01    0.000000e+00
  1.503356e-01    0.000000e+00
  1.506345e-01    0.000000e+00
  1.509334e-01    0.000000e+00
  1.512324e-01    0.000000e+00
  1.515313e-01    0.000000e+00
  1.518302e-01    0.000000e+00
  1.521292e-01    0.000000e+00
  1.524281e-01    0.000000e+00
  1.527270e-01    0.000000e+00
  1.530260e-01    0.000000e+00
  1.533249e-01    0.000000e+00
  1.536238e-01    0.000000e+00
