# == pyFAI calibration ==
# Distance Sample to Detector: 2.266 m
# PONI: 5.659e-02, 4.293e-02 m
# Rotations: 0.000000 0.000000 0.000000 rad
# 
# == Fit2d calibration ==
# Distance Sample-beamCenter: 2266.000 mm
# Center: x=249.594, y=329.012 pix
# Tilt: 0.000 deg  TiltPlanRot: 0.000 deg
# 
# Detector Pilatus 300k	 PixelSize= 1.720e-04, 1.720e-04 m
#    Detector has a mask: True 
#    Detector has a dark current: False 
#    detector has a flat field: False 
# 
# Wavelength: 1.27818e-10 m
# Mask applied: user provided
# Dark current applied: False
# Flat field applied: False
# Polarization factor: None
# Normalization factor: 12107145.0
# --> F127_128.352_NaCl_112.308_limonene_224.616mgml_0_r1d.csv
#        q_A^-1             I 
  4.457554e-03    1.221908e-03
  4.756484e-03    9.511212e-04
  5.055415e-03    6.649838e-04
  5.354345e-03    4.602629e-04
  5.653276e-03    3.470393e-04
  5.952206e-03    5.495203e-04
  6.251136e-03    5.020433e-04
  6.550067e-03    4.376300e-04
  6.848997e-03    3.733862e-04
  7.147927e-03    3.150767e-04
  7.446858e-03    2.687202e-04
  7.745788e-03    2.304462e-04
  8.044719e-03    1.987878e-04
  8.343649e-03    1.736358e-04
  8.642579e-03    1.515268e-04
  8.941510e-03    1.333770e-04
  9.240440e-03    1.181045e-04
  9.539371e-03    1.046801e-04
  9.838301e-03    9.322667e-05
  1.013723e-02    8.371028e-05
  1.043616e-02    7.517316e-05
  1.073509e-02    6.733022e-05
  1.103402e-02    6.087376e-05
  1.133295e-02    5.516520e-05
  1.163188e-02    5.029255e-05
  1.193081e-02    4.594788e-05
  1.222974e-02    4.204920e-05
  1.252867e-02    3.871436e-05
  1.282760e-02    3.572756e-05
  1.312654e-02    3.296937e-05
  1.342547e-02    3.059291e-05
  1.372440e-02    2.835908e-05
  1.402333e-02    2.629959e-05
  1.432226e-02    2.451574e-05
  1.462119e-02    2.276067e-05
  1.492012e-02    2.133622e-05
  1.521905e-02    2.000953e-05
  1.551798e-02    1.890118e-05
  1.581691e-02    1.780895e-05
  1.611584e-02    1.680374e-05
  1.641477e-02    1.595771e-05
  1.671370e-02    1.510225e-05
  1.701263e-02    1.445642e-05
  1.731156e-02    1.384502e-05
  1.761049e-02    1.318128e-05
  1.790942e-02    1.256408e-05
  1.820835e-02    1.193667e-05
  1.850728e-02    1.153585e-05
  1.880621e-02    1.114583e-05
  1.910514e-02    1.079923e-05
  1.940407e-02    1.049629e-05
  1.970300e-02    1.022818e-05
  2.000193e-02    9.965514e-06
  2.030086e-02    9.764040e-06
  2.059979e-02    9.506662e-06
  2.089873e-02    9.357823e-06
  2.119766e-02    9.173618e-06
  2.149659e-02    9.062428e-06
  2.179552e-02    8.970506e-06
  2.209445e-02    8.927211e-06
  2.239338e-02    8.885375e-06
  2.269231e-02    8.977748e-06
  2.299124e-02    8.973712e-06
  2.329017e-02    9.018196e-06
  2.358910e-02    9.149844e-06
  2.388803e-02    9.204929e-06
  2.418696e-02    9.310275e-06
  2.448589e-02    9.413128e-06
  2.478482e-02    9.645729e-06
  2.508375e-02    9.788801e-06
  2.538268e-02    9.906970e-06
  2.568161e-02    1.003490e-05
  2.598054e-02    1.005575e-05
  2.627947e-02    1.008824e-05
  2.657840e-02    1.009726e-05
  2.687733e-02    1.010710e-05
  2.717626e-02    9.990867e-06
  2.747519e-02    9.853849e-06
  2.777412e-02    9.747206e-06
  2.807305e-02    9.482159e-06
  2.837198e-02    9.230715e-06
  2.867092e-02    9.010164e-06
  2.896985e-02    8.773112e-06
  2.926878e-02    8.490063e-06
  2.956771e-02    8.188236e-06
  2.986664e-02    7.936384e-06
  3.016557e-02    7.672756e-06
  3.046450e-02    7.406388e-06
  3.076343e-02    7.145032e-06
  3.106236e-02    6.964597e-06
  3.136129e-02    6.730206e-06
  3.166022e-02    6.551657e-06
  3.195915e-02    6.385297e-06
  3.225808e-02    6.173933e-06
  3.255701e-02    6.034115e-06
  3.285594e-02    5.906531e-06
  3.315487e-02    5.782821e-06
  3.345380e-02    5.673242e-06
  3.375273e-02    5.582805e-06
  3.405166e-02    5.475349e-06
  3.435059e-02    5.331122e-06
  3.464952e-02    5.238010e-06
  3.494845e-02    5.196389e-06
  3.524738e-02    5.107298e-06
  3.554631e-02    5.016536e-06
  3.584524e-02    4.938567e-06
  3.614417e-02    4.894710e-06
  3.644310e-02    4.821336e-06
  3.674204e-02    4.748581e-06
  3.704097e-02    4.694436e-06
  3.733990e-02    4.629050e-06
  3.763883e-02    4.586352e-06
  3.793776e-02    4.547723e-06
  3.823669e-02    4.484593e-06
  3.853562e-02    4.407985e-06
  3.883455e-02    4.375825e-06
  3.913348e-02    4.374535e-06
  3.943241e-02    4.356122e-06
  3.973134e-02    4.307332e-06
  4.003027e-02    4.289318e-06
  4.032920e-02    4.278767e-06
  4.062813e-02    4.268739e-06
  4.092706e-02    4.264385e-06
  4.122599e-02    4.249909e-06
  4.152492e-02    4.232410e-06
  4.182385e-02    4.188904e-06
  4.212278e-02    4.194902e-06
  4.242171e-02    4.195338e-06
  4.272064e-02    4.201093e-06
  4.301957e-02    4.170813e-06
  4.331850e-02    4.135013e-06
  4.361743e-02    4.122304e-06
  4.391636e-02    4.136363e-06
  4.421529e-02    4.113456e-06
  4.451423e-02    4.092681e-06
  4.481316e-02    4.094626e-06
  4.511209e-02    4.073997e-06
  4.541102e-02    4.060287e-06
  4.570995e-02    4.075051e-06
  4.600888e-02    4.085188e-06
  4.630781e-02    4.070937e-06
  4.660674e-02    4.034491e-06
  4.690567e-02    4.048164e-06
  4.720460e-02    4.068152e-06
  4.750353e-02    4.033748e-06
  4.780246e-02    4.008657e-06
  4.810139e-02    4.026399e-06
  4.840032e-02    3.979516e-06
  4.869925e-02    3.938451e-06
  4.899818e-02    3.916935e-06
  4.929711e-02    3.935902e-06
  4.959604e-02    3.925592e-06
  4.989497e-02    3.897511e-06
  5.019390e-02    3.907859e-06
  5.049283e-02    3.871840e-06
  5.079176e-02    3.828388e-06
  5.109069e-02    3.835509e-06
  5.138962e-02    3.873629e-06
  5.168855e-02    3.929440e-06
  5.198748e-02    3.952928e-06
  5.228642e-02    3.900263e-06
  5.258535e-02    3.790895e-06
  5.288428e-02    3.703871e-06
  5.318321e-02    3.678808e-06
  5.348214e-02    3.663012e-06
  5.378107e-02    3.643961e-06
  5.408000e-02    3.630560e-06
  5.437893e-02    3.595949e-06
  5.467786e-02    3.569460e-06
  5.497679e-02    3.556900e-06
  5.527572e-02    3.536977e-06
  5.557465e-02    3.516417e-06
  5.587358e-02    3.508777e-06
  5.617251e-02    3.485159e-06
  5.647144e-02    3.457546e-06
  5.677037e-02    3.456710e-06
  5.706930e-02    3.430336e-06
  5.736823e-02    3.400840e-06
  5.766716e-02    3.398942e-06
  5.796609e-02    3.397157e-06
  5.826502e-02    3.387440e-06
  5.856395e-02    3.370420e-06
  5.886288e-02    3.349773e-06
  5.916181e-02    3.353619e-06
  5.946074e-02    3.366747e-06
  5.975967e-02    3.347451e-06
  6.005861e-02    3.328878e-06
  6.035754e-02    3.319991e-06
  6.065647e-02    3.333110e-06
  6.095540e-02    3.369884e-06
  6.125433e-02    3.398851e-06
  6.155326e-02    3.400277e-06
  6.185219e-02    3.338745e-06
  6.215112e-02    3.291085e-06
  6.245005e-02    3.283879e-06
  6.274898e-02    3.267356e-06
  6.304791e-02    3.251732e-06
  6.334684e-02    3.250716e-06
  6.364577e-02    3.236178e-06
  6.394470e-02    3.238712e-06
  6.424363e-02    3.257440e-06
  6.454256e-02    3.251482e-06
  6.484149e-02    3.235766e-06
  6.514042e-02    3.241020e-06
  6.543935e-02    3.238181e-06
  6.573828e-02    3.210392e-06
  6.603721e-02    3.208726e-06
  6.633614e-02    3.234330e-06
  6.663507e-02    3.252410e-06
  6.693400e-02    3.246610e-06
  6.723293e-02    3.228625e-06
  6.753186e-02    3.218416e-06
  6.783080e-02    3.236245e-06
  6.812973e-02    3.247411e-06
  6.842866e-02    3.230901e-06
  6.872759e-02    3.234388e-06
  6.902652e-02    3.229606e-06
  6.932545e-02    3.233863e-06
  6.962438e-02    3.212764e-06
  6.992331e-02    3.210193e-06
  7.022224e-02    3.221239e-06
  7.052117e-02    3.246891e-06
  7.082010e-02    3.242036e-06
  7.111903e-02    3.246971e-06
  7.141796e-02    3.232840e-06
  7.171689e-02    3.229158e-06
  7.201582e-02    3.239399e-06
  7.231475e-02    3.246805e-06
  7.261368e-02    3.238783e-06
  7.291261e-02    3.226458e-06
  7.321154e-02    3.211359e-06
  7.351047e-02    3.204587e-06
  7.380940e-02    3.228406e-06
  7.410833e-02    3.215509e-06
  7.440726e-02    3.243082e-06
  7.470619e-02    3.253842e-06
  7.500512e-02    3.238391e-06
  7.530405e-02    3.208115e-06
  7.560299e-02    3.189366e-06
  7.590192e-02    3.221684e-06
  7.620085e-02    3.226612e-06
  7.649978e-02    3.216921e-06
  7.679871e-02    3.206101e-06
  7.709764e-02    3.179063e-06
  7.739657e-02    3.187461e-06
  7.769550e-02    3.192971e-06
  7.799443e-02    3.194935e-06
  7.829336e-02    3.197613e-06
  7.859229e-02    3.179063e-06
  7.889122e-02    3.175738e-06
  7.919015e-02    3.160932e-06
  7.948908e-02    3.162989e-06
  7.978801e-02    3.163487e-06
  8.008694e-02    3.186037e-06
  8.038587e-02    3.173359e-06
  8.068480e-02    3.153466e-06
  8.098373e-02    3.157719e-06
  8.128266e-02    3.148604e-06
  8.158159e-02    3.147929e-06
  8.188052e-02    3.157431e-06
  8.217945e-02    3.134933e-06
  8.247838e-02    3.129900e-06
  8.277731e-02    3.128795e-06
  8.307624e-02    3.134446e-06
  8.337518e-02    3.142646e-06
  8.367411e-02    3.123579e-06
  8.397304e-02    3.116434e-06
  8.427197e-02    3.107172e-06
  8.457090e-02    3.117375e-06
  8.486983e-02    3.142236e-06
  8.516876e-02    3.120002e-06
  8.546769e-02    3.088720e-06
  8.576662e-02    3.080239e-06
  8.606555e-02    3.075443e-06
  8.636448e-02    3.081494e-06
  8.666341e-02    3.077254e-06
  8.696234e-02    3.063554e-06
  8.726127e-02    3.072980e-06
  8.756020e-02    3.064243e-06
  8.785913e-02    3.047257e-06
  8.815806e-02    3.054744e-06
  8.845699e-02    3.059055e-06
  8.875592e-02    3.049276e-06
  8.905485e-02    3.037346e-06
  8.935378e-02    3.027846e-06
  8.965271e-02    3.014720e-06
  8.995164e-02    2.990458e-06
  9.025057e-02    3.001562e-06
  9.054950e-02    3.007049e-06
  9.084843e-02    2.995889e-06
  9.114737e-02    2.976214e-06
  9.144630e-02    2.975580e-06
  9.174523e-02    2.974438e-06
  9.204416e-02    2.950633e-06
  9.234309e-02    2.961948e-06
  9.264202e-02    2.972655e-06
  9.294095e-02    2.967439e-06
  9.323988e-02    2.944855e-06
  9.353881e-02    2.935768e-06
  9.383774e-02    2.937995e-06
  9.413667e-02    2.944908e-06
  9.443560e-02    2.939066e-06
  9.473453e-02    2.926668e-06
  9.503346e-02    2.929512e-06
  9.533239e-02    2.935867e-06
  9.563132e-02    2.930830e-06
  9.593025e-02    2.933804e-06
  9.622918e-02    2.933139e-06
  9.652811e-02    2.939071e-06
  9.682704e-02    2.946321e-06
  9.712597e-02    2.939168e-06
  9.742490e-02    2.924599e-06
  9.772383e-02    2.914412e-06
  9.802276e-02    2.902155e-06
  9.832169e-02    2.892473e-06
  9.862062e-02    2.884294e-06
  9.891956e-02    2.873834e-06
  9.921849e-02    2.865669e-06
  9.951742e-02    2.876614e-06
  9.981635e-02    2.859422e-06
  1.001153e-01    2.833768e-06
  1.004142e-01    2.813353e-06
  1.007131e-01    2.800980e-06
  1.010121e-01    2.798013e-06
  1.013110e-01    2.801109e-06
  1.016099e-01    2.789966e-06
  1.019089e-01    2.814516e-06
  1.022078e-01    2.820318e-06
  1.025067e-01    2.802519e-06
  1.028057e-01    2.798420e-06
  1.031046e-01    2.785489e-06
  1.034035e-01    2.772924e-06
  1.037024e-01    2.770923e-06
  1.040014e-01    2.770945e-06
  1.043003e-01    2.780167e-06
  1.045992e-01    2.774180e-06
  1.048982e-01    2.767053e-06
  1.051971e-01    2.774136e-06
  1.054960e-01    2.762997e-06
  1.057950e-01    2.739296e-06
  1.060939e-01    2.727249e-06
  1.063928e-01    2.720827e-06
  1.066917e-01    2.719639e-06
  1.069907e-01    2.725845e-06
  1.072896e-01    2.728528e-06
  1.075885e-01    2.730883e-06
  1.078875e-01    2.728617e-06
  1.081864e-01    2.700180e-06
  1.084853e-01    2.704681e-06
  1.087843e-01    2.734529e-06
  1.090832e-01    2.731081e-06
  1.093821e-01    2.717872e-06
  1.096810e-01    2.701681e-06
  1.099800e-01    2.682880e-06
  1.102789e-01    2.671892e-06
  1.105778e-01    2.664472e-06
  1.108768e-01    2.651663e-06
  1.111757e-01    2.632243e-06
  1.114746e-01    2.655107e-06
  1.117736e-01    2.660258e-06
  1.120725e-01    2.626146e-06
  1.123714e-01    2.615360e-06
  1.126704e-01    2.601285e-06
  1.129693e-01    2.572666e-06
  1.132682e-01    2.556263e-06
  1.135671e-01    2.539432e-06
  1.138661e-01    2.530057e-06
  1.141650e-01    2.517165e-06
  1.144639e-01    2.514395e-06
  1.147629e-01    2.539076e-06
  1.150618e-01    2.534653e-06
  1.153607e-01    2.549091e-06
  1.156597e-01    2.523631e-06
  1.159586e-01    2.479045e-06
  1.162575e-01    2.494232e-06
  1.165564e-01    2.514465e-06
  1.168554e-01    2.507332e-06
  1.171543e-01    2.484456e-06
  1.174532e-01    2.482234e-06
  1.177522e-01    2.450445e-06
  1.180511e-01    2.449102e-06
  1.183500e-01    2.504698e-06
  1.186490e-01    2.505985e-06
  1.189479e-01    2.457657e-06
  1.192468e-01    2.457686e-06
  1.195458e-01    2.423521e-06
  1.198447e-01    2.490940e-06
  1.201436e-01    2.515137e-06
  1.204425e-01    2.370793e-06
  1.207415e-01    2.212665e-06
  1.210404e-01    1.984096e-06
  1.213393e-01    0.000000e+00
  1.216383e-01    0.000000e+00
  1.219372e-01    0.000000e+00
  1.222361e-01    0.000000e+00
  1.225351e-01    0.000000e+00
  1.228340e-01    0.000000e+00
  1.231329e-01    0.000000e+00
  1.234318e-01    0.000000e+00
  1.237308e-01    0.000000e+00
  1.240297e-01    0.000000e+00
  1.243286e-01    0.000000e+00
  1.246276e-01    0.000000e+00
  1.249265e-01    0.000000e+00
  1.252254e-01    0.000000e+00
  1.255244e-01    0.000000e+00
  1.258233e-01    0.000000e+00
  1.261222e-01    0.000000e+00
  1.264212e-01    0.000000e+00
  1.267201e-01    0.000000e+00
  1.270190e-01    0.000000e+00
  1.273179e-01    0.000000e+00
  1.276169e-01    0.000000e+00
  1.279158e-01    0.000000e+00
  1.282147e-01    0.000000e+00
  1.285137e-01    0.000000e+00
  1.288126e-01    0.000000e+00
  1.291115e-01    0.000000e+00
  1.294105e-01    0.000000e+00
  1.297094e-01    0.000000e+00
  1.300083e-01    0.000000e+00
  1.303072e-01    0.000000e+00
  1.306062e-01    0.000000e+00
  1.309051e-01    0.000000e+00
  1.312040e-01    0.000000e+00
  1.315030e-01    0.000000e+00
  1.318019e-01    0.000000e+00
  1.321008e-01    0.000000e+00
  1.323998e-01    0.000000e+00
  1.326987e-01    0.000000e+00
  1.329976e-01    0.000000e+00
  1.332965e-01    0.000000e+00
  1.335955e-01    0.000000e+00
  1.338944e-01    0.000000e+00
  1.341933e-01    0.000000e+00
  1.344923e-01    0.000000e+00
  1.347912e-01    0.000000e+00
  1.350901e-01    0.000000e+00
  1.353891e-01    0.000000e+00
  1.356880e-01    0.000000e+00
  1.359869e-01    0.000000e+00
  1.362859e-01    0.000000e+00
  1.365848e-01    0.000000e+00
  1.368837e-01    0.000000e+00
  1.371826e-01    0.000000e+00
  1.374816e-01    0.000000e+00
  1.377805e-01    0.000000e+00
  1.380794e-01    0.000000e+00
  1.383784e-01    0.000000e+00
  1.386773e-01    0.000000e+00
  1.389762e-01    0.000000e+00
  1.392752e-01    0.000000e+00
  1.395741e-01    0.000000e+00
  1.398730e-01    0.000000e+00
  1.401719e-01    0.000000e+00
  1.404709e-01    0.000000e+00
  1.407698e-01    0.000000e+00
  1.410687e-01    0.000000e+00
  1.413677e-01    0.000000e+00
  1.416666e-01    0.000000e+00
  1.419655e-01    0.000000e+00
  1.422645e-01    0.000000e+00
  1.425634e-01    0.000000e+00
  1.428623e-01    0.000000e+00
  1.431613e-01    0.000000e+00
  1.434602e-01    0.000000e+00
  1.437591e-01    0.000000e+00
  1.440580e-01    0.000000e+00
  1.443570e-01    0.000000e+00
  1.446559e-01    0.000000e+00
  1.449548e-01    0.000000e+00
  1.452538e-01    0.000000e+00
  1.455527e-01    0.000000e+00
  1.458516e-01    0.000000e+00
  1.461506e-01    0.000000e+00
  1.464495e-01    0.000000e+00
  1.467484e-01    0.000000e+00
  1.470473e-01    0.000000e+00
  1.473463e-01    0.000000e+00
  1.476452e-01    0.000000e+00
  1.479441e-01    0.000000e+00
  1.482431e-01    0.000000e+00
  1.485420e-01    0.000000e+00
  1.488409e-01    0.000000e+00
  1.491399e-01    0.000000e+00
  1.494388e-01    0.000000e+00
  1.497377e-01    0.000000e+00
  1.500367e-01    0.000000e+00
  1.503356e-01    0.000000e+00
  1.506345e-01    0.000000e+00
  1.509334e-01    0.000000e+00
  1.512324e-01    0.000000e+00
  1.515313e-01    0.000000e+00
  1.518302e-01    0.000000e+00
  1.521292e-01    0.000000e+00
  1.524281e-01    0.000000e+00
  1.527270e-01    0.000000e+00
  1.530260e-01    0.000000e+00
  1.533249e-01    0.000000e+00
  1.536238e-01    0.000000e+00
