# == pyFAI calibration ==
# Distance Sample to Detector: 2.266 m
# PONI: 5.659e-02, 4.293e-02 m
# Rotations: 0.000000 0.000000 0.000000 rad
# 
# == Fit2d calibration ==
# Distance Sample-beamCenter: 2266.000 mm
# Center: x=249.594, y=329.012 pix
# Tilt: 0.000 deg  TiltPlanRot: 0.000 deg
# 
# Detector Pilatus 300k	 PixelSize= 1.720e-04, 1.720e-04 m
#    Detector has a mask: True 
#    Detector has a dark current: False 
#    detector has a flat field: False 
# 
# Wavelength: 1.27818e-10 m
# Mask applied: user provided
# Dark current applied: False
# Flat field applied: False
# Polarization factor: None
# Normalization factor: 6711050.0
# --> F127_21.891_NaCl_19.702_limonene_0.000mgml_0_r1d.csv
#        q_A^-1             I 
  4.457554e-03    5.263423e-04
  4.756484e-03    4.096004e-04
  5.055415e-03    2.869150e-04
  5.354345e-03    1.974253e-04
  5.653276e-03    1.505217e-04
  5.952206e-03    2.283361e-04
  6.251136e-03    2.069814e-04
  6.550067e-03    1.795568e-04
  6.848997e-03    1.541058e-04
  7.147927e-03    1.316054e-04
  7.446858e-03    1.132218e-04
  7.745788e-03    9.775986e-05
  8.044719e-03    8.497990e-05
  8.343649e-03    7.442769e-05
  8.642579e-03    6.533645e-05
  8.941510e-03    5.808955e-05
  9.240440e-03    5.212590e-05
  9.539371e-03    4.657135e-05
  9.838301e-03    4.185887e-05
  1.013723e-02    3.813929e-05
  1.043616e-02    3.464799e-05
  1.073509e-02    3.157682e-05
  1.103402e-02    2.915427e-05
  1.133295e-02    2.650980e-05
  1.163188e-02    2.433117e-05
  1.193081e-02    2.277184e-05
  1.222974e-02    2.099789e-05
  1.252867e-02    1.949882e-05
  1.282760e-02    1.820768e-05
  1.312654e-02    1.709458e-05
  1.342547e-02    1.614078e-05
  1.372440e-02    1.515147e-05
  1.402333e-02    1.423595e-05
  1.432226e-02    1.340496e-05
  1.462119e-02    1.267719e-05
  1.492012e-02    1.203257e-05
  1.521905e-02    1.149908e-05
  1.551798e-02    1.090643e-05
  1.581691e-02    1.032059e-05
  1.611584e-02    9.897084e-06
  1.641477e-02    9.461867e-06
  1.671370e-02    9.013014e-06
  1.701263e-02    8.686212e-06
  1.731156e-02    8.393034e-06
  1.761049e-02    8.121504e-06
  1.790942e-02    7.774284e-06
  1.820835e-02    7.407955e-06
  1.850728e-02    7.207852e-06
  1.880621e-02    6.960586e-06
  1.910514e-02    6.737059e-06
  1.940407e-02    6.522981e-06
  1.970300e-02    6.270250e-06
  2.000193e-02    6.159926e-06
  2.030086e-02    5.890117e-06
  2.059979e-02    5.630431e-06
  2.089873e-02    5.504283e-06
  2.119766e-02    5.369684e-06
  2.149659e-02    5.273182e-06
  2.179552e-02    5.174435e-06
  2.209445e-02    4.996368e-06
  2.239338e-02    4.919586e-06
  2.269231e-02    4.763616e-06
  2.299124e-02    4.663116e-06
  2.329017e-02    4.534770e-06
  2.358910e-02    4.343764e-06
  2.388803e-02    4.230558e-06
  2.418696e-02    4.166120e-06
  2.448589e-02    4.091072e-06
  2.478482e-02    3.958384e-06
  2.508375e-02    3.833321e-06
  2.538268e-02    3.754699e-06
  2.568161e-02    3.702481e-06
  2.598054e-02    3.635969e-06
  2.627947e-02    3.513271e-06
  2.657840e-02    3.429867e-06
  2.687733e-02    3.366100e-06
  2.717626e-02    3.364482e-06
  2.747519e-02    3.271240e-06
  2.777412e-02    3.198603e-06
  2.807305e-02    3.150216e-06
  2.837198e-02    3.090818e-06
  2.867092e-02    3.009959e-06
  2.896985e-02    2.971311e-06
  2.926878e-02    2.928157e-06
  2.956771e-02    2.859619e-06
  2.986664e-02    2.834648e-06
  3.016557e-02    2.765488e-06
  3.046450e-02    2.709279e-06
  3.076343e-02    2.678766e-06
  3.106236e-02    2.662953e-06
  3.136129e-02    2.569797e-06
  3.166022e-02    2.526099e-06
  3.195915e-02    2.526382e-06
  3.225808e-02    2.534515e-06
  3.255701e-02    2.517517e-06
  3.285594e-02    2.426986e-06
  3.315487e-02    2.373797e-06
  3.345380e-02    2.364955e-06
  3.375273e-02    2.322116e-06
  3.405166e-02    2.237188e-06
  3.435059e-02    2.245283e-06
  3.464952e-02    2.244192e-06
  3.494845e-02    2.211334e-06
  3.524738e-02    2.168660e-06
  3.554631e-02    2.132695e-06
  3.584524e-02    2.101222e-06
  3.614417e-02    2.071713e-06
  3.644310e-02    2.063056e-06
  3.674204e-02    2.035428e-06
  3.704097e-02    2.029032e-06
  3.733990e-02    2.022700e-06
  3.763883e-02    2.005582e-06
  3.793776e-02    2.006828e-06
  3.823669e-02    1.990114e-06
  3.853562e-02    1.955555e-06
  3.883455e-02    1.909749e-06
  3.913348e-02    1.900343e-06
  3.943241e-02    1.891583e-06
  3.973134e-02    1.888130e-06
  4.003027e-02    1.885591e-06
  4.032920e-02    1.875746e-06
  4.062813e-02    1.867596e-06
  4.092706e-02    1.877625e-06
  4.122599e-02    1.870217e-06
  4.152492e-02    1.857863e-06
  4.182385e-02    1.841060e-06
  4.212278e-02    1.804466e-06
  4.242171e-02    1.817585e-06
  4.272064e-02    1.820915e-06
  4.301957e-02    1.791499e-06
  4.331850e-02    1.789360e-06
  4.361743e-02    1.794852e-06
  4.391636e-02    1.780006e-06
  4.421529e-02    1.769066e-06
  4.451423e-02    1.772770e-06
  4.481316e-02    1.767864e-06
  4.511209e-02    1.760991e-06
  4.541102e-02    1.752918e-06
  4.570995e-02    1.764166e-06
  4.600888e-02    1.759752e-06
  4.630781e-02    1.762389e-06
  4.660674e-02    1.758846e-06
  4.690567e-02    1.761366e-06
  4.720460e-02    1.754939e-06
  4.750353e-02    1.770103e-06
  4.780246e-02    1.729648e-06
  4.810139e-02    1.699722e-06
  4.840032e-02    1.740831e-06
  4.869925e-02    1.756366e-06
  4.899818e-02    1.724130e-06
  4.929711e-02    1.727601e-06
  4.959604e-02    1.742725e-06
  4.989497e-02    1.735558e-06
  5.019390e-02    1.725177e-06
  5.049283e-02    1.721996e-06
  5.079176e-02    1.738081e-06
  5.109069e-02    1.738961e-06
  5.138962e-02    1.747386e-06
  5.168855e-02    1.771496e-06
  5.198748e-02    1.807073e-06
  5.228642e-02    1.809900e-06
  5.258535e-02    1.761749e-06
  5.288428e-02    1.727622e-06
  5.318321e-02    1.703984e-06
  5.348214e-02    1.712438e-06
  5.378107e-02    1.729057e-06
  5.408000e-02    1.715808e-06
  5.437893e-02    1.723337e-06
  5.467786e-02    1.716750e-06
  5.497679e-02    1.730744e-06
  5.527572e-02    1.723789e-06
  5.557465e-02    1.693372e-06
  5.587358e-02    1.701780e-06
  5.617251e-02    1.717855e-06
  5.647144e-02    1.722361e-06
  5.677037e-02    1.722952e-06
  5.706930e-02    1.707172e-06
  5.736823e-02    1.712549e-06
  5.766716e-02    1.701942e-06
  5.796609e-02    1.699209e-06
  5.826502e-02    1.716537e-06
  5.856395e-02    1.706361e-06
  5.886288e-02    1.677938e-06
  5.916181e-02    1.698460e-06
  5.946074e-02    1.700404e-06
  5.975967e-02    1.703304e-06
  6.005861e-02    1.685767e-06
  6.035754e-02    1.690693e-06
  6.065647e-02    1.704976e-06
  6.095540e-02    1.741013e-06
  6.125433e-02    1.754959e-06
  6.155326e-02    1.739303e-06
  6.185219e-02    1.714740e-06
  6.215112e-02    1.715191e-06
  6.245005e-02    1.699811e-06
  6.274898e-02    1.690690e-06
  6.304791e-02    1.706454e-06
  6.334684e-02    1.700855e-06
  6.364577e-02    1.689734e-06
  6.394470e-02    1.713095e-06
  6.424363e-02    1.690001e-06
  6.454256e-02    1.690512e-06
  6.484149e-02    1.697360e-06
  6.514042e-02    1.691167e-06
  6.543935e-02    1.694943e-06
  6.573828e-02    1.694603e-06
  6.603721e-02    1.710273e-06
  6.633614e-02    1.719014e-06
  6.663507e-02    1.708518e-06
  6.693400e-02    1.691494e-06
  6.723293e-02    1.692591e-06
  6.753186e-02    1.703846e-06
  6.783080e-02    1.703590e-06
  6.812973e-02    1.711375e-06
  6.842866e-02    1.700201e-06
  6.872759e-02    1.706026e-06
  6.902652e-02    1.714940e-06
  6.932545e-02    1.700402e-06
  6.962438e-02    1.713274e-06
  6.992331e-02    1.715850e-06
  7.022224e-02    1.722505e-06
  7.052117e-02    1.713443e-06
  7.082010e-02    1.700327e-06
  7.111903e-02    1.703617e-06
  7.141796e-02    1.706912e-06
  7.171689e-02    1.691437e-06
  7.201582e-02    1.709332e-06
  7.231475e-02    1.700195e-06
  7.261368e-02    1.707206e-06
  7.291261e-02    1.719738e-06
  7.321154e-02    1.709303e-06
  7.351047e-02    1.696408e-06
  7.380940e-02    1.688182e-06
  7.410833e-02    1.698898e-06
  7.440726e-02    1.723147e-06
  7.470619e-02    1.707337e-06
  7.500512e-02    1.696799e-06
  7.530405e-02    1.699907e-06
  7.560299e-02    1.684042e-06
  7.590192e-02    1.699974e-06
  7.620085e-02    1.716172e-06
  7.649978e-02    1.701106e-06
  7.679871e-02    1.668493e-06
  7.709764e-02    1.669785e-06
  7.739657e-02    1.680580e-06
  7.769550e-02    1.680689e-06
  7.799443e-02    1.676363e-06
  7.829336e-02    1.680957e-06
  7.859229e-02    1.666638e-06
  7.889122e-02    1.674696e-06
  7.919015e-02    1.685596e-06
  7.948908e-02    1.688872e-06
  7.978801e-02    1.665277e-06
  8.008694e-02    1.667943e-06
  8.038587e-02    1.669503e-06
  8.068480e-02    1.673527e-06
  8.098373e-02    1.682768e-06
  8.128266e-02    1.678243e-06
  8.158159e-02    1.667034e-06
  8.188052e-02    1.659386e-06
  8.217945e-02    1.655001e-06
  8.247838e-02    1.649658e-06
  8.277731e-02    1.662443e-06
  8.307624e-02    1.651526e-06
  8.337518e-02    1.648275e-06
  8.367411e-02    1.641700e-06
  8.397304e-02    1.648807e-06
  8.427197e-02    1.660467e-06
  8.457090e-02    1.662371e-06
  8.486983e-02    1.653882e-06
  8.516876e-02    1.643985e-06
  8.546769e-02    1.656929e-06
  8.576662e-02    1.639131e-06
  8.606555e-02    1.612203e-06
  8.636448e-02    1.627202e-06
  8.666341e-02    1.624147e-06
  8.696234e-02    1.601050e-06
  8.726127e-02    1.614179e-06
  8.756020e-02    1.629104e-06
  8.785913e-02    1.613869e-06
  8.815806e-02    1.606368e-06
  8.845699e-02    1.608071e-06
  8.875592e-02    1.606671e-06
  8.905485e-02    1.606373e-06
  8.935378e-02    1.605818e-06
  8.965271e-02    1.595625e-06
  8.995164e-02    1.602656e-06
  9.025057e-02    1.628203e-06
  9.054950e-02    1.621697e-06
  9.084843e-02    1.585785e-06
  9.114737e-02    1.582452e-06
  9.144630e-02    1.583137e-06
  9.174523e-02    1.590965e-06
  9.204416e-02    1.598466e-06
  9.234309e-02    1.584003e-06
  9.264202e-02    1.577093e-06
  9.294095e-02    1.576861e-06
  9.323988e-02    1.572701e-06
  9.353881e-02    1.569793e-06
  9.383774e-02    1.582983e-06
  9.413667e-02    1.576964e-06
  9.443560e-02    1.558445e-06
  9.473453e-02    1.553142e-06
  9.503346e-02    1.551665e-06
  9.533239e-02    1.538229e-06
  9.563132e-02    1.568439e-06
  9.593025e-02    1.587250e-06
  9.622918e-02    1.581257e-06
  9.652811e-02    1.574048e-06
  9.682704e-02    1.574434e-06
  9.712597e-02    1.583425e-06
  9.742490e-02    1.582604e-06
  9.772383e-02    1.559107e-06
  9.802276e-02    1.548818e-06
  9.832169e-02    1.535953e-06
  9.862062e-02    1.540139e-06
  9.891956e-02    1.542580e-06
  9.921849e-02    1.544154e-06
  9.951742e-02    1.545859e-06
  9.981635e-02    1.535552e-06
  1.001153e-01    1.526514e-06
  1.004142e-01    1.508058e-06
  1.007131e-01    1.499707e-06
  1.010121e-01    1.516365e-06
  1.013110e-01    1.542657e-06
  1.016099e-01    1.533508e-06
  1.019089e-01    1.516632e-06
  1.022078e-01    1.516167e-06
  1.025067e-01    1.520112e-06
  1.028057e-01    1.515736e-06
  1.031046e-01    1.518183e-06
  1.034035e-01    1.518263e-06
  1.037024e-01    1.511777e-06
  1.040014e-01    1.510689e-06
  1.043003e-01    1.490326e-06
  1.045992e-01    1.501383e-06
  1.048982e-01    1.509553e-06
  1.051971e-01    1.488340e-06
  1.054960e-01    1.474407e-06
  1.057950e-01    1.502619e-06
  1.060939e-01    1.514889e-06
  1.063928e-01    1.514407e-06
  1.066917e-01    1.503324e-06
  1.069907e-01    1.485219e-06
  1.072896e-01    1.498399e-06
  1.075885e-01    1.508261e-06
  1.078875e-01    1.489172e-06
  1.081864e-01    1.480196e-06
  1.084853e-01    1.480518e-06
  1.087843e-01    1.491961e-06
  1.090832e-01    1.483192e-06
  1.093821e-01    1.489100e-06
  1.096810e-01    1.489085e-06
  1.099800e-01    1.467479e-06
  1.102789e-01    1.481387e-06
  1.105778e-01    1.476442e-06
  1.108768e-01    1.470524e-06
  1.111757e-01    1.443747e-06
  1.114746e-01    1.408128e-06
  1.117736e-01    1.424426e-06
  1.120725e-01    1.442597e-06
  1.123714e-01    1.452083e-06
  1.126704e-01    1.453940e-06
  1.129693e-01    1.439087e-06
  1.132682e-01    1.402468e-06
  1.135671e-01    1.404545e-06
  1.138661e-01    1.409212e-06
  1.141650e-01    1.427097e-06
  1.144639e-01    1.428599e-06
  1.147629e-01    1.408988e-06
  1.150618e-01    1.406450e-06
  1.153607e-01    1.416997e-06
  1.156597e-01    1.415965e-06
  1.159586e-01    1.404057e-06
  1.162575e-01    1.410600e-06
  1.165564e-01    1.390433e-06
  1.168554e-01    1.362813e-06
  1.171543e-01    1.351183e-06
  1.174532e-01    1.343302e-06
  1.177522e-01    1.350317e-06
  1.180511e-01    1.332075e-06
  1.183500e-01    1.305756e-06
  1.186490e-01    1.337408e-06
  1.189479e-01    1.347415e-06
  1.192468e-01    1.358663e-06
  1.195458e-01    1.422886e-06
  1.198447e-01    1.401111e-06
  1.201436e-01    1.413805e-06
  1.204425e-01    1.537910e-06
  1.207415e-01    1.508152e-06
  1.210404e-01    1.044001e-06
  1.213393e-01    0.000000e+00
  1.216383e-01    0.000000e+00
  1.219372e-01    0.000000e+00
  1.222361e-01    0.000000e+00
  1.225351e-01    0.000000e+00
  1.228340e-01    0.000000e+00
  1.231329e-01    0.000000e+00
  1.234318e-01    0.000000e+00
  1.237308e-01    0.000000e+00
  1.240297e-01    0.000000e+00
  1.243286e-01    0.000000e+00
  1.246276e-01    0.000000e+00
  1.249265e-01    0.000000e+00
  1.252254e-01    0.000000e+00
  1.255244e-01    0.000000e+00
  1.258233e-01    0.000000e+00
  1.261222e-01    0.000000e+00
  1.264212e-01    0.000000e+00
  1.267201e-01    0.000000e+00
  1.270190e-01    0.000000e+00
  1.273179e-01    0.000000e+00
  1.276169e-01    0.000000e+00
  1.279158e-01    0.000000e+00
  1.282147e-01    0.000000e+00
  1.285137e-01    0.000000e+00
  1.288126e-01    0.000000e+00
  1.291115e-01    0.000000e+00
  1.294105e-01    0.000000e+00
  1.297094e-01    0.000000e+00
  1.300083e-01    0.000000e+00
  1.303072e-01    0.000000e+00
  1.306062e-01    0.000000e+00
  1.309051e-01    0.000000e+00
  1.312040e-01    0.000000e+00
  1.315030e-01    0.000000e+00
  1.318019e-01    0.000000e+00
  1.321008e-01    0.000000e+00
  1.323998e-01    0.000000e+00
  1.326987e-01    0.000000e+00
  1.329976e-01    0.000000e+00
  1.332965e-01    0.000000e+00
  1.335955e-01    0.000000e+00
  1.338944e-01    0.000000e+00
  1.341933e-01    0.000000e+00
  1.344923e-01    0.000000e+00
  1.347912e-01    0.000000e+00
  1.350901e-01    0.000000e+00
  1.353891e-01    0.000000e+00
  1.356880e-01    0.000000e+00
  1.359869e-01    0.000000e+00
  1.362859e-01    0.000000e+00
  1.365848e-01    0.000000e+00
  1.368837e-01    0.000000e+00
  1.371826e-01    0.000000e+00
  1.374816e-01    0.000000e+00
  1.377805e-01    0.000000e+00
  1.380794e-01    0.000000e+00
  1.383784e-01    0.000000e+00
  1.386773e-01    0.000000e+00
  1.389762e-01    0.000000e+00
  1.392752e-01    0.000000e+00
  1.395741e-01    0.000000e+00
  1.398730e-01    0.000000e+00
  1.401719e-01    0.000000e+00
  1.404709e-01    0.000000e+00
  1.407698e-01    0.000000e+00
  1.410687e-01    0.000000e+00
  1.413677e-01    0.000000e+00
  1.416666e-01    0.000000e+00
  1.419655e-01    0.000000e+00
  1.422645e-01    0.000000e+00
  1.425634e-01    0.000000e+00
  1.428623e-01    0.000000e+00
  1.431613e-01    0.000000e+00
  1.434602e-01    0.000000e+00
  1.437591e-01    0.000000e+00
  1.440580e-01    0.000000e+00
  1.443570e-01    0.000000e+00
  1.446559e-01    0.000000e+00
  1.449548e-01    0.000000e+00
  1.452538e-01    0.000000e+00
  1.455527e-01    0.000000e+00
  1.458516e-01    0.000000e+00
  1.461506e-01    0.000000e+00
  1.464495e-01    0.000000e+00
  1.467484e-01    0.000000e+00
  1.470473e-01    0.000000e+00
  1.473463e-01    0.000000e+00
  1.476452e-01    0.000000e+00
  1.479441e-01    0.000000e+00
  1.482431e-01    0.000000e+00
  1.485420e-01    0.000000e+00
  1.488409e-01    0.000000e+00
  1.491399e-01    0.000000e+00
  1.494388e-01    0.000000e+00
  1.497377e-01    0.000000e+00
  1.500367e-01    0.000000e+00
  1.503356e-01    0.000000e+00
  1.506345e-01    0.000000e+00
  1.509334e-01    0.000000e+00
  1.512324e-01    0.000000e+00
  1.515313e-01    0.000000e+00
  1.518302e-01    0.000000e+00
  1.521292e-01    0.000000e+00
  1.524281e-01    0.000000e+00
  1.527270e-01    0.000000e+00
  1.530260e-01    0.000000e+00
  1.533249e-01    0.000000e+00
  1.536238e-01    0.000000e+00
