# == pyFAI calibration ==
# Distance Sample to Detector: 2.266 m
# PONI: 5.659e-02, 4.293e-02 m
# Rotations: 0.000000 0.000000 0.000000 rad
# 
# == Fit2d calibration ==
# Distance Sample-beamCenter: 2266.000 mm
# Center: x=249.594, y=329.012 pix
# Tilt: 0.000 deg  TiltPlanRot: 0.000 deg
# 
# Detector Pilatus 300k	 PixelSize= 1.720e-04, 1.720e-04 m
#    Detector has a mask: True 
#    Detector has a dark current: False 
#    detector has a flat field: False 
# 
# Wavelength: 1.27818e-10 m
# Mask applied: user provided
# Dark current applied: False
# Flat field applied: False
# Polarization factor: None
# Normalization factor: 20042094.6
# --> F127_84.497_hexanes_57.612_NaCl_33.667mgml_0_r1d.csv
#        q_A^-1             I 
  4.457554e-03    5.048843e-04
  4.756484e-03    3.991798e-04
  5.055415e-03    2.862609e-04
  5.354345e-03    2.022838e-04
  5.653276e-03    1.574186e-04
  5.952206e-03    2.517101e-04
  6.251136e-03    2.294056e-04
  6.550067e-03    1.995853e-04
  6.848997e-03    1.702690e-04
  7.147927e-03    1.449314e-04
  7.446858e-03    1.241816e-04
  7.745788e-03    1.070450e-04
  8.044719e-03    9.316360e-05
  8.343649e-03    8.190789e-05
  8.642579e-03    7.244839e-05
  8.941510e-03    6.471739e-05
  9.240440e-03    5.790357e-05
  9.539371e-03    5.208347e-05
  9.838301e-03    4.693902e-05
  1.013723e-02    4.287912e-05
  1.043616e-02    3.915664e-05
  1.073509e-02    3.583901e-05
  1.103402e-02    3.325806e-05
  1.133295e-02    3.067925e-05
  1.163188e-02    2.846717e-05
  1.193081e-02    2.656035e-05
  1.222974e-02    2.483613e-05
  1.252867e-02    2.328126e-05
  1.282760e-02    2.186853e-05
  1.312654e-02    2.065722e-05
  1.342547e-02    1.951129e-05
  1.372440e-02    1.852883e-05
  1.402333e-02    1.771710e-05
  1.432226e-02    1.700023e-05
  1.462119e-02    1.625163e-05
  1.492012e-02    1.552965e-05
  1.521905e-02    1.492209e-05
  1.551798e-02    1.438958e-05
  1.581691e-02    1.387637e-05
  1.611584e-02    1.340181e-05
  1.641477e-02    1.301659e-05
  1.671370e-02    1.261556e-05
  1.701263e-02    1.228623e-05
  1.731156e-02    1.195222e-05
  1.761049e-02    1.158895e-05
  1.790942e-02    1.132921e-05
  1.820835e-02    1.099893e-05
  1.850728e-02    1.072113e-05
  1.880621e-02    1.052073e-05
  1.910514e-02    1.022814e-05
  1.940407e-02    9.936320e-06
  1.970300e-02    9.648610e-06
  2.000193e-02    9.377222e-06
  2.030086e-02    9.159120e-06
  2.059979e-02    8.948427e-06
  2.089873e-02    8.689421e-06
  2.119766e-02    8.466998e-06
  2.149659e-02    8.215537e-06
  2.179552e-02    8.009710e-06
  2.209445e-02    7.804032e-06
  2.239338e-02    7.508189e-06
  2.269231e-02    7.281013e-06
  2.299124e-02    7.046978e-06
  2.329017e-02    6.829085e-06
  2.358910e-02    6.625498e-06
  2.388803e-02    6.368550e-06
  2.418696e-02    6.137193e-06
  2.448589e-02    5.931794e-06
  2.478482e-02    5.709688e-06
  2.508375e-02    5.490176e-06
  2.538268e-02    5.299659e-06
  2.568161e-02    5.104898e-06
  2.598054e-02    4.925159e-06
  2.627947e-02    4.746367e-06
  2.657840e-02    4.558300e-06
  2.687733e-02    4.390616e-06
  2.717626e-02    4.230186e-06
  2.747519e-02    4.080587e-06
  2.777412e-02    3.930302e-06
  2.807305e-02    3.780452e-06
  2.837198e-02    3.660541e-06
  2.867092e-02    3.564319e-06
  2.896985e-02    3.424830e-06
  2.926878e-02    3.321093e-06
  2.956771e-02    3.246144e-06
  2.986664e-02    3.138171e-06
  3.016557e-02    3.043580e-06
  3.046450e-02    2.964110e-06
  3.076343e-02    2.900567e-06
  3.106236e-02    2.834494e-06
  3.136129e-02    2.790817e-06
  3.166022e-02    2.748773e-06
  3.195915e-02    2.674427e-06
  3.225808e-02    2.622951e-06
  3.255701e-02    2.571959e-06
  3.285594e-02    2.524309e-06
  3.315487e-02    2.504756e-06
  3.345380e-02    2.469039e-06
  3.375273e-02    2.423469e-06
  3.405166e-02    2.419258e-06
  3.435059e-02    2.405688e-06
  3.464952e-02    2.379286e-06
  3.494845e-02    2.362911e-06
  3.524738e-02    2.338784e-06
  3.554631e-02    2.307453e-06
  3.584524e-02    2.306132e-06
  3.614417e-02    2.295639e-06
  3.644310e-02    2.304925e-06
  3.674204e-02    2.303193e-06
  3.704097e-02    2.285217e-06
  3.733990e-02    2.275374e-06
  3.763883e-02    2.277717e-06
  3.793776e-02    2.265469e-06
  3.823669e-02    2.266106e-06
  3.853562e-02    2.277785e-06
  3.883455e-02    2.292686e-06
  3.913348e-02    2.286545e-06
  3.943241e-02    2.280006e-06
  3.973134e-02    2.287989e-06
  4.003027e-02    2.292305e-06
  4.032920e-02    2.314819e-06
  4.062813e-02    2.330968e-06
  4.092706e-02    2.338918e-06
  4.122599e-02    2.325457e-06
  4.152492e-02    2.346906e-06
  4.182385e-02    2.377308e-06
  4.212278e-02    2.364309e-06
  4.242171e-02    2.371433e-06
  4.272064e-02    2.379548e-06
  4.301957e-02    2.398175e-06
  4.331850e-02    2.408505e-06
  4.361743e-02    2.404759e-06
  4.391636e-02    2.433555e-06
  4.421529e-02    2.443080e-06
  4.451423e-02    2.423872e-06
  4.481316e-02    2.445669e-06
  4.511209e-02    2.447102e-06
  4.541102e-02    2.453311e-06
  4.570995e-02    2.478200e-06
  4.600888e-02    2.477877e-06
  4.630781e-02    2.498978e-06
  4.660674e-02    2.517990e-06
  4.690567e-02    2.530934e-06
  4.720460e-02    2.532048e-06
  4.750353e-02    2.546676e-06
  4.780246e-02    2.548503e-06
  4.810139e-02    2.545577e-06
  4.840032e-02    2.548982e-06
  4.869925e-02    2.553196e-06
  4.899818e-02    2.560565e-06
  4.929711e-02    2.575139e-06
  4.959604e-02    2.582112e-06
  4.989497e-02    2.583762e-06
  5.019390e-02    2.574598e-06
  5.049283e-02    2.562820e-06
  5.079176e-02    2.570042e-06
  5.109069e-02    2.567193e-06
  5.138962e-02    2.583749e-06
  5.168855e-02    2.602690e-06
  5.198748e-02    2.609720e-06
  5.228642e-02    2.599642e-06
  5.258535e-02    2.564414e-06
  5.288428e-02    2.543518e-06
  5.318321e-02    2.544678e-06
  5.348214e-02    2.554816e-06
  5.378107e-02    2.519541e-06
  5.408000e-02    2.518572e-06
  5.437893e-02    2.528408e-06
  5.467786e-02    2.537983e-06
  5.497679e-02    2.529787e-06
  5.527572e-02    2.531815e-06
  5.557465e-02    2.506610e-06
  5.587358e-02    2.499581e-06
  5.617251e-02    2.496860e-06
  5.647144e-02    2.488030e-06
  5.677037e-02    2.469388e-06
  5.706930e-02    2.460500e-06
  5.736823e-02    2.459525e-06
  5.766716e-02    2.454492e-06
  5.796609e-02    2.447136e-06
  5.826502e-02    2.443006e-06
  5.856395e-02    2.439019e-06
  5.886288e-02    2.413366e-06
  5.916181e-02    2.404739e-06
  5.946074e-02    2.407185e-06
  5.975967e-02    2.404049e-06
  6.005861e-02    2.391228e-06
  6.035754e-02    2.388525e-06
  6.065647e-02    2.382318e-06
  6.095540e-02    2.373777e-06
  6.125433e-02    2.384069e-06
  6.155326e-02    2.384108e-06
  6.185219e-02    2.357672e-06
  6.215112e-02    2.344953e-06
  6.245005e-02    2.332306e-06
  6.274898e-02    2.318757e-06
  6.304791e-02    2.309851e-06
  6.334684e-02    2.316863e-06
  6.364577e-02    2.310360e-06
  6.394470e-02    2.292886e-06
  6.424363e-02    2.288079e-06
  6.454256e-02    2.297024e-06
  6.484149e-02    2.299621e-06
  6.514042e-02    2.295750e-06
  6.543935e-02    2.298307e-06
  6.573828e-02    2.283903e-06
  6.603721e-02    2.261684e-06
  6.633614e-02    2.253713e-06
  6.663507e-02    2.240822e-06
  6.693400e-02    2.248881e-06
  6.723293e-02    2.253590e-06
  6.753186e-02    2.245977e-06
  6.783080e-02    2.246539e-06
  6.812973e-02    2.244834e-06
  6.842866e-02    2.241995e-06
  6.872759e-02    2.224411e-06
  6.902652e-02    2.205394e-06
  6.932545e-02    2.199665e-06
  6.962438e-02    2.196248e-06
  6.992331e-02    2.201789e-06
  7.022224e-02    2.195076e-06
  7.052117e-02    2.187082e-06
  7.082010e-02    2.192562e-06
  7.111903e-02    2.185796e-06
  7.141796e-02    2.177335e-06
  7.171689e-02    2.166692e-06
  7.201582e-02    2.176588e-06
  7.231475e-02    2.188273e-06
  7.261368e-02    2.168022e-06
  7.291261e-02    2.162359e-06
  7.321154e-02    2.166444e-06
  7.351047e-02    2.152370e-06
  7.380940e-02    2.154885e-06
  7.410833e-02    2.161439e-06
  7.440726e-02    2.145523e-06
  7.470619e-02    2.130610e-06
  7.500512e-02    2.128753e-06
  7.530405e-02    2.140152e-06
  7.560299e-02    2.132448e-06
  7.590192e-02    2.132140e-06
  7.620085e-02    2.117682e-06
  7.649978e-02    2.105952e-06
  7.679871e-02    2.100160e-06
  7.709764e-02    2.097005e-06
  7.739657e-02    2.102900e-06
  7.769550e-02    2.102686e-06
  7.799443e-02    2.100761e-06
  7.829336e-02    2.089003e-06
  7.859229e-02    2.084520e-06
  7.889122e-02    2.076498e-06
  7.919015e-02    2.079292e-06
  7.948908e-02    2.080023e-06
  7.978801e-02    2.083830e-06
  8.008694e-02    2.079996e-06
  8.038587e-02    2.058558e-06
  8.068480e-02    2.055507e-06
  8.098373e-02    2.064961e-06
  8.128266e-02    2.061067e-06
  8.158159e-02    2.048592e-06
  8.188052e-02    2.053982e-06
  8.217945e-02    2.050252e-06
  8.247838e-02    2.044889e-06
  8.277731e-02    2.034385e-06
  8.307624e-02    2.031386e-06
  8.337518e-02    2.017042e-06
  8.367411e-02    2.016890e-06
  8.397304e-02    2.026200e-06
  8.427197e-02    2.014507e-06
  8.457090e-02    2.013367e-06
  8.486983e-02    2.000259e-06
  8.516876e-02    1.995753e-06
  8.546769e-02    2.000880e-06
  8.576662e-02    1.998796e-06
  8.606555e-02    2.005340e-06
  8.636448e-02    1.990071e-06
  8.666341e-02    1.988705e-06
  8.696234e-02    1.985085e-06
  8.726127e-02    1.987894e-06
  8.756020e-02    1.971700e-06
  8.785913e-02    1.972795e-06
  8.815806e-02    1.976540e-06
  8.845699e-02    1.969844e-06
  8.875592e-02    1.973545e-06
  8.905485e-02    1.967337e-06
  8.935378e-02    1.958676e-06
  8.965271e-02    1.954578e-06
  8.995164e-02    1.950104e-06
  9.025057e-02    1.956201e-06
  9.054950e-02    1.953599e-06
  9.084843e-02    1.939582e-06
  9.114737e-02    1.937824e-06
  9.144630e-02    1.936862e-06
  9.174523e-02    1.930368e-06
  9.204416e-02    1.923364e-06
  9.234309e-02    1.920082e-06
  9.264202e-02    1.920271e-06
  9.294095e-02    1.927170e-06
  9.323988e-02    1.918442e-06
  9.353881e-02    1.915067e-06
  9.383774e-02    1.913980e-06
  9.413667e-02    1.903851e-06
  9.443560e-02    1.893691e-06
  9.473453e-02    1.895423e-06
  9.503346e-02    1.901753e-06
  9.533239e-02    1.892448e-06
  9.563132e-02    1.893057e-06
  9.593025e-02    1.903989e-06
  9.622918e-02    1.905861e-06
  9.652811e-02    1.895802e-06
  9.682704e-02    1.896733e-06
  9.712597e-02    1.910927e-06
  9.742490e-02    1.909081e-06
  9.772383e-02    1.897474e-06
  9.802276e-02    1.878511e-06
  9.832169e-02    1.869916e-06
  9.862062e-02    1.871916e-06
  9.891956e-02    1.874353e-06
  9.921849e-02    1.867788e-06
  9.951742e-02    1.858773e-06
  9.981635e-02    1.866814e-06
  1.001153e-01    1.875379e-06
  1.004142e-01    1.873310e-06
  1.007131e-01    1.849920e-06
  1.010121e-01    1.848291e-06
  1.013110e-01    1.852625e-06
  1.016099e-01    1.855724e-06
  1.019089e-01    1.843117e-06
  1.022078e-01    1.835480e-06
  1.025067e-01    1.834903e-06
  1.028057e-01    1.837037e-06
  1.031046e-01    1.834438e-06
  1.034035e-01    1.826948e-06
  1.037024e-01    1.833754e-06
  1.040014e-01    1.820867e-06
  1.043003e-01    1.813649e-06
  1.045992e-01    1.811941e-06
  1.048982e-01    1.826749e-06
  1.051971e-01    1.819441e-06
  1.054960e-01    1.813086e-06
  1.057950e-01    1.818802e-06
  1.060939e-01    1.820109e-06
  1.063928e-01    1.813869e-06
  1.066917e-01    1.796491e-06
  1.069907e-01    1.796866e-06
  1.072896e-01    1.794516e-06
  1.075885e-01    1.801139e-06
  1.078875e-01    1.789168e-06
  1.081864e-01    1.792272e-06
  1.084853e-01    1.806296e-06
  1.087843e-01    1.806291e-06
  1.090832e-01    1.799405e-06
  1.093821e-01    1.795597e-06
  1.096810e-01    1.782628e-06
  1.099800e-01    1.783801e-06
  1.102789e-01    1.795123e-06
  1.105778e-01    1.776373e-06
  1.108768e-01    1.772882e-06
  1.111757e-01    1.757590e-06
  1.114746e-01    1.749558e-06
  1.117736e-01    1.747224e-06
  1.120725e-01    1.734545e-06
  1.123714e-01    1.741079e-06
  1.126704e-01    1.745950e-06
  1.129693e-01    1.727219e-06
  1.132682e-01    1.707792e-06
  1.135671e-01    1.694512e-06
  1.138661e-01    1.692547e-06
  1.141650e-01    1.687869e-06
  1.144639e-01    1.682619e-06
  1.147629e-01    1.685982e-06
  1.150618e-01    1.679788e-06
  1.153607e-01    1.682433e-06
  1.156597e-01    1.674591e-06
  1.159586e-01    1.653527e-06
  1.162575e-01    1.680906e-06
  1.165564e-01    1.698607e-06
  1.168554e-01    1.677206e-06
  1.171543e-01    1.669473e-06
  1.174532e-01    1.655029e-06
  1.177522e-01    1.642035e-06
  1.180511e-01    1.630790e-06
  1.183500e-01    1.616445e-06
  1.186490e-01    1.617929e-06
  1.189479e-01    1.656798e-06
  1.192468e-01    1.691671e-06
  1.195458e-01    1.647496e-06
  1.198447e-01    1.622268e-06
  1.201436e-01    1.617752e-06
  1.204425e-01    1.609487e-06
  1.207415e-01    1.738101e-06
  1.210404e-01    1.697966e-06
  1.213393e-01    0.000000e+00
  1.216383e-01    0.000000e+00
  1.219372e-01    0.000000e+00
  1.222361e-01    0.000000e+00
  1.225351e-01    0.000000e+00
  1.228340e-01    0.000000e+00
  1.231329e-01    0.000000e+00
  1.234318e-01    0.000000e+00
  1.237308e-01    0.000000e+00
  1.240297e-01    0.000000e+00
  1.243286e-01    0.000000e+00
  1.246276e-01    0.000000e+00
  1.249265e-01    0.000000e+00
  1.252254e-01    0.000000e+00
  1.255244e-01    0.000000e+00
  1.258233e-01    0.000000e+00
  1.261222e-01    0.000000e+00
  1.264212e-01    0.000000e+00
  1.267201e-01    0.000000e+00
  1.270190e-01    0.000000e+00
  1.273179e-01    0.000000e+00
  1.276169e-01    0.000000e+00
  1.279158e-01    0.000000e+00
  1.282147e-01    0.000000e+00
  1.285137e-01    0.000000e+00
  1.288126e-01    0.000000e+00
  1.291115e-01    0.000000e+00
  1.294105e-01    0.000000e+00
  1.297094e-01    0.000000e+00
  1.300083e-01    0.000000e+00
  1.303072e-01    0.000000e+00
  1.306062e-01    0.000000e+00
  1.309051e-01    0.000000e+00
  1.312040e-01    0.000000e+00
  1.315030e-01    0.000000e+00
  1.318019e-01    0.000000e+00
  1.321008e-01    0.000000e+00
  1.323998e-01    0.000000e+00
  1.326987e-01    0.000000e+00
  1.329976e-01    0.000000e+00
  1.332965e-01    0.000000e+00
  1.335955e-01    0.000000e+00
  1.338944e-01    0.000000e+00
  1.341933e-01    0.000000e+00
  1.344923e-01    0.000000e+00
  1.347912e-01    0.000000e+00
  1.350901e-01    0.000000e+00
  1.353891e-01    0.000000e+00
  1.356880e-01    0.000000e+00
  1.359869e-01    0.000000e+00
  1.362859e-01    0.000000e+00
  1.365848e-01    0.000000e+00
  1.368837e-01    0.000000e+00
  1.371826e-01    0.000000e+00
  1.374816e-01    0.000000e+00
  1.377805e-01    0.000000e+00
  1.380794e-01    0.000000e+00
  1.383784e-01    0.000000e+00
  1.386773e-01    0.000000e+00
  1.389762e-01    0.000000e+00
  1.392752e-01    0.000000e+00
  1.395741e-01    0.000000e+00
  1.398730e-01    0.000000e+00
  1.401719e-01    0.000000e+00
  1.404709e-01    0.000000e+00
  1.407698e-01    0.000000e+00
  1.410687e-01    0.000000e+00
  1.413677e-01    0.000000e+00
  1.416666e-01    0.000000e+00
  1.419655e-01    0.000000e+00
  1.422645e-01    0.000000e+00
  1.425634e-01    0.000000e+00
  1.428623e-01    0.000000e+00
  1.431613e-01    0.000000e+00
  1.434602e-01    0.000000e+00
  1.437591e-01    0.000000e+00
  1.440580e-01    0.000000e+00
  1.443570e-01    0.000000e+00
  1.446559e-01    0.000000e+00
  1.449548e-01    0.000000e+00
  1.452538e-01    0.000000e+00
  1.455527e-01    0.000000e+00
  1.458516e-01    0.000000e+00
  1.461506e-01    0.000000e+00
  1.464495e-01    0.000000e+00
  1.467484e-01    0.000000e+00
  1.470473e-01    0.000000e+00
  1.473463e-01    0.000000e+00
  1.476452e-01    0.000000e+00
  1.479441e-01    0.000000e+00
  1.482431e-01    0.000000e+00
  1.485420e-01    0.000000e+00
  1.488409e-01    0.000000e+00
  1.491399e-01    0.000000e+00
  1.494388e-01    0.000000e+00
  1.497377e-01    0.000000e+00
  1.500367e-01    0.000000e+00
  1.503356e-01    0.000000e+00
  1.506345e-01    0.000000e+00
  1.509334e-01    0.000000e+00
  1.512324e-01    0.000000e+00
  1.515313e-01    0.000000e+00
  1.518302e-01    0.000000e+00
  1.521292e-01    0.000000e+00
  1.524281e-01    0.000000e+00
  1.527270e-01    0.000000e+00
  1.530260e-01    0.000000e+00
  1.533249e-01    0.000000e+00
  1.536238e-01    0.000000e+00
