# == pyFAI calibration ==
# Distance Sample to Detector: 2.266 m
# PONI: 5.659e-02, 4.293e-02 m
# Rotations: 0.000000 0.000000 0.000000 rad
# 
# == Fit2d calibration ==
# Distance Sample-beamCenter: 2266.000 mm
# Center: x=249.594, y=329.012 pix
# Tilt: 0.000 deg  TiltPlanRot: 0.000 deg
# 
# Detector Pilatus 300k	 PixelSize= 1.720e-04, 1.720e-04 m
#    Detector has a mask: True 
#    Detector has a dark current: False 
#    detector has a flat field: False 
# 
# Wavelength: 1.27818e-10 m
# Mask applied: user provided
# Dark current applied: False
# Flat field applied: False
# Polarization factor: None
# Normalization factor: 400356.2
# --> F127_121.404_NaCl_106.228_limonene_257.983mgml_1_r1d.csv
#        q_A^-1             I 
  4.457554e-03    6.723450e-03
  4.756484e-03    5.172637e-03
  5.055415e-03    3.602375e-03
  5.354345e-03    2.536745e-03
  5.653276e-03    1.922004e-03
  5.952206e-03    2.717838e-03
  6.251136e-03    2.477964e-03
  6.550067e-03    2.162074e-03
  6.848997e-03    1.844696e-03
  7.147927e-03    1.565879e-03
  7.446858e-03    1.349441e-03
  7.745788e-03    1.166217e-03
  8.044719e-03    1.003158e-03
  8.343649e-03    8.802729e-04
  8.642579e-03    7.718640e-04
  8.941510e-03    6.797518e-04
  9.240440e-03    6.013227e-04
  9.539371e-03    5.336793e-04
  9.838301e-03    4.745929e-04
  1.013723e-02    4.235991e-04
  1.043616e-02    3.812322e-04
  1.073509e-02    3.428487e-04
  1.103402e-02    3.096919e-04
  1.133295e-02    2.787671e-04
  1.163188e-02    2.529616e-04
  1.193081e-02    2.292575e-04
  1.222974e-02    2.116836e-04
  1.252867e-02    1.922132e-04
  1.282760e-02    1.773052e-04
  1.312654e-02    1.644476e-04
  1.342547e-02    1.499433e-04
  1.372440e-02    1.391942e-04
  1.402333e-02    1.287690e-04
  1.432226e-02    1.189436e-04
  1.462119e-02    1.109640e-04
  1.492012e-02    1.037912e-04
  1.521905e-02    9.643377e-05
  1.551798e-02    9.038610e-05
  1.581691e-02    8.479036e-05
  1.611584e-02    7.986409e-05
  1.641477e-02    7.619272e-05
  1.671370e-02    7.245140e-05
  1.701263e-02    6.853534e-05
  1.731156e-02    6.452481e-05
  1.761049e-02    6.185264e-05
  1.790942e-02    5.989409e-05
  1.820835e-02    5.787019e-05
  1.850728e-02    5.545401e-05
  1.880621e-02    5.341248e-05
  1.910514e-02    5.128244e-05
  1.940407e-02    4.973070e-05
  1.970300e-02    4.889478e-05
  2.000193e-02    4.727951e-05
  2.030086e-02    4.617959e-05
  2.059979e-02    4.567993e-05
  2.089873e-02    4.524090e-05
  2.119766e-02    4.452304e-05
  2.149659e-02    4.465356e-05
  2.179552e-02    4.436048e-05
  2.209445e-02    4.347794e-05
  2.239338e-02    4.347684e-05
  2.269231e-02    4.413793e-05
  2.299124e-02    4.397404e-05
  2.329017e-02    4.457968e-05
  2.358910e-02    4.509043e-05
  2.388803e-02    4.573094e-05
  2.418696e-02    4.713299e-05
  2.448589e-02    4.881890e-05
  2.478482e-02    4.995851e-05
  2.508375e-02    5.046795e-05
  2.538268e-02    5.180230e-05
  2.568161e-02    5.295001e-05
  2.598054e-02    5.458306e-05
  2.627947e-02    5.539490e-05
  2.657840e-02    5.596938e-05
  2.687733e-02    5.727090e-05
  2.717626e-02    5.854264e-05
  2.747519e-02    5.907592e-05
  2.777412e-02    5.880690e-05
  2.807305e-02    5.898558e-05
  2.837198e-02    5.844583e-05
  2.867092e-02    5.818523e-05
  2.896985e-02    5.720971e-05
  2.926878e-02    5.538920e-05
  2.956771e-02    5.393134e-05
  2.986664e-02    5.280243e-05
  3.016557e-02    5.111271e-05
  3.046450e-02    4.915590e-05
  3.076343e-02    4.789522e-05
  3.106236e-02    4.632443e-05
  3.136129e-02    4.428533e-05
  3.166022e-02    4.210852e-05
  3.195915e-02    4.051283e-05
  3.225808e-02    3.928302e-05
  3.255701e-02    3.851227e-05
  3.285594e-02    3.705441e-05
  3.315487e-02    3.501673e-05
  3.345380e-02    3.391894e-05
  3.375273e-02    3.277712e-05
  3.405166e-02    3.204104e-05
  3.435059e-02    3.087152e-05
  3.464952e-02    3.048084e-05
  3.494845e-02    2.974542e-05
  3.524738e-02    2.861421e-05
  3.554631e-02    2.752105e-05
  3.584524e-02    2.722425e-05
  3.614417e-02    2.695500e-05
  3.644310e-02    2.644939e-05
  3.674204e-02    2.574696e-05
  3.704097e-02    2.489235e-05
  3.733990e-02    2.491515e-05
  3.763883e-02    2.491506e-05
  3.793776e-02    2.444208e-05
  3.823669e-02    2.362816e-05
  3.853562e-02    2.387750e-05
  3.883455e-02    2.373318e-05
  3.913348e-02    2.302912e-05
  3.943241e-02    2.256289e-05
  3.973134e-02    2.234705e-05
  4.003027e-02    2.230319e-05
  4.032920e-02    2.196279e-05
  4.062813e-02    2.169487e-05
  4.092706e-02    2.218332e-05
  4.122599e-02    2.243537e-05
  4.152492e-02    2.198574e-05
  4.182385e-02    2.145656e-05
  4.212278e-02    2.128576e-05
  4.242171e-02    2.129001e-05
  4.272064e-02    2.119281e-05
  4.301957e-02    2.076331e-05
  4.331850e-02    2.058849e-05
  4.361743e-02    2.080961e-05
  4.391636e-02    2.101743e-05
  4.421529e-02    2.087007e-05
  4.451423e-02    2.104411e-05
  4.481316e-02    2.112253e-05
  4.511209e-02    2.086288e-05
  4.541102e-02    2.068550e-05
  4.570995e-02    2.104941e-05
  4.600888e-02    2.082006e-05
  4.630781e-02    2.039648e-05
  4.660674e-02    2.020221e-05
  4.690567e-02    2.033000e-05
  4.720460e-02    2.062691e-05
  4.750353e-02    2.030866e-05
  4.780246e-02    2.011329e-05
  4.810139e-02    2.019863e-05
  4.840032e-02    1.985806e-05
  4.869925e-02    1.977054e-05
  4.899818e-02    2.039544e-05
  4.929711e-02    2.056501e-05
  4.959604e-02    2.008704e-05
  4.989497e-02    1.993491e-05
  5.019390e-02    1.991121e-05
  5.049283e-02    1.955881e-05
  5.079176e-02    1.937331e-05
  5.109069e-02    1.954153e-05
  5.138962e-02    1.935924e-05
  5.168855e-02    1.984607e-05
  5.198748e-02    2.016894e-05
  5.228642e-02    1.969965e-05
  5.258535e-02    1.886289e-05
  5.288428e-02    1.814001e-05
  5.318321e-02    1.827042e-05
  5.348214e-02    1.826836e-05
  5.378107e-02    1.807434e-05
  5.408000e-02    1.781777e-05
  5.437893e-02    1.756401e-05
  5.467786e-02    1.737125e-05
  5.497679e-02    1.720066e-05
  5.527572e-02    1.698632e-05
  5.557465e-02    1.691746e-05
  5.587358e-02    1.694760e-05
  5.617251e-02    1.674212e-05
  5.647144e-02    1.635697e-05
  5.677037e-02    1.634106e-05
  5.706930e-02    1.575894e-05
  5.736823e-02    1.579778e-05
  5.766716e-02    1.598379e-05
  5.796609e-02    1.566023e-05
  5.826502e-02    1.544165e-05
  5.856395e-02    1.554994e-05
  5.886288e-02    1.535535e-05
  5.916181e-02    1.535236e-05
  5.946074e-02    1.530919e-05
  5.975967e-02    1.504246e-05
  6.005861e-02    1.516033e-05
  6.035754e-02    1.530658e-05
  6.065647e-02    1.505028e-05
  6.095540e-02    1.518578e-05
  6.125433e-02    1.518544e-05
  6.155326e-02    1.505464e-05
  6.185219e-02    1.481220e-05
  6.215112e-02    1.469468e-05
  6.245005e-02    1.446622e-05
  6.274898e-02    1.439394e-05
  6.304791e-02    1.447466e-05
  6.334684e-02    1.449283e-05
  6.364577e-02    1.428900e-05
  6.394470e-02    1.410446e-05
  6.424363e-02    1.397381e-05
  6.454256e-02    1.385288e-05
  6.484149e-02    1.364652e-05
  6.514042e-02    1.371187e-05
  6.543935e-02    1.357220e-05
  6.573828e-02    1.354662e-05
  6.603721e-02    1.336977e-05
  6.633614e-02    1.347821e-05
  6.663507e-02    1.374207e-05
  6.693400e-02    1.359952e-05
  6.723293e-02    1.364960e-05
  6.753186e-02    1.368765e-05
  6.783080e-02    1.353520e-05
  6.812973e-02    1.336007e-05
  6.842866e-02    1.345474e-05
  6.872759e-02    1.346770e-05
  6.902652e-02    1.344984e-05
  6.932545e-02    1.351245e-05
  6.962438e-02    1.342441e-05
  6.992331e-02    1.340580e-05
  7.022224e-02    1.337090e-05
  7.052117e-02    1.325516e-05
  7.082010e-02    1.335537e-05
  7.111903e-02    1.353578e-05
  7.141796e-02    1.344496e-05
  7.171689e-02    1.314236e-05
  7.201582e-02    1.313286e-05
  7.231475e-02    1.305583e-05
  7.261368e-02    1.319720e-05
  7.291261e-02    1.339269e-05
  7.321154e-02    1.344823e-05
  7.351047e-02    1.315607e-05
  7.380940e-02    1.305359e-05
  7.410833e-02    1.322113e-05
  7.440726e-02    1.314330e-05
  7.470619e-02    1.324594e-05
  7.500512e-02    1.309035e-05
  7.530405e-02    1.301149e-05
  7.560299e-02    1.336367e-05
  7.590192e-02    1.313090e-05
  7.620085e-02    1.284711e-05
  7.649978e-02    1.298036e-05
  7.679871e-02    1.292471e-05
  7.709764e-02    1.291283e-05
  7.739657e-02    1.300980e-05
  7.769550e-02    1.294035e-05
  7.799443e-02    1.285561e-05
  7.829336e-02    1.279541e-05
  7.859229e-02    1.287859e-05
  7.889122e-02    1.281694e-05
  7.919015e-02    1.273581e-05
  7.948908e-02    1.266905e-05
  7.978801e-02    1.274008e-05
  8.008694e-02    1.254495e-05
  8.038587e-02    1.256080e-05
  8.068480e-02    1.257689e-05
  8.098373e-02    1.258499e-05
  8.128266e-02    1.246538e-05
  8.158159e-02    1.243293e-05
  8.188052e-02    1.239032e-05
  8.217945e-02    1.236112e-05
  8.247838e-02    1.249415e-05
  8.277731e-02    1.249780e-05
  8.307624e-02    1.262669e-05
  8.337518e-02    1.260986e-05
  8.367411e-02    1.231508e-05
  8.397304e-02    1.233110e-05
  8.427197e-02    1.215604e-05
  8.457090e-02    1.215181e-05
  8.486983e-02    1.224668e-05
  8.516876e-02    1.230699e-05
  8.546769e-02    1.237854e-05
  8.576662e-02    1.235292e-05
  8.606555e-02    1.222929e-05
  8.636448e-02    1.206999e-05
  8.666341e-02    1.214693e-05
  8.696234e-02    1.218092e-05
  8.726127e-02    1.211681e-05
  8.756020e-02    1.206566e-05
  8.785913e-02    1.207442e-05
  8.815806e-02    1.217007e-05
  8.845699e-02    1.192835e-05
  8.875592e-02    1.176916e-05
  8.905485e-02    1.183768e-05
  8.935378e-02    1.187242e-05
  8.965271e-02    1.183563e-05
  8.995164e-02    1.197644e-05
  9.025057e-02    1.177551e-05
  9.054950e-02    1.151686e-05
  9.084843e-02    1.152288e-05
  9.114737e-02    1.163043e-05
  9.144630e-02    1.168811e-05
  9.174523e-02    1.153393e-05
  9.204416e-02    1.138072e-05
  9.234309e-02    1.143771e-05
  9.264202e-02    1.143387e-05
  9.294095e-02    1.149978e-05
  9.323988e-02    1.148087e-05
  9.353881e-02    1.159944e-05
  9.383774e-02    1.159487e-05
  9.413667e-02    1.153726e-05
  9.443560e-02    1.137983e-05
  9.473453e-02    1.148793e-05
  9.503346e-02    1.159325e-05
  9.533239e-02    1.147978e-05
  9.563132e-02    1.153331e-05
  9.593025e-02    1.151300e-05
  9.622918e-02    1.161354e-05
  9.652811e-02    1.155531e-05
  9.682704e-02    1.137084e-05
  9.712597e-02    1.146143e-05
  9.742490e-02    1.145144e-05
  9.772383e-02    1.143501e-05
  9.802276e-02    1.125860e-05
  9.832169e-02    1.138531e-05
  9.862062e-02    1.128516e-05
  9.891956e-02    1.120015e-05
  9.921849e-02    1.138109e-05
  9.951742e-02    1.122188e-05
  9.981635e-02    1.104009e-05
  1.001153e-01    1.092908e-05
  1.004142e-01    1.106462e-05
  1.007131e-01    1.098192e-05
  1.010121e-01    1.082170e-05
  1.013110e-01    1.099813e-05
  1.016099e-01    1.092400e-05
  1.019089e-01    1.079020e-05
  1.022078e-01    1.072761e-05
  1.025067e-01    1.058719e-05
  1.028057e-01    1.051623e-05
  1.031046e-01    1.067211e-05
  1.034035e-01    1.081930e-05
  1.037024e-01    1.081821e-05
  1.040014e-01    1.067498e-05
  1.043003e-01    1.072626e-05
  1.045992e-01    1.059254e-05
  1.048982e-01    1.043316e-05
  1.051971e-01    1.054372e-05
  1.054960e-01    1.051627e-05
  1.057950e-01    1.057540e-05
  1.060939e-01    1.066509e-05
  1.063928e-01    1.053568e-05
  1.066917e-01    1.057972e-05
  1.069907e-01    1.047137e-05
  1.072896e-01    1.045797e-05
  1.075885e-01    1.053460e-05
  1.078875e-01    1.062102e-05
  1.081864e-01    1.065387e-05
  1.084853e-01    1.052216e-05
  1.087843e-01    1.059408e-05
  1.090832e-01    1.056700e-05
  1.093821e-01    1.046477e-05
  1.096810e-01    1.030282e-05
  1.099800e-01    1.026130e-05
  1.102789e-01    1.031572e-05
  1.105778e-01    1.013974e-05
  1.108768e-01    1.010517e-05
  1.111757e-01    1.023697e-05
  1.114746e-01    1.028565e-05
  1.117736e-01    1.031492e-05
  1.120725e-01    1.021954e-05
  1.123714e-01    1.012368e-05
  1.126704e-01    1.021299e-05
  1.129693e-01    1.020364e-05
  1.132682e-01    9.901333e-06
  1.135671e-01    9.974194e-06
  1.138661e-01    9.694897e-06
  1.141650e-01    9.409656e-06
  1.144639e-01    9.659573e-06
  1.147629e-01    9.921841e-06
  1.150618e-01    1.002769e-05
  1.153607e-01    9.842621e-06
  1.156597e-01    9.762635e-06
  1.159586e-01    9.599044e-06
  1.162575e-01    9.775209e-06
  1.165564e-01    9.727956e-06
  1.168554e-01    9.465406e-06
  1.171543e-01    9.684704e-06
  1.174532e-01    9.837377e-06
  1.177522e-01    9.812667e-06
  1.180511e-01    9.373634e-06
  1.183500e-01    9.422034e-06
  1.186490e-01    9.454658e-06
  1.189479e-01    9.168553e-06
  1.192468e-01    9.297803e-06
  1.195458e-01    9.633251e-06
  1.198447e-01    9.410801e-06
  1.201436e-01    9.833682e-06
  1.204425e-01    1.019995e-05
  1.207415e-01    9.946560e-06
  1.210404e-01    1.250019e-05
  1.213393e-01    0.000000e+00
  1.216383e-01    0.000000e+00
  1.219372e-01    0.000000e+00
  1.222361e-01    0.000000e+00
  1.225351e-01    0.000000e+00
  1.228340e-01    0.000000e+00
  1.231329e-01    0.000000e+00
  1.234318e-01    0.000000e+00
  1.237308e-01    0.000000e+00
  1.240297e-01    0.000000e+00
  1.243286e-01    0.000000e+00
  1.246276e-01    0.000000e+00
  1.249265e-01    0.000000e+00
  1.252254e-01    0.000000e+00
  1.255244e-01    0.000000e+00
  1.258233e-01    0.000000e+00
  1.261222e-01    0.000000e+00
  1.264212e-01    0.000000e+00
  1.267201e-01    0.000000e+00
  1.270190e-01    0.000000e+00
  1.273179e-01    0.000000e+00
  1.276169e-01    0.000000e+00
  1.279158e-01    0.000000e+00
  1.282147e-01    0.000000e+00
  1.285137e-01    0.000000e+00
  1.288126e-01    0.000000e+00
  1.291115e-01    0.000000e+00
  1.294105e-01    0.000000e+00
  1.297094e-01    0.000000e+00
  1.300083e-01    0.000000e+00
  1.303072e-01    0.000000e+00
  1.306062e-01    0.000000e+00
  1.309051e-01    0.000000e+00
  1.312040e-01    0.000000e+00
  1.315030e-01    0.000000e+00
  1.318019e-01    0.000000e+00
  1.321008e-01    0.000000e+00
  1.323998e-01    0.000000e+00
  1.326987e-01    0.000000e+00
  1.329976e-01    0.000000e+00
  1.332965e-01    0.000000e+00
  1.335955e-01    0.000000e+00
  1.338944e-01    0.000000e+00
  1.341933e-01    0.000000e+00
  1.344923e-01    0.000000e+00
  1.347912e-01    0.000000e+00
  1.350901e-01    0.000000e+00
  1.353891e-01    0.000000e+00
  1.356880e-01    0.000000e+00
  1.359869e-01    0.000000e+00
  1.362859e-01    0.000000e+00
  1.365848e-01    0.000000e+00
  1.368837e-01    0.000000e+00
  1.371826e-01    0.000000e+00
  1.374816e-01    0.000000e+00
  1.377805e-01    0.000000e+00
  1.380794e-01    0.000000e+00
  1.383784e-01    0.000000e+00
  1.386773e-01    0.000000e+00
  1.389762e-01    0.000000e+00
  1.392752e-01    0.000000e+00
  1.395741e-01    0.000000e+00
  1.398730e-01    0.000000e+00
  1.401719e-01    0.000000e+00
  1.404709e-01    0.000000e+00
  1.407698e-01    0.000000e+00
  1.410687e-01    0.000000e+00
  1.413677e-01    0.000000e+00
  1.416666e-01    0.000000e+00
  1.419655e-01    0.000000e+00
  1.422645e-01    0.000000e+00
  1.425634e-01    0.000000e+00
  1.428623e-01    0.000000e+00
  1.431613e-01    0.000000e+00
  1.434602e-01    0.000000e+00
  1.437591e-01    0.000000e+00
  1.440580e-01    0.000000e+00
  1.443570e-01    0.000000e+00
  1.446559e-01    0.000000e+00
  1.449548e-01    0.000000e+00
  1.452538e-01    0.000000e+00
  1.455527e-01    0.000000e+00
  1.458516e-01    0.000000e+00
  1.461506e-01    0.000000e+00
  1.464495e-01    0.000000e+00
  1.467484e-01    0.000000e+00
  1.470473e-01    0.000000e+00
  1.473463e-01    0.000000e+00
  1.476452e-01    0.000000e+00
  1.479441e-01    0.000000e+00
  1.482431e-01    0.000000e+00
  1.485420e-01    0.000000e+00
  1.488409e-01    0.000000e+00
  1.491399e-01    0.000000e+00
  1.494388e-01    0.000000e+00
  1.497377e-01    0.000000e+00
  1.500367e-01    0.000000e+00
  1.503356e-01    0.000000e+00
  1.506345e-01    0.000000e+00
  1.509334e-01    0.000000e+00
  1.512324e-01    0.000000e+00
  1.515313e-01    0.000000e+00
  1.518302e-01    0.000000e+00
  1.521292e-01    0.000000e+00
  1.524281e-01    0.000000e+00
  1.527270e-01    0.000000e+00
  1.530260e-01    0.000000e+00
  1.533249e-01    0.000000e+00
  1.536238e-01    0.000000e+00
