# == pyFAI calibration ==
# Distance Sample to Detector: 2.266 m
# PONI: 5.659e-02, 4.293e-02 m
# Rotations: 0.000000 0.000000 0.000000 rad
# 
# == Fit2d calibration ==
# Distance Sample-beamCenter: 2266.000 mm
# Center: x=249.594, y=329.012 pix
# Tilt: 0.000 deg  TiltPlanRot: 0.000 deg
# 
# Detector Pilatus 300k	 PixelSize= 1.720e-04, 1.720e-04 m
#    Detector has a mask: True 
#    Detector has a dark current: False 
#    detector has a flat field: False 
# 
# Wavelength: 1.27818e-10 m
# Mask applied: user provided
# Dark current applied: False
# Flat field applied: False
# Polarization factor: None
# Normalization factor: 23172943.6
# --> F127_34.396_hexanes_30.956_EtOH_36.448_NaCl_100.000mgml_0_r1d.csv
#        q_A^-1             I 
  4.457554e-03    2.680182e-04
  4.756484e-03    2.107865e-04
  5.055415e-03    1.507036e-04
  5.354345e-03    1.043681e-04
  5.653276e-03    7.982654e-05
  5.952206e-03    1.307916e-04
  6.251136e-03    1.181973e-04
  6.550067e-03    1.019599e-04
  6.848997e-03    8.595426e-05
  7.147927e-03    7.225330e-05
  7.446858e-03    6.174513e-05
  7.745788e-03    5.314413e-05
  8.044719e-03    4.603195e-05
  8.343649e-03    4.022030e-05
  8.642579e-03    3.535208e-05
  8.941510e-03    3.131698e-05
  9.240440e-03    2.791238e-05
  9.539371e-03    2.494652e-05
  9.838301e-03    2.225921e-05
  1.013723e-02    2.012075e-05
  1.043616e-02    1.812454e-05
  1.073509e-02    1.631470e-05
  1.103402e-02    1.483393e-05
  1.133295e-02    1.354501e-05
  1.163188e-02    1.244188e-05
  1.193081e-02    1.144047e-05
  1.222974e-02    1.054970e-05
  1.252867e-02    9.716568e-06
  1.282760e-02    9.031402e-06
  1.312654e-02    8.415554e-06
  1.342547e-02    7.785743e-06
  1.372440e-02    7.288392e-06
  1.402333e-02    6.824115e-06
  1.432226e-02    6.438534e-06
  1.462119e-02    6.052479e-06
  1.492012e-02    5.715218e-06
  1.521905e-02    5.380197e-06
  1.551798e-02    5.079695e-06
  1.581691e-02    4.850007e-06
  1.611584e-02    4.611143e-06
  1.641477e-02    4.389102e-06
  1.671370e-02    4.202715e-06
  1.701263e-02    3.997349e-06
  1.731156e-02    3.828173e-06
  1.761049e-02    3.670526e-06
  1.790942e-02    3.514930e-06
  1.820835e-02    3.421000e-06
  1.850728e-02    3.286372e-06
  1.880621e-02    3.163622e-06
  1.910514e-02    3.059373e-06
  1.940407e-02    2.967969e-06
  1.970300e-02    2.876122e-06
  2.000193e-02    2.796291e-06
  2.030086e-02    2.742596e-06
  2.059979e-02    2.699471e-06
  2.089873e-02    2.640672e-06
  2.119766e-02    2.556377e-06
  2.149659e-02    2.486147e-06
  2.179552e-02    2.429705e-06
  2.209445e-02    2.388467e-06
  2.239338e-02    2.349044e-06
  2.269231e-02    2.304850e-06
  2.299124e-02    2.266567e-06
  2.329017e-02    2.224083e-06
  2.358910e-02    2.179679e-06
  2.388803e-02    2.138252e-06
  2.418696e-02    2.107054e-06
  2.448589e-02    2.078154e-06
  2.478482e-02    2.050447e-06
  2.508375e-02    2.024162e-06
  2.538268e-02    1.999465e-06
  2.568161e-02    1.976480e-06
  2.598054e-02    1.964515e-06
  2.627947e-02    1.936143e-06
  2.657840e-02    1.896172e-06
  2.687733e-02    1.864706e-06
  2.717626e-02    1.837104e-06
  2.747519e-02    1.856568e-06
  2.777412e-02    1.863528e-06
  2.807305e-02    1.846122e-06
  2.837198e-02    1.807467e-06
  2.867092e-02    1.786819e-06
  2.896985e-02    1.782656e-06
  2.926878e-02    1.775226e-06
  2.956771e-02    1.756110e-06
  2.986664e-02    1.734770e-06
  3.016557e-02    1.713438e-06
  3.046450e-02    1.695983e-06
  3.076343e-02    1.704863e-06
  3.106236e-02    1.677878e-06
  3.136129e-02    1.669917e-06
  3.166022e-02    1.677252e-06
  3.195915e-02    1.662842e-06
  3.225808e-02    1.665673e-06
  3.255701e-02    1.653205e-06
  3.285594e-02    1.634036e-06
  3.315487e-02    1.614889e-06
  3.345380e-02    1.600121e-06
  3.375273e-02    1.601045e-06
  3.405166e-02    1.607349e-06
  3.435059e-02    1.614461e-06
  3.464952e-02    1.596032e-06
  3.494845e-02    1.580451e-06
  3.524738e-02    1.586447e-06
  3.554631e-02    1.575103e-06
  3.584524e-02    1.542161e-06
  3.614417e-02    1.548708e-06
  3.644310e-02    1.547890e-06
  3.674204e-02    1.543053e-06
  3.704097e-02    1.524217e-06
  3.733990e-02    1.522683e-06
  3.763883e-02    1.521715e-06
  3.793776e-02    1.522115e-06
  3.823669e-02    1.524531e-06
  3.853562e-02    1.518866e-06
  3.883455e-02    1.504234e-06
  3.913348e-02    1.513854e-06
  3.943241e-02    1.511496e-06
  3.973134e-02    1.505424e-06
  4.003027e-02    1.492844e-06
  4.032920e-02    1.481591e-06
  4.062813e-02    1.481153e-06
  4.092706e-02    1.485900e-06
  4.122599e-02    1.484167e-06
  4.152492e-02    1.471736e-06
  4.182385e-02    1.471794e-06
  4.212278e-02    1.458010e-06
  4.242171e-02    1.457606e-06
  4.272064e-02    1.457785e-06
  4.301957e-02    1.444479e-06
  4.331850e-02    1.445005e-06
  4.361743e-02    1.444788e-06
  4.391636e-02    1.445154e-06
  4.421529e-02    1.437258e-06
  4.451423e-02    1.441805e-06
  4.481316e-02    1.427814e-06
  4.511209e-02    1.415843e-06
  4.541102e-02    1.425689e-06
  4.570995e-02    1.423892e-06
  4.600888e-02    1.431943e-06
  4.630781e-02    1.417101e-06
  4.660674e-02    1.411396e-06
  4.690567e-02    1.410973e-06
  4.720460e-02    1.409346e-06
  4.750353e-02    1.413191e-06
  4.780246e-02    1.409837e-06
  4.810139e-02    1.409779e-06
  4.840032e-02    1.405099e-06
  4.869925e-02    1.399767e-06
  4.899818e-02    1.394964e-06
  4.929711e-02    1.390146e-06
  4.959604e-02    1.386625e-06
  4.989497e-02    1.384564e-06
  5.019390e-02    1.377111e-06
  5.049283e-02    1.371807e-06
  5.079176e-02    1.384446e-06
  5.109069e-02    1.391113e-06
  5.138962e-02    1.375669e-06
  5.168855e-02    1.377071e-06
  5.198748e-02    1.390548e-06
  5.228642e-02    1.391391e-06
  5.258535e-02    1.356838e-06
  5.288428e-02    1.346808e-06
  5.318321e-02    1.348737e-06
  5.348214e-02    1.349221e-06
  5.378107e-02    1.353794e-06
  5.408000e-02    1.346735e-06
  5.437893e-02    1.347501e-06
  5.467786e-02    1.349855e-06
  5.497679e-02    1.351021e-06
  5.527572e-02    1.334011e-06
  5.557465e-02    1.334185e-06
  5.587358e-02    1.328901e-06
  5.617251e-02    1.314100e-06
  5.647144e-02    1.315057e-06
  5.677037e-02    1.321214e-06
  5.706930e-02    1.318730e-06
  5.736823e-02    1.313372e-06
  5.766716e-02    1.312398e-06
  5.796609e-02    1.315679e-06
  5.826502e-02    1.321619e-06
  5.856395e-02    1.305495e-06
  5.886288e-02    1.296185e-06
  5.916181e-02    1.299361e-06
  5.946074e-02    1.301028e-06
  5.975967e-02    1.303220e-06
  6.005861e-02    1.304821e-06
  6.035754e-02    1.307736e-06
  6.065647e-02    1.294210e-06
  6.095540e-02    1.299975e-06
  6.125433e-02    1.305745e-06
  6.155326e-02    1.297786e-06
  6.185219e-02    1.283996e-06
  6.215112e-02    1.274336e-06
  6.245005e-02    1.278596e-06
  6.274898e-02    1.270903e-06
  6.304791e-02    1.272525e-06
  6.334684e-02    1.284056e-06
  6.364577e-02    1.276658e-06
  6.394470e-02    1.270334e-06
  6.424363e-02    1.268544e-06
  6.454256e-02    1.268361e-06
  6.484149e-02    1.266078e-06
  6.514042e-02    1.256685e-06
  6.543935e-02    1.247566e-06
  6.573828e-02    1.262401e-06
  6.603721e-02    1.268588e-06
  6.633614e-02    1.261584e-06
  6.663507e-02    1.258979e-06
  6.693400e-02    1.258342e-06
  6.723293e-02    1.251032e-06
  6.753186e-02    1.249443e-06
  6.783080e-02    1.246018e-06
  6.812973e-02    1.244494e-06
  6.842866e-02    1.250436e-06
  6.872759e-02    1.249274e-06
  6.902652e-02    1.244215e-06
  6.932545e-02    1.246486e-06
  6.962438e-02    1.238697e-06
  6.992331e-02    1.236692e-06
  7.022224e-02    1.237338e-06
  7.052117e-02    1.243291e-06
  7.082010e-02    1.245741e-06
  7.111903e-02    1.241428e-06
  7.141796e-02    1.242319e-06
  7.171689e-02    1.246791e-06
  7.201582e-02    1.246716e-06
  7.231475e-02    1.227565e-06
  7.261368e-02    1.224288e-06
  7.291261e-02    1.231072e-06
  7.321154e-02    1.227498e-06
  7.351047e-02    1.223366e-06
  7.380940e-02    1.218292e-06
  7.410833e-02    1.216322e-06
  7.440726e-02    1.219148e-06
  7.470619e-02    1.213988e-06
  7.500512e-02    1.218133e-06
  7.530405e-02    1.224770e-06
  7.560299e-02    1.217755e-06
  7.590192e-02    1.217262e-06
  7.620085e-02    1.212672e-06
  7.649978e-02    1.211725e-06
  7.679871e-02    1.210500e-06
  7.709764e-02    1.206789e-06
  7.739657e-02    1.205487e-06
  7.769550e-02    1.207141e-06
  7.799443e-02    1.199046e-06
  7.829336e-02    1.196698e-06
  7.859229e-02    1.191113e-06
  7.889122e-02    1.200205e-06
  7.919015e-02    1.203779e-06
  7.948908e-02    1.205508e-06
  7.978801e-02    1.196709e-06
  8.008694e-02    1.197913e-06
  8.038587e-02    1.198427e-06
  8.068480e-02    1.190910e-06
  8.098373e-02    1.187287e-06
  8.128266e-02    1.195588e-06
  8.158159e-02    1.196072e-06
  8.188052e-02    1.190589e-06
  8.217945e-02    1.177905e-06
  8.247838e-02    1.185155e-06
  8.277731e-02    1.184476e-06
  8.307624e-02    1.175628e-06
  8.337518e-02    1.177575e-06
  8.367411e-02    1.178662e-06
  8.397304e-02    1.172797e-06
  8.427197e-02    1.166852e-06
  8.457090e-02    1.170925e-06
  8.486983e-02    1.170678e-06
  8.516876e-02    1.162526e-06
  8.546769e-02    1.164089e-06
  8.576662e-02    1.167171e-06
  8.606555e-02    1.170981e-06
  8.636448e-02    1.164430e-06
  8.666341e-02    1.159830e-06
  8.696234e-02    1.159932e-06
  8.726127e-02    1.165542e-06
  8.756020e-02    1.158168e-06
  8.785913e-02    1.147296e-06
  8.815806e-02    1.150775e-06
  8.845699e-02    1.154194e-06
  8.875592e-02    1.160182e-06
  8.905485e-02    1.162062e-06
  8.935378e-02    1.159308e-06
  8.965271e-02    1.149006e-06
  8.995164e-02    1.150846e-06
  9.025057e-02    1.154161e-06
  9.054950e-02    1.155076e-06
  9.084843e-02    1.152427e-06
  9.114737e-02    1.151492e-06
  9.144630e-02    1.151700e-06
  9.174523e-02    1.141942e-06
  9.204416e-02    1.140239e-06
  9.234309e-02    1.145359e-06
  9.264202e-02    1.142526e-06
  9.294095e-02    1.143309e-06
  9.323988e-02    1.145842e-06
  9.353881e-02    1.140927e-06
  9.383774e-02    1.139141e-06
  9.413667e-02    1.136864e-06
  9.443560e-02    1.143074e-06
  9.473453e-02    1.140212e-06
  9.503346e-02    1.136206e-06
  9.533239e-02    1.145536e-06
  9.563132e-02    1.141581e-06
  9.593025e-02    1.137567e-06
  9.622918e-02    1.137594e-06
  9.652811e-02    1.138972e-06
  9.682704e-02    1.145218e-06
  9.712597e-02    1.145684e-06
  9.742490e-02    1.139568e-06
  9.772383e-02    1.138258e-06
  9.802276e-02    1.136896e-06
  9.832169e-02    1.131301e-06
  9.862062e-02    1.126740e-06
  9.891956e-02    1.136111e-06
  9.921849e-02    1.129787e-06
  9.951742e-02    1.131521e-06
  9.981635e-02    1.126328e-06
  1.001153e-01    1.123738e-06
  1.004142e-01    1.127068e-06
  1.007131e-01    1.130926e-06
  1.010121e-01    1.123858e-06
  1.013110e-01    1.127567e-06
  1.016099e-01    1.130309e-06
  1.019089e-01    1.119447e-06
  1.022078e-01    1.116103e-06
  1.025067e-01    1.119772e-06
  1.028057e-01    1.118682e-06
  1.031046e-01    1.123582e-06
  1.034035e-01    1.120976e-06
  1.037024e-01    1.121529e-06
  1.040014e-01    1.128317e-06
  1.043003e-01    1.119143e-06
  1.045992e-01    1.113346e-06
  1.048982e-01    1.109982e-06
  1.051971e-01    1.118310e-06
  1.054960e-01    1.118701e-06
  1.057950e-01    1.110434e-06
  1.060939e-01    1.114176e-06
  1.063928e-01    1.117974e-06
  1.066917e-01    1.112666e-06
  1.069907e-01    1.114825e-06
  1.072896e-01    1.117694e-06
  1.075885e-01    1.105496e-06
  1.078875e-01    1.119220e-06
  1.081864e-01    1.115294e-06
  1.084853e-01    1.105327e-06
  1.087843e-01    1.114097e-06
  1.090832e-01    1.118606e-06
  1.093821e-01    1.111343e-06
  1.096810e-01    1.104919e-06
  1.099800e-01    1.106030e-06
  1.102789e-01    1.117874e-06
  1.105778e-01    1.108421e-06
  1.108768e-01    1.094941e-06
  1.111757e-01    1.092902e-06
  1.114746e-01    1.090197e-06
  1.117736e-01    1.087886e-06
  1.120725e-01    1.078962e-06
  1.123714e-01    1.068316e-06
  1.126704e-01    1.056425e-06
  1.129693e-01    1.052743e-06
  1.132682e-01    1.039046e-06
  1.135671e-01    1.031334e-06
  1.138661e-01    1.037405e-06
  1.141650e-01    1.037586e-06
  1.144639e-01    1.026562e-06
  1.147629e-01    1.025780e-06
  1.150618e-01    1.017719e-06
  1.153607e-01    1.003062e-06
  1.156597e-01    1.010014e-06
  1.159586e-01    1.016686e-06
  1.162575e-01    1.011324e-06
  1.165564e-01    1.004275e-06
  1.168554e-01    1.001043e-06
  1.171543e-01    1.011497e-06
  1.174532e-01    1.018230e-06
  1.177522e-01    1.002002e-06
  1.180511e-01    9.904807e-07
  1.183500e-01    1.009246e-06
  1.186490e-01    1.018883e-06
  1.189479e-01    1.031623e-06
  1.192468e-01    1.018003e-06
  1.195458e-01    1.005114e-06
  1.198447e-01    9.969531e-07
  1.201436e-01    9.458526e-07
  1.204425e-01    9.067210e-07
  1.207415e-01    9.081543e-07
  1.210404e-01    8.206644e-07
  1.213393e-01    0.000000e+00
  1.216383e-01    0.000000e+00
  1.219372e-01    0.000000e+00
  1.222361e-01    0.000000e+00
  1.225351e-01    0.000000e+00
  1.228340e-01    0.000000e+00
  1.231329e-01    0.000000e+00
  1.234318e-01    0.000000e+00
  1.237308e-01    0.000000e+00
  1.240297e-01    0.000000e+00
  1.243286e-01    0.000000e+00
  1.246276e-01    0.000000e+00
  1.249265e-01    0.000000e+00
  1.252254e-01    0.000000e+00
  1.255244e-01    0.000000e+00
  1.258233e-01    0.000000e+00
  1.261222e-01    0.000000e+00
  1.264212e-01    0.000000e+00
  1.267201e-01    0.000000e+00
  1.270190e-01    0.000000e+00
  1.273179e-01    0.000000e+00
  1.276169e-01    0.000000e+00
  1.279158e-01    0.000000e+00
  1.282147e-01    0.000000e+00
  1.285137e-01    0.000000e+00
  1.288126e-01    0.000000e+00
  1.291115e-01    0.000000e+00
  1.294105e-01    0.000000e+00
  1.297094e-01    0.000000e+00
  1.300083e-01    0.000000e+00
  1.303072e-01    0.000000e+00
  1.306062e-01    0.000000e+00
  1.309051e-01    0.000000e+00
  1.312040e-01    0.000000e+00
  1.315030e-01    0.000000e+00
  1.318019e-01    0.000000e+00
  1.321008e-01    0.000000e+00
  1.323998e-01    0.000000e+00
  1.326987e-01    0.000000e+00
  1.329976e-01    0.000000e+00
  1.332965e-01    0.000000e+00
  1.335955e-01    0.000000e+00
  1.338944e-01    0.000000e+00
  1.341933e-01    0.000000e+00
  1.344923e-01    0.000000e+00
  1.347912e-01    0.000000e+00
  1.350901e-01    0.000000e+00
  1.353891e-01    0.000000e+00
  1.356880e-01    0.000000e+00
  1.359869e-01    0.000000e+00
  1.362859e-01    0.000000e+00
  1.365848e-01    0.000000e+00
  1.368837e-01    0.000000e+00
  1.371826e-01    0.000000e+00
  1.374816e-01    0.000000e+00
  1.377805e-01    0.000000e+00
  1.380794e-01    0.000000e+00
  1.383784e-01    0.000000e+00
  1.386773e-01    0.000000e+00
  1.389762e-01    0.000000e+00
  1.392752e-01    0.000000e+00
  1.395741e-01    0.000000e+00
  1.398730e-01    0.000000e+00
  1.401719e-01    0.000000e+00
  1.404709e-01    0.000000e+00
  1.407698e-01    0.000000e+00
  1.410687e-01    0.000000e+00
  1.413677e-01    0.000000e+00
  1.416666e-01    0.000000e+00
  1.419655e-01    0.000000e+00
  1.422645e-01    0.000000e+00
  1.425634e-01    0.000000e+00
  1.428623e-01    0.000000e+00
  1.431613e-01    0.000000e+00
  1.434602e-01    0.000000e+00
  1.437591e-01    0.000000e+00
  1.440580e-01    0.000000e+00
  1.443570e-01    0.000000e+00
  1.446559e-01    0.000000e+00
  1.449548e-01    0.000000e+00
  1.452538e-01    0.000000e+00
  1.455527e-01    0.000000e+00
  1.458516e-01    0.000000e+00
  1.461506e-01    0.000000e+00
  1.464495e-01    0.000000e+00
  1.467484e-01    0.000000e+00
  1.470473e-01    0.000000e+00
  1.473463e-01    0.000000e+00
  1.476452e-01    0.000000e+00
  1.479441e-01    0.000000e+00
  1.482431e-01    0.000000e+00
  1.485420e-01    0.000000e+00
  1.488409e-01    0.000000e+00
  1.491399e-01    0.000000e+00
  1.494388e-01    0.000000e+00
  1.497377e-01    0.000000e+00
  1.500367e-01    0.000000e+00
  1.503356e-01    0.000000e+00
  1.506345e-01    0.000000e+00
  1.509334e-01    0.000000e+00
  1.512324e-01    0.000000e+00
  1.515313e-01    0.000000e+00
  1.518302e-01    0.000000e+00
  1.521292e-01    0.000000e+00
  1.524281e-01    0.000000e+00
  1.527270e-01    0.000000e+00
  1.530260e-01    0.000000e+00
  1.533249e-01    0.000000e+00
  1.536238e-01    0.000000e+00
