# == pyFAI calibration ==
# Distance Sample to Detector: 2.266 m
# PONI: 5.659e-02, 4.293e-02 m
# Rotations: 0.000000 0.000000 0.000000 rad
# 
# == Fit2d calibration ==
# Distance Sample-beamCenter: 2266.000 mm
# Center: x=249.594, y=329.012 pix
# Tilt: 0.000 deg  TiltPlanRot: 0.000 deg
# 
# Detector Pilatus 300k	 PixelSize= 1.720e-04, 1.720e-04 m
#    Detector has a mask: True 
#    Detector has a dark current: False 
#    detector has a flat field: False 
# 
# Wavelength: 1.27818e-10 m
# Mask applied: user provided
# Dark current applied: False
# Flat field applied: False
# Polarization factor: None
# Normalization factor: 2935797.9999999995
# --> F127_91.167_hexanes_182.335_NaCl_80.000mgml_2_r1d.csv
#        q_A^-1             I 
  4.457554e-03    2.635168e-03
  4.756484e-03    2.060235e-03
  5.055415e-03    1.439253e-03
  5.354345e-03    9.719899e-04
  5.653276e-03    7.148377e-04
  5.952206e-03    1.089829e-03
  6.251136e-03    9.890434e-04
  6.550067e-03    8.577622e-04
  6.848997e-03    7.299490e-04
  7.147927e-03    6.163592e-04
  7.446858e-03    5.270428e-04
  7.745788e-03    4.539395e-04
  8.044719e-03    3.917931e-04
  8.343649e-03    3.431382e-04
  8.642579e-03    2.994208e-04
  8.941510e-03    2.623840e-04
  9.240440e-03    2.342145e-04
  9.539371e-03    2.095201e-04
  9.838301e-03    1.870665e-04
  1.013723e-02    1.680870e-04
  1.043616e-02    1.511445e-04
  1.073509e-02    1.352948e-04
  1.103402e-02    1.231972e-04
  1.133295e-02    1.124332e-04
  1.163188e-02    1.030363e-04
  1.193081e-02    9.461372e-05
  1.222974e-02    8.704890e-05
  1.252867e-02    8.046730e-05
  1.282760e-02    7.442003e-05
  1.312654e-02    6.935197e-05
  1.342547e-02    6.462041e-05
  1.372440e-02    5.994543e-05
  1.402333e-02    5.622220e-05
  1.432226e-02    5.246297e-05
  1.462119e-02    4.877186e-05
  1.492012e-02    4.596278e-05
  1.521905e-02    4.395514e-05
  1.551798e-02    4.149171e-05
  1.581691e-02    3.928833e-05
  1.611584e-02    3.789096e-05
  1.641477e-02    3.630273e-05
  1.671370e-02    3.451660e-05
  1.701263e-02    3.271310e-05
  1.731156e-02    3.152074e-05
  1.761049e-02    3.061100e-05
  1.790942e-02    2.966885e-05
  1.820835e-02    2.884895e-05
  1.850728e-02    2.820346e-05
  1.880621e-02    2.783225e-05
  1.910514e-02    2.761806e-05
  1.940407e-02    2.739669e-05
  1.970300e-02    2.709703e-05
  2.000193e-02    2.668226e-05
  2.030086e-02    2.686305e-05
  2.059979e-02    2.691155e-05
  2.089873e-02    2.694557e-05
  2.119766e-02    2.754463e-05
  2.149659e-02    2.825112e-05
  2.179552e-02    2.863127e-05
  2.209445e-02    2.890122e-05
  2.239338e-02    2.930351e-05
  2.269231e-02    2.983242e-05
  2.299124e-02    3.036298e-05
  2.329017e-02    3.094061e-05
  2.358910e-02    3.153849e-05
  2.388803e-02    3.198170e-05
  2.418696e-02    3.247699e-05
  2.448589e-02    3.291272e-05
  2.478482e-02    3.322576e-05
  2.508375e-02    3.335864e-05
  2.538268e-02    3.356056e-05
  2.568161e-02    3.381756e-05
  2.598054e-02    3.372439e-05
  2.627947e-02    3.361857e-05
  2.657840e-02    3.372463e-05
  2.687733e-02    3.360943e-05
  2.717626e-02    3.354141e-05
  2.747519e-02    3.337780e-05
  2.777412e-02    3.331413e-05
  2.807305e-02    3.297938e-05
  2.837198e-02    3.274776e-05
  2.867092e-02    3.258321e-05
  2.896985e-02    3.241783e-05
  2.926878e-02    3.224653e-05
  2.956771e-02    3.196944e-05
  2.986664e-02    3.184106e-05
  3.016557e-02    3.169457e-05
  3.046450e-02    3.152053e-05
  3.076343e-02    3.138376e-05
  3.106236e-02    3.125833e-05
  3.136129e-02    3.126820e-05
  3.166022e-02    3.127002e-05
  3.195915e-02    3.123143e-05
  3.225808e-02    3.106556e-05
  3.255701e-02    3.090183e-05
  3.285594e-02    3.073668e-05
  3.315487e-02    3.092822e-05
  3.345380e-02    3.103535e-05
  3.375273e-02    3.098121e-05
  3.405166e-02    3.093024e-05
  3.435059e-02    3.072533e-05
  3.464952e-02    3.074753e-05
  3.494845e-02    3.108872e-05
  3.524738e-02    3.113209e-05
  3.554631e-02    3.117805e-05
  3.584524e-02    3.128776e-05
  3.614417e-02    3.132367e-05
  3.644310e-02    3.143368e-05
  3.674204e-02    3.172760e-05
  3.704097e-02    3.191980e-05
  3.733990e-02    3.209111e-05
  3.763883e-02    3.228174e-05
  3.793776e-02    3.225245e-05
  3.823669e-02    3.227188e-05
  3.853562e-02    3.245773e-05
  3.883455e-02    3.274277e-05
  3.913348e-02    3.281716e-05
  3.943241e-02    3.291246e-05
  3.973134e-02    3.323492e-05
  4.003027e-02    3.330927e-05
  4.032920e-02    3.355592e-05
  4.062813e-02    3.357322e-05
  4.092706e-02    3.368250e-05
  4.122599e-02    3.386912e-05
  4.152492e-02    3.394292e-05
  4.182385e-02    3.404729e-05
  4.212278e-02    3.415499e-05
  4.242171e-02    3.423793e-05
  4.272064e-02    3.407698e-05
  4.301957e-02    3.427154e-05
  4.331850e-02    3.434429e-05
  4.361743e-02    3.426464e-05
  4.391636e-02    3.427790e-05
  4.421529e-02    3.409625e-05
  4.451423e-02    3.395847e-05
  4.481316e-02    3.393673e-05
  4.511209e-02    3.392278e-05
  4.541102e-02    3.378186e-05
  4.570995e-02    3.349276e-05
  4.600888e-02    3.307603e-05
  4.630781e-02    3.277172e-05
  4.660674e-02    3.258554e-05
  4.690567e-02    3.226146e-05
  4.720460e-02    3.189576e-05
  4.750353e-02    3.163761e-05
  4.780246e-02    3.130833e-05
  4.810139e-02    3.093965e-05
  4.840032e-02    3.059235e-05
  4.869925e-02    3.013382e-05
  4.899818e-02    2.975596e-05
  4.929711e-02    2.922912e-05
  4.959604e-02    2.869013e-05
  4.989497e-02    2.825731e-05
  5.019390e-02    2.786746e-05
  5.049283e-02    2.765541e-05
  5.079176e-02    2.709811e-05
  5.109069e-02    2.666004e-05
  5.138962e-02    2.643561e-05
  5.168855e-02    2.609136e-05
  5.198748e-02    2.558209e-05
  5.228642e-02    2.509904e-05
  5.258535e-02    2.459994e-05
  5.288428e-02    2.404524e-05
  5.318321e-02    2.362131e-05
  5.348214e-02    2.317181e-05
  5.378107e-02    2.283581e-05
  5.408000e-02    2.246932e-05
  5.437893e-02    2.210518e-05
  5.467786e-02    2.173267e-05
  5.497679e-02    2.136389e-05
  5.527572e-02    2.081109e-05
  5.557465e-02    2.040382e-05
  5.587358e-02    2.009236e-05
  5.617251e-02    1.983582e-05
  5.647144e-02    1.963140e-05
  5.677037e-02    1.935979e-05
  5.706930e-02    1.897251e-05
  5.736823e-02    1.866432e-05
  5.766716e-02    1.835111e-05
  5.796609e-02    1.807607e-05
  5.826502e-02    1.783301e-05
  5.856395e-02    1.754985e-05
  5.886288e-02    1.733479e-05
  5.916181e-02    1.707018e-05
  5.946074e-02    1.671869e-05
  5.975967e-02    1.653648e-05
  6.005861e-02    1.631434e-05
  6.035754e-02    1.609175e-05
  6.065647e-02    1.594572e-05
  6.095540e-02    1.575347e-05
  6.125433e-02    1.544450e-05
  6.155326e-02    1.534211e-05
  6.185219e-02    1.513383e-05
  6.215112e-02    1.492783e-05
  6.245005e-02    1.468690e-05
  6.274898e-02    1.449370e-05
  6.304791e-02    1.436576e-05
  6.334684e-02    1.421388e-05
  6.364577e-02    1.402471e-05
  6.394470e-02    1.391911e-05
  6.424363e-02    1.382018e-05
  6.454256e-02    1.365670e-05
  6.484149e-02    1.350992e-05
  6.514042e-02    1.329034e-05
  6.543935e-02    1.309968e-05
  6.573828e-02    1.294894e-05
  6.603721e-02    1.286941e-05
  6.633614e-02    1.284738e-05
  6.663507e-02    1.268735e-05
  6.693400e-02    1.244402e-05
  6.723293e-02    1.236525e-05
  6.753186e-02    1.226887e-05
  6.783080e-02    1.213116e-05
  6.812973e-02    1.195711e-05
  6.842866e-02    1.179749e-05
  6.872759e-02    1.178328e-05
  6.902652e-02    1.169668e-05
  6.932545e-02    1.157344e-05
  6.962438e-02    1.142640e-05
  6.992331e-02    1.130331e-05
  7.022224e-02    1.127526e-05
  7.052117e-02    1.123085e-05
  7.082010e-02    1.112034e-05
  7.111903e-02    1.094497e-05
  7.141796e-02    1.087950e-05
  7.171689e-02    1.082829e-05
  7.201582e-02    1.078380e-05
  7.231475e-02    1.073338e-05
  7.261368e-02    1.070935e-05
  7.291261e-02    1.061792e-05
  7.321154e-02    1.048643e-05
  7.351047e-02    1.037927e-05
  7.380940e-02    1.038011e-05
  7.410833e-02    1.033502e-05
  7.440726e-02    1.032596e-05
  7.470619e-02    1.027613e-05
  7.500512e-02    1.007671e-05
  7.530405e-02    1.008294e-05
  7.560299e-02    1.007036e-05
  7.590192e-02    9.996749e-06
  7.620085e-02    1.003797e-05
  7.649978e-02    9.974325e-06
  7.679871e-02    9.902518e-06
  7.709764e-02    9.859218e-06
  7.739657e-02    9.811748e-06
  7.769550e-02    9.718042e-06
  7.799443e-02    9.757236e-06
  7.829336e-02    9.751761e-06
  7.859229e-02    9.704307e-06
  7.889122e-02    9.645003e-06
  7.919015e-02    9.622057e-06
  7.948908e-02    9.566487e-06
  7.978801e-02    9.494313e-06
  8.008694e-02    9.520094e-06
  8.038587e-02    9.500443e-06
  8.068480e-02    9.427383e-06
  8.098373e-02    9.461543e-06
  8.128266e-02    9.496112e-06
  8.158159e-02    9.467074e-06
  8.188052e-02    9.398043e-06
  8.217945e-02    9.418866e-06
  8.247838e-02    9.347333e-06
  8.277731e-02    9.319336e-06
  8.307624e-02    9.307573e-06
  8.337518e-02    9.289647e-06
  8.367411e-02    9.265138e-06
  8.397304e-02    9.224337e-06
  8.427197e-02    9.239417e-06
  8.457090e-02    9.273797e-06
  8.486983e-02    9.204175e-06
  8.516876e-02    9.138766e-06
  8.546769e-02    9.102017e-06
  8.576662e-02    9.172253e-06
  8.606555e-02    9.197530e-06
  8.636448e-02    9.152739e-06
  8.666341e-02    9.155360e-06
  8.696234e-02    9.083828e-06
  8.726127e-02    9.006091e-06
  8.756020e-02    9.100322e-06
  8.785913e-02    9.082449e-06
  8.815806e-02    8.986502e-06
  8.845699e-02    9.028623e-06
  8.875592e-02    9.087043e-06
  8.905485e-02    9.061402e-06
  8.935378e-02    9.091666e-06
  8.965271e-02    9.053686e-06
  8.995164e-02    8.953029e-06
  9.025057e-02    8.953494e-06
  9.054950e-02    8.955833e-06
  9.084843e-02    9.022223e-06
  9.114737e-02    8.991113e-06
  9.144630e-02    8.961254e-06
  9.174523e-02    8.962033e-06
  9.204416e-02    9.006284e-06
  9.234309e-02    8.995759e-06
  9.264202e-02    8.978061e-06
  9.294095e-02    8.972519e-06
  9.323988e-02    8.955174e-06
  9.353881e-02    8.950390e-06
  9.383774e-02    8.989216e-06
  9.413667e-02    8.945861e-06
  9.443560e-02    8.869717e-06
  9.473453e-02    8.921362e-06
  9.503346e-02    9.043208e-06
  9.533239e-02    9.027158e-06
  9.563132e-02    8.935620e-06
  9.593025e-02    8.898290e-06
  9.622918e-02    8.910816e-06
  9.652811e-02    9.016166e-06
  9.682704e-02    9.071290e-06
  9.712597e-02    9.020216e-06
  9.742490e-02    8.957652e-06
  9.772383e-02    8.973708e-06
  9.802276e-02    8.974405e-06
  9.832169e-02    9.006725e-06
  9.862062e-02    8.971779e-06
  9.891956e-02    8.900739e-06
  9.921849e-02    8.910212e-06
  9.951742e-02    8.895678e-06
  9.981635e-02    8.829906e-06
  1.001153e-01    8.890297e-06
  1.004142e-01    8.925043e-06
  1.007131e-01    8.922596e-06
  1.010121e-01    8.871722e-06
  1.013110e-01    8.869394e-06
  1.016099e-01    8.932051e-06
  1.019089e-01    8.891321e-06
  1.022078e-01    8.864157e-06
  1.025067e-01    8.882435e-06
  1.028057e-01    8.869908e-06
  1.031046e-01    8.874883e-06
  1.034035e-01    8.887233e-06
  1.037024e-01    8.912809e-06
  1.040014e-01    8.909761e-06
  1.043003e-01    8.811938e-06
  1.045992e-01    8.839163e-06
  1.048982e-01    8.893266e-06
  1.051971e-01    8.918202e-06
  1.054960e-01    8.803905e-06
  1.057950e-01    8.748200e-06
  1.060939e-01    8.757073e-06
  1.063928e-01    8.835228e-06
  1.066917e-01    8.862585e-06
  1.069907e-01    8.898770e-06
  1.072896e-01    8.906268e-06
  1.075885e-01    8.835993e-06
  1.078875e-01    8.841197e-06
  1.081864e-01    8.917604e-06
  1.084853e-01    8.952282e-06
  1.087843e-01    8.874855e-06
  1.090832e-01    8.882487e-06
  1.093821e-01    8.880126e-06
  1.096810e-01    8.826431e-06
  1.099800e-01    8.834396e-06
  1.102789e-01    8.846624e-06
  1.105778e-01    8.785538e-06
  1.108768e-01    8.748490e-06
  1.111757e-01    8.843878e-06
  1.114746e-01    8.764994e-06
  1.117736e-01    8.683443e-06
  1.120725e-01    8.626181e-06
  1.123714e-01    8.528468e-06
  1.126704e-01    8.430383e-06
  1.129693e-01    8.270928e-06
  1.132682e-01    8.246961e-06
  1.135671e-01    7.947610e-06
  1.138661e-01    7.867457e-06
  1.141650e-01    8.009325e-06
  1.144639e-01    7.929014e-06
  1.147629e-01    7.765853e-06
  1.150618e-01    7.812174e-06
  1.153607e-01    7.846344e-06
  1.156597e-01    7.736049e-06
  1.159586e-01    7.712456e-06
  1.162575e-01    7.727304e-06
  1.165564e-01    7.704044e-06
  1.168554e-01    7.731632e-06
  1.171543e-01    7.589918e-06
  1.174532e-01    7.493293e-06
  1.177522e-01    7.519318e-06
  1.180511e-01    7.627008e-06
  1.183500e-01    7.636359e-06
  1.186490e-01    7.572910e-06
  1.189479e-01    7.537945e-06
  1.192468e-01    7.431012e-06
  1.195458e-01    7.434780e-06
  1.198447e-01    7.230546e-06
  1.201436e-01    7.183325e-06
  1.204425e-01    7.931561e-06
  1.207415e-01    7.647279e-06
  1.210404e-01    6.818629e-06
  1.213393e-01    0.000000e+00
  1.216383e-01    0.000000e+00
  1.219372e-01    0.000000e+00
  1.222361e-01    0.000000e+00
  1.225351e-01    0.000000e+00
  1.228340e-01    0.000000e+00
  1.231329e-01    0.000000e+00
  1.234318e-01    0.000000e+00
  1.237308e-01    0.000000e+00
  1.240297e-01    0.000000e+00
  1.243286e-01    0.000000e+00
  1.246276e-01    0.000000e+00
  1.249265e-01    0.000000e+00
  1.252254e-01    0.000000e+00
  1.255244e-01    0.000000e+00
  1.258233e-01    0.000000e+00
  1.261222e-01    0.000000e+00
  1.264212e-01    0.000000e+00
  1.267201e-01    0.000000e+00
  1.270190e-01    0.000000e+00
  1.273179e-01    0.000000e+00
  1.276169e-01    0.000000e+00
  1.279158e-01    0.000000e+00
  1.282147e-01    0.000000e+00
  1.285137e-01    0.000000e+00
  1.288126e-01    0.000000e+00
  1.291115e-01    0.000000e+00
  1.294105e-01    0.000000e+00
  1.297094e-01    0.000000e+00
  1.300083e-01    0.000000e+00
  1.303072e-01    0.000000e+00
  1.306062e-01    0.000000e+00
  1.309051e-01    0.000000e+00
  1.312040e-01    0.000000e+00
  1.315030e-01    0.000000e+00
  1.318019e-01    0.000000e+00
  1.321008e-01    0.000000e+00
  1.323998e-01    0.000000e+00
  1.326987e-01    0.000000e+00
  1.329976e-01    0.000000e+00
  1.332965e-01    0.000000e+00
  1.335955e-01    0.000000e+00
  1.338944e-01    0.000000e+00
  1.341933e-01    0.000000e+00
  1.344923e-01    0.000000e+00
  1.347912e-01    0.000000e+00
  1.350901e-01    0.000000e+00
  1.353891e-01    0.000000e+00
  1.356880e-01    0.000000e+00
  1.359869e-01    0.000000e+00
  1.362859e-01    0.000000e+00
  1.365848e-01    0.000000e+00
  1.368837e-01    0.000000e+00
  1.371826e-01    0.000000e+00
  1.374816e-01    0.000000e+00
  1.377805e-01    0.000000e+00
  1.380794e-01    0.000000e+00
  1.383784e-01    0.000000e+00
  1.386773e-01    0.000000e+00
  1.389762e-01    0.000000e+00
  1.392752e-01    0.000000e+00
  1.395741e-01    0.000000e+00
  1.398730e-01    0.000000e+00
  1.401719e-01    0.000000e+00
  1.404709e-01    0.000000e+00
  1.407698e-01    0.000000e+00
  1.410687e-01    0.000000e+00
  1.413677e-01    0.000000e+00
  1.416666e-01    0.000000e+00
  1.419655e-01    0.000000e+00
  1.422645e-01    0.000000e+00
  1.425634e-01    0.000000e+00
  1.428623e-01    0.000000e+00
  1.431613e-01    0.000000e+00
  1.434602e-01    0.000000e+00
  1.437591e-01    0.000000e+00
  1.440580e-01    0.000000e+00
  1.443570e-01    0.000000e+00
  1.446559e-01    0.000000e+00
  1.449548e-01    0.000000e+00
  1.452538e-01    0.000000e+00
  1.455527e-01    0.000000e+00
  1.458516e-01    0.000000e+00
  1.461506e-01    0.000000e+00
  1.464495e-01    0.000000e+00
  1.467484e-01    0.000000e+00
  1.470473e-01    0.000000e+00
  1.473463e-01    0.000000e+00
  1.476452e-01    0.000000e+00
  1.479441e-01    0.000000e+00
  1.482431e-01    0.000000e+00
  1.485420e-01    0.000000e+00
  1.488409e-01    0.000000e+00
  1.491399e-01    0.000000e+00
  1.494388e-01    0.000000e+00
  1.497377e-01    0.000000e+00
  1.500367e-01    0.000000e+00
  1.503356e-01    0.000000e+00
  1.506345e-01    0.000000e+00
  1.509334e-01    0.000000e+00
  1.512324e-01    0.000000e+00
  1.515313e-01    0.000000e+00
  1.518302e-01    0.000000e+00
  1.521292e-01    0.000000e+00
  1.524281e-01    0.000000e+00
  1.527270e-01    0.000000e+00
  1.530260e-01    0.000000e+00
  1.533249e-01    0.000000e+00
  1.536238e-01    0.000000e+00
