# == pyFAI calibration ==
# Distance Sample to Detector: 2.266 m
# PONI: 5.659e-02, 4.293e-02 m
# Rotations: 0.000000 0.000000 0.000000 rad
# 
# == Fit2d calibration ==
# Distance Sample-beamCenter: 2266.000 mm
# Center: x=249.594, y=329.012 pix
# Tilt: 0.000 deg  TiltPlanRot: 0.000 deg
# 
# Detector Pilatus 300k	 PixelSize= 1.720e-04, 1.720e-04 m
#    Detector has a mask: True 
#    Detector has a dark current: False 
#    detector has a flat field: False 
# 
# Wavelength: 1.27818e-10 m
# Mask applied: user provided
# Dark current applied: False
# Flat field applied: False
# Polarization factor: None
# Normalization factor: 373354.0
# --> F127_136.144_NaCl_68.072_limonene_187.198mgml_2_r1d.csv
#        q_A^-1             I 
  4.457554e-03    1.109749e-02
  4.756484e-03    8.719349e-03
  5.055415e-03    6.268440e-03
  5.354345e-03    4.457884e-03
  5.653276e-03    3.407709e-03
  5.952206e-03    5.115169e-03
  6.251136e-03    4.687362e-03
  6.550067e-03    4.089872e-03
  6.848997e-03    3.494504e-03
  7.147927e-03    2.972392e-03
  7.446858e-03    2.550013e-03
  7.745788e-03    2.196315e-03
  8.044719e-03    1.904400e-03
  8.343649e-03    1.669666e-03
  8.642579e-03    1.466118e-03
  8.941510e-03    1.289378e-03
  9.240440e-03    1.134450e-03
  9.539371e-03    1.012345e-03
  9.838301e-03    9.010312e-04
  1.013723e-02    8.064993e-04
  1.043616e-02    7.284269e-04
  1.073509e-02    6.565474e-04
  1.103402e-02    5.918628e-04
  1.133295e-02    5.331131e-04
  1.163188e-02    4.858949e-04
  1.193081e-02    4.465420e-04
  1.222974e-02    4.080385e-04
  1.252867e-02    3.748389e-04
  1.282760e-02    3.419826e-04
  1.312654e-02    3.131661e-04
  1.342547e-02    2.901364e-04
  1.372440e-02    2.673035e-04
  1.402333e-02    2.487059e-04
  1.432226e-02    2.284352e-04
  1.462119e-02    2.125492e-04
  1.492012e-02    1.993108e-04
  1.521905e-02    1.867970e-04
  1.551798e-02    1.752290e-04
  1.581691e-02    1.635191e-04
  1.611584e-02    1.525773e-04
  1.641477e-02    1.433672e-04
  1.671370e-02    1.361592e-04
  1.701263e-02    1.283595e-04
  1.731156e-02    1.202398e-04
  1.761049e-02    1.148199e-04
  1.790942e-02    1.097969e-04
  1.820835e-02    1.042028e-04
  1.850728e-02    9.895188e-05
  1.880621e-02    9.449812e-05
  1.910514e-02    9.080027e-05
  1.940407e-02    8.697888e-05
  1.970300e-02    8.315355e-05
  2.000193e-02    7.950849e-05
  2.030086e-02    7.773082e-05
  2.059979e-02    7.517273e-05
  2.089873e-02    7.201133e-05
  2.119766e-02    7.017638e-05
  2.149659e-02    6.897890e-05
  2.179552e-02    6.589137e-05
  2.209445e-02    6.413362e-05
  2.239338e-02    6.243933e-05
  2.269231e-02    6.147468e-05
  2.299124e-02    6.037911e-05
  2.329017e-02    5.945343e-05
  2.358910e-02    5.862667e-05
  2.388803e-02    5.768471e-05
  2.418696e-02    5.609646e-05
  2.448589e-02    5.537304e-05
  2.478482e-02    5.507995e-05
  2.508375e-02    5.474971e-05
  2.538268e-02    5.466483e-05
  2.568161e-02    5.468652e-05
  2.598054e-02    5.360268e-05
  2.627947e-02    5.310887e-05
  2.657840e-02    5.295290e-05
  2.687733e-02    5.189140e-05
  2.717626e-02    5.152806e-05
  2.747519e-02    5.081885e-05
  2.777412e-02    5.032872e-05
  2.807305e-02    4.953112e-05
  2.837198e-02    4.811161e-05
  2.867092e-02    4.660445e-05
  2.896985e-02    4.646931e-05
  2.926878e-02    4.619966e-05
  2.956771e-02    4.459761e-05
  2.986664e-02    4.344595e-05
  3.016557e-02    4.307390e-05
  3.046450e-02    4.236119e-05
  3.076343e-02    4.150063e-05
  3.106236e-02    4.049673e-05
  3.136129e-02    4.012987e-05
  3.166022e-02    3.968120e-05
  3.195915e-02    3.899422e-05
  3.225808e-02    3.838159e-05
  3.255701e-02    3.793521e-05
  3.285594e-02    3.734969e-05
  3.315487e-02    3.679119e-05
  3.345380e-02    3.614218e-05
  3.375273e-02    3.585681e-05
  3.405166e-02    3.522640e-05
  3.435059e-02    3.497252e-05
  3.464952e-02    3.431719e-05
  3.494845e-02    3.399570e-05
  3.524738e-02    3.353435e-05
  3.554631e-02    3.321245e-05
  3.584524e-02    3.326222e-05
  3.614417e-02    3.225284e-05
  3.644310e-02    3.168577e-05
  3.674204e-02    3.148705e-05
  3.704097e-02    3.138227e-05
  3.733990e-02    3.140232e-05
  3.763883e-02    3.066620e-05
  3.793776e-02    3.015537e-05
  3.823669e-02    2.993251e-05
  3.853562e-02    2.993393e-05
  3.883455e-02    2.956446e-05
  3.913348e-02    2.894578e-05
  3.943241e-02    2.914886e-05
  3.973134e-02    2.913475e-05
  4.003027e-02    2.874749e-05
  4.032920e-02    2.856433e-05
  4.062813e-02    2.838277e-05
  4.092706e-02    2.836638e-05
  4.122599e-02    2.821168e-05
  4.152492e-02    2.763834e-05
  4.182385e-02    2.751770e-05
  4.212278e-02    2.760886e-05
  4.242171e-02    2.730243e-05
  4.272064e-02    2.745207e-05
  4.301957e-02    2.739950e-05
  4.331850e-02    2.719302e-05
  4.361743e-02    2.718573e-05
  4.391636e-02    2.741892e-05
  4.421529e-02    2.758613e-05
  4.451423e-02    2.761688e-05
  4.481316e-02    2.736022e-05
  4.511209e-02    2.713940e-05
  4.541102e-02    2.648482e-05
  4.570995e-02    2.630100e-05
  4.600888e-02    2.684653e-05
  4.630781e-02    2.661964e-05
  4.660674e-02    2.637715e-05
  4.690567e-02    2.659593e-05
  4.720460e-02    2.634500e-05
  4.750353e-02    2.682038e-05
  4.780246e-02    2.691568e-05
  4.810139e-02    2.663575e-05
  4.840032e-02    2.656913e-05
  4.869925e-02    2.630510e-05
  4.899818e-02    2.597402e-05
  4.929711e-02    2.584459e-05
  4.959604e-02    2.581073e-05
  4.989497e-02    2.621966e-05
  5.019390e-02    2.629776e-05
  5.049283e-02    2.621538e-05
  5.079176e-02    2.593292e-05
  5.109069e-02    2.546961e-05
  5.138962e-02    2.600024e-05
  5.168855e-02    2.641562e-05
  5.198748e-02    2.695438e-05
  5.228642e-02    2.716682e-05
  5.258535e-02    2.575798e-05
  5.288428e-02    2.468150e-05
  5.318321e-02    2.454080e-05
  5.348214e-02    2.445221e-05
  5.378107e-02    2.448376e-05
  5.408000e-02    2.428663e-05
  5.437893e-02    2.427594e-05
  5.467786e-02    2.460394e-05
  5.497679e-02    2.420335e-05
  5.527572e-02    2.422532e-05
  5.557465e-02    2.455904e-05
  5.587358e-02    2.423578e-05
  5.617251e-02    2.394782e-05
  5.647144e-02    2.392093e-05
  5.677037e-02    2.359168e-05
  5.706930e-02    2.379774e-05
  5.736823e-02    2.388375e-05
  5.766716e-02    2.359167e-05
  5.796609e-02    2.403026e-05
  5.826502e-02    2.390641e-05
  5.856395e-02    2.386762e-05
  5.886288e-02    2.391495e-05
  5.916181e-02    2.373695e-05
  5.946074e-02    2.364229e-05
  5.975967e-02    2.366235e-05
  6.005861e-02    2.397694e-05
  6.035754e-02    2.431714e-05
  6.065647e-02    2.423984e-05
  6.095540e-02    2.405695e-05
  6.125433e-02    2.438540e-05
  6.155326e-02    2.472785e-05
  6.185219e-02    2.426954e-05
  6.215112e-02    2.387345e-05
  6.245005e-02    2.352154e-05
  6.274898e-02    2.350416e-05
  6.304791e-02    2.358104e-05
  6.334684e-02    2.333033e-05
  6.364577e-02    2.360390e-05
  6.394470e-02    2.364097e-05
  6.424363e-02    2.351996e-05
  6.454256e-02    2.368340e-05
  6.484149e-02    2.360851e-05
  6.514042e-02    2.341850e-05
  6.543935e-02    2.356953e-05
  6.573828e-02    2.375191e-05
  6.603721e-02    2.359152e-05
  6.633614e-02    2.377372e-05
  6.663507e-02    2.391668e-05
  6.693400e-02    2.378642e-05
  6.723293e-02    2.370629e-05
  6.753186e-02    2.391413e-05
  6.783080e-02    2.409055e-05
  6.812973e-02    2.386008e-05
  6.842866e-02    2.387381e-05
  6.872759e-02    2.386154e-05
  6.902652e-02    2.367694e-05
  6.932545e-02    2.390824e-05
  6.962438e-02    2.397235e-05
  6.992331e-02    2.395401e-05
  7.022224e-02    2.399033e-05
  7.052117e-02    2.398406e-05
  7.082010e-02    2.390551e-05
  7.111903e-02    2.387653e-05
  7.141796e-02    2.363720e-05
  7.171689e-02    2.389487e-05
  7.201582e-02    2.418504e-05
  7.231475e-02    2.437780e-05
  7.261368e-02    2.439849e-05
  7.291261e-02    2.411470e-05
  7.321154e-02    2.387656e-05
  7.351047e-02    2.423496e-05
  7.380940e-02    2.422554e-05
  7.410833e-02    2.380860e-05
  7.440726e-02    2.395664e-05
  7.470619e-02    2.410006e-05
  7.500512e-02    2.379718e-05
  7.530405e-02    2.399878e-05
  7.560299e-02    2.401969e-05
  7.590192e-02    2.415068e-05
  7.620085e-02    2.425142e-05
  7.649978e-02    2.406674e-05
  7.679871e-02    2.389521e-05
  7.709764e-02    2.407606e-05
  7.739657e-02    2.410706e-05
  7.769550e-02    2.398005e-05
  7.799443e-02    2.424266e-05
  7.829336e-02    2.380603e-05
  7.859229e-02    2.363786e-05
  7.889122e-02    2.357169e-05
  7.919015e-02    2.351911e-05
  7.948908e-02    2.381615e-05
  7.978801e-02    2.407431e-05
  8.008694e-02    2.419778e-05
  8.038587e-02    2.391037e-05
  8.068480e-02    2.363113e-05
  8.098373e-02    2.371602e-05
  8.128266e-02    2.368321e-05
  8.158159e-02    2.407645e-05
  8.188052e-02    2.385682e-05
  8.217945e-02    2.363408e-05
  8.247838e-02    2.360483e-05
  8.277731e-02    2.383183e-05
  8.307624e-02    2.382372e-05
  8.337518e-02    2.328365e-05
  8.367411e-02    2.325788e-05
  8.397304e-02    2.337291e-05
  8.427197e-02    2.358822e-05
  8.457090e-02    2.337825e-05
  8.486983e-02    2.307727e-05
  8.516876e-02    2.327074e-05
  8.546769e-02    2.331067e-05
  8.576662e-02    2.346891e-05
  8.606555e-02    2.320440e-05
  8.636448e-02    2.285689e-05
  8.666341e-02    2.289903e-05
  8.696234e-02    2.300123e-05
  8.726127e-02    2.328428e-05
  8.756020e-02    2.333251e-05
  8.785913e-02    2.312460e-05
  8.815806e-02    2.279166e-05
  8.845699e-02    2.295420e-05
  8.875592e-02    2.278836e-05
  8.905485e-02    2.241349e-05
  8.935378e-02    2.244113e-05
  8.965271e-02    2.257220e-05
  8.995164e-02    2.265139e-05
  9.025057e-02    2.235394e-05
  9.054950e-02    2.191847e-05
  9.084843e-02    2.200272e-05
  9.114737e-02    2.189288e-05
  9.144630e-02    2.205641e-05
  9.174523e-02    2.196170e-05
  9.204416e-02    2.201760e-05
  9.234309e-02    2.216661e-05
  9.264202e-02    2.197379e-05
  9.294095e-02    2.181395e-05
  9.323988e-02    2.180640e-05
  9.353881e-02    2.173309e-05
  9.383774e-02    2.201827e-05
  9.413667e-02    2.185019e-05
  9.443560e-02    2.197307e-05
  9.473453e-02    2.211023e-05
  9.503346e-02    2.206738e-05
  9.533239e-02    2.192059e-05
  9.563132e-02    2.186612e-05
  9.593025e-02    2.184516e-05
  9.622918e-02    2.177996e-05
  9.652811e-02    2.198662e-05
  9.682704e-02    2.199472e-05
  9.712597e-02    2.193660e-05
  9.742490e-02    2.190286e-05
  9.772383e-02    2.201624e-05
  9.802276e-02    2.159271e-05
  9.832169e-02    2.146597e-05
  9.862062e-02    2.157799e-05
  9.891956e-02    2.128653e-05
  9.921849e-02    2.120958e-05
  9.951742e-02    2.111631e-05
  9.981635e-02    2.094579e-05
  1.001153e-01    2.097416e-05
  1.004142e-01    2.104827e-05
  1.007131e-01    2.094809e-05
  1.010121e-01    2.079691e-05
  1.013110e-01    2.076211e-05
  1.016099e-01    2.085315e-05
  1.019089e-01    2.072842e-05
  1.022078e-01    2.059600e-05
  1.025067e-01    2.066212e-05
  1.028057e-01    2.072012e-05
  1.031046e-01    2.055525e-05
  1.034035e-01    2.068870e-05
  1.037024e-01    2.074021e-05
  1.040014e-01    2.043653e-05
  1.043003e-01    2.059771e-05
  1.045992e-01    2.064952e-05
  1.048982e-01    2.049534e-05
  1.051971e-01    2.030943e-05
  1.054960e-01    2.023171e-05
  1.057950e-01    2.007869e-05
  1.060939e-01    2.009293e-05
  1.063928e-01    2.012427e-05
  1.066917e-01    2.024922e-05
  1.069907e-01    2.018466e-05
  1.072896e-01    2.016507e-05
  1.075885e-01    1.994363e-05
  1.078875e-01    2.007599e-05
  1.081864e-01    2.039872e-05
  1.084853e-01    2.001092e-05
  1.087843e-01    2.012362e-05
  1.090832e-01    2.013396e-05
  1.093821e-01    1.984156e-05
  1.096810e-01    1.986594e-05
  1.099800e-01    1.993953e-05
  1.102789e-01    1.969781e-05
  1.105778e-01    1.951335e-05
  1.108768e-01    1.939550e-05
  1.111757e-01    1.931477e-05
  1.114746e-01    1.943178e-05
  1.117736e-01    1.954206e-05
  1.120725e-01    1.976250e-05
  1.123714e-01    1.956158e-05
  1.126704e-01    1.950570e-05
  1.129693e-01    1.928551e-05
  1.132682e-01    1.895452e-05
  1.135671e-01    1.930007e-05
  1.138661e-01    1.911117e-05
  1.141650e-01    1.833268e-05
  1.144639e-01    1.856474e-05
  1.147629e-01    1.909768e-05
  1.150618e-01    1.900104e-05
  1.153607e-01    1.890948e-05
  1.156597e-01    1.861451e-05
  1.159586e-01    1.885811e-05
  1.162575e-01    1.918088e-05
  1.165564e-01    1.888715e-05
  1.168554e-01    1.893322e-05
  1.171543e-01    1.871092e-05
  1.174532e-01    1.833856e-05
  1.177522e-01    1.799372e-05
  1.180511e-01    1.824465e-05
  1.183500e-01    1.860953e-05
  1.186490e-01    1.853943e-05
  1.189479e-01    1.889615e-05
  1.192468e-01    1.907496e-05
  1.195458e-01    1.888505e-05
  1.198447e-01    1.835528e-05
  1.201436e-01    1.687710e-05
  1.204425e-01    1.768254e-05
  1.207415e-01    1.763529e-05
  1.210404e-01    1.608510e-05
  1.213393e-01    0.000000e+00
  1.216383e-01    0.000000e+00
  1.219372e-01    0.000000e+00
  1.222361e-01    0.000000e+00
  1.225351e-01    0.000000e+00
  1.228340e-01    0.000000e+00
  1.231329e-01    0.000000e+00
  1.234318e-01    0.000000e+00
  1.237308e-01    0.000000e+00
  1.240297e-01    0.000000e+00
  1.243286e-01    0.000000e+00
  1.246276e-01    0.000000e+00
  1.249265e-01    0.000000e+00
  1.252254e-01    0.000000e+00
  1.255244e-01    0.000000e+00
  1.258233e-01    0.000000e+00
  1.261222e-01    0.000000e+00
  1.264212e-01    0.000000e+00
  1.267201e-01    0.000000e+00
  1.270190e-01    0.000000e+00
  1.273179e-01    0.000000e+00
  1.276169e-01    0.000000e+00
  1.279158e-01    0.000000e+00
  1.282147e-01    0.000000e+00
  1.285137e-01    0.000000e+00
  1.288126e-01    0.000000e+00
  1.291115e-01    0.000000e+00
  1.294105e-01    0.000000e+00
  1.297094e-01    0.000000e+00
  1.300083e-01    0.000000e+00
  1.303072e-01    0.000000e+00
  1.306062e-01    0.000000e+00
  1.309051e-01    0.000000e+00
  1.312040e-01    0.000000e+00
  1.315030e-01    0.000000e+00
  1.318019e-01    0.000000e+00
  1.321008e-01    0.000000e+00
  1.323998e-01    0.000000e+00
  1.326987e-01    0.000000e+00
  1.329976e-01    0.000000e+00
  1.332965e-01    0.000000e+00
  1.335955e-01    0.000000e+00
  1.338944e-01    0.000000e+00
  1.341933e-01    0.000000e+00
  1.344923e-01    0.000000e+00
  1.347912e-01    0.000000e+00
  1.350901e-01    0.000000e+00
  1.353891e-01    0.000000e+00
  1.356880e-01    0.000000e+00
  1.359869e-01    0.000000e+00
  1.362859e-01    0.000000e+00
  1.365848e-01    0.000000e+00
  1.368837e-01    0.000000e+00
  1.371826e-01    0.000000e+00
  1.374816e-01    0.000000e+00
  1.377805e-01    0.000000e+00
  1.380794e-01    0.000000e+00
  1.383784e-01    0.000000e+00
  1.386773e-01    0.000000e+00
  1.389762e-01    0.000000e+00
  1.392752e-01    0.000000e+00
  1.395741e-01    0.000000e+00
  1.398730e-01    0.000000e+00
  1.401719e-01    0.000000e+00
  1.404709e-01    0.000000e+00
  1.407698e-01    0.000000e+00
  1.410687e-01    0.000000e+00
  1.413677e-01    0.000000e+00
  1.416666e-01    0.000000e+00
  1.419655e-01    0.000000e+00
  1.422645e-01    0.000000e+00
  1.425634e-01    0.000000e+00
  1.428623e-01    0.000000e+00
  1.431613e-01    0.000000e+00
  1.434602e-01    0.000000e+00
  1.437591e-01    0.000000e+00
  1.440580e-01    0.000000e+00
  1.443570e-01    0.000000e+00
  1.446559e-01    0.000000e+00
  1.449548e-01    0.000000e+00
  1.452538e-01    0.000000e+00
  1.455527e-01    0.000000e+00
  1.458516e-01    0.000000e+00
  1.461506e-01    0.000000e+00
  1.464495e-01    0.000000e+00
  1.467484e-01    0.000000e+00
  1.470473e-01    0.000000e+00
  1.473463e-01    0.000000e+00
  1.476452e-01    0.000000e+00
  1.479441e-01    0.000000e+00
  1.482431e-01    0.000000e+00
  1.485420e-01    0.000000e+00
  1.488409e-01    0.000000e+00
  1.491399e-01    0.000000e+00
  1.494388e-01    0.000000e+00
  1.497377e-01    0.000000e+00
  1.500367e-01    0.000000e+00
  1.503356e-01    0.000000e+00
  1.506345e-01    0.000000e+00
  1.509334e-01    0.000000e+00
  1.512324e-01    0.000000e+00
  1.515313e-01    0.000000e+00
  1.518302e-01    0.000000e+00
  1.521292e-01    0.000000e+00
  1.524281e-01    0.000000e+00
  1.527270e-01    0.000000e+00
  1.530260e-01    0.000000e+00
  1.533249e-01    0.000000e+00
  1.536238e-01    0.000000e+00
