# == pyFAI calibration ==
# Distance Sample to Detector: 2.266 m
# PONI: 5.659e-02, 4.293e-02 m
# Rotations: 0.000000 0.000000 0.000000 rad
# 
# == Fit2d calibration ==
# Distance Sample-beamCenter: 2266.000 mm
# Center: x=249.594, y=329.012 pix
# Tilt: 0.000 deg  TiltPlanRot: 0.000 deg
# 
# Detector Pilatus 300k	 PixelSize= 1.720e-04, 1.720e-04 m
#    Detector has a mask: True 
#    Detector has a dark current: False 
#    detector has a flat field: False 
# 
# Wavelength: 1.27818e-10 m
# Mask applied: user provided
# Dark current applied: False
# Flat field applied: False
# Polarization factor: None
# Normalization factor: 16632881.200000001
# --> F127_100.634_NaCl_34.216_limonene_67.760mgml_0_r1d.csv
#        q_A^-1             I 
  4.457554e-03    4.979685e-04
  4.756484e-03    3.852251e-04
  5.055415e-03    2.691726e-04
  5.354345e-03    1.858709e-04
  5.653276e-03    1.398092e-04
  5.952206e-03    2.188206e-04
  6.251136e-03    1.996794e-04
  6.550067e-03    1.740621e-04
  6.848997e-03    1.488016e-04
  7.147927e-03    1.263394e-04
  7.446858e-03    1.085222e-04
  7.745788e-03    9.354856e-05
  8.044719e-03    8.129341e-05
  8.343649e-03    7.141160e-05
  8.642579e-03    6.286226e-05
  8.941510e-03    5.611276e-05
  9.240440e-03    5.031650e-05
  9.539371e-03    4.501293e-05
  9.838301e-03    4.054271e-05
  1.013723e-02    3.687298e-05
  1.043616e-02    3.376531e-05
  1.073509e-02    3.080843e-05
  1.103402e-02    2.843094e-05
  1.133295e-02    2.629915e-05
  1.163188e-02    2.424359e-05
  1.193081e-02    2.265949e-05
  1.222974e-02    2.111460e-05
  1.252867e-02    1.975308e-05
  1.282760e-02    1.881285e-05
  1.312654e-02    1.776559e-05
  1.342547e-02    1.674231e-05
  1.372440e-02    1.590685e-05
  1.402333e-02    1.516442e-05
  1.432226e-02    1.449600e-05
  1.462119e-02    1.391427e-05
  1.492012e-02    1.340676e-05
  1.521905e-02    1.284727e-05
  1.551798e-02    1.239904e-05
  1.581691e-02    1.200158e-05
  1.611584e-02    1.164570e-05
  1.641477e-02    1.137577e-05
  1.671370e-02    1.101195e-05
  1.701263e-02    1.071099e-05
  1.731156e-02    1.042348e-05
  1.761049e-02    1.012197e-05
  1.790942e-02    9.906510e-06
  1.820835e-02    9.730013e-06
  1.850728e-02    9.544126e-06
  1.880621e-02    9.334964e-06
  1.910514e-02    9.188362e-06
  1.940407e-02    9.002878e-06
  1.970300e-02    8.848850e-06
  2.000193e-02    8.712932e-06
  2.030086e-02    8.539744e-06
  2.059979e-02    8.384814e-06
  2.089873e-02    8.276765e-06
  2.119766e-02    8.136323e-06
  2.149659e-02    7.963810e-06
  2.179552e-02    7.839341e-06
  2.209445e-02    7.681397e-06
  2.239338e-02    7.584453e-06
  2.269231e-02    7.441156e-06
  2.299124e-02    7.304344e-06
  2.329017e-02    7.148002e-06
  2.358910e-02    6.977139e-06
  2.388803e-02    6.825103e-06
  2.418696e-02    6.662473e-06
  2.448589e-02    6.551714e-06
  2.478482e-02    6.375867e-06
  2.508375e-02    6.186519e-06
  2.538268e-02    6.049231e-06
  2.568161e-02    5.878707e-06
  2.598054e-02    5.690352e-06
  2.627947e-02    5.495472e-06
  2.657840e-02    5.345461e-06
  2.687733e-02    5.195047e-06
  2.717626e-02    5.062671e-06
  2.747519e-02    4.921016e-06
  2.777412e-02    4.744164e-06
  2.807305e-02    4.618531e-06
  2.837198e-02    4.463405e-06
  2.867092e-02    4.301977e-06
  2.896985e-02    4.166214e-06
  2.926878e-02    4.027367e-06
  2.956771e-02    3.904742e-06
  2.986664e-02    3.770246e-06
  3.016557e-02    3.669059e-06
  3.046450e-02    3.596622e-06
  3.076343e-02    3.486254e-06
  3.106236e-02    3.343580e-06
  3.136129e-02    3.245727e-06
  3.166022e-02    3.177960e-06
  3.195915e-02    3.078762e-06
  3.225808e-02    2.971345e-06
  3.255701e-02    2.897389e-06
  3.285594e-02    2.834595e-06
  3.315487e-02    2.773962e-06
  3.345380e-02    2.690330e-06
  3.375273e-02    2.625313e-06
  3.405166e-02    2.576667e-06
  3.435059e-02    2.507593e-06
  3.464952e-02    2.459625e-06
  3.494845e-02    2.420477e-06
  3.524738e-02    2.379468e-06
  3.554631e-02    2.337905e-06
  3.584524e-02    2.297755e-06
  3.614417e-02    2.263769e-06
  3.644310e-02    2.232364e-06
  3.674204e-02    2.181577e-06
  3.704097e-02    2.172600e-06
  3.733990e-02    2.147866e-06
  3.763883e-02    2.110249e-06
  3.793776e-02    2.098602e-06
  3.823669e-02    2.075348e-06
  3.853562e-02    2.041244e-06
  3.883455e-02    2.019479e-06
  3.913348e-02    2.008956e-06
  3.943241e-02    2.011531e-06
  3.973134e-02    2.015488e-06
  4.003027e-02    1.983344e-06
  4.032920e-02    1.962728e-06
  4.062813e-02    1.953609e-06
  4.092706e-02    1.954236e-06
  4.122599e-02    1.944905e-06
  4.152492e-02    1.953559e-06
  4.182385e-02    1.941979e-06
  4.212278e-02    1.925385e-06
  4.242171e-02    1.911586e-06
  4.272064e-02    1.918161e-06
  4.301957e-02    1.930534e-06
  4.331850e-02    1.920227e-06
  4.361743e-02    1.922842e-06
  4.391636e-02    1.917580e-06
  4.421529e-02    1.917874e-06
  4.451423e-02    1.916386e-06
  4.481316e-02    1.923554e-06
  4.511209e-02    1.918353e-06
  4.541102e-02    1.898312e-06
  4.570995e-02    1.912517e-06
  4.600888e-02    1.931341e-06
  4.630781e-02    1.930496e-06
  4.660674e-02    1.922284e-06
  4.690567e-02    1.937944e-06
  4.720460e-02    1.936886e-06
  4.750353e-02    1.944662e-06
  4.780246e-02    1.948102e-06
  4.810139e-02    1.944004e-06
  4.840032e-02    1.947604e-06
  4.869925e-02    1.960411e-06
  4.899818e-02    1.961417e-06
  4.929711e-02    1.955436e-06
  4.959604e-02    1.961805e-06
  4.989497e-02    1.956558e-06
  5.019390e-02    1.971447e-06
  5.049283e-02    1.978638e-06
  5.079176e-02    1.992659e-06
  5.109069e-02    1.996005e-06
  5.138962e-02    1.989945e-06
  5.168855e-02    2.026009e-06
  5.198748e-02    2.048757e-06
  5.228642e-02    2.048137e-06
  5.258535e-02    2.021640e-06
  5.288428e-02    2.003773e-06
  5.318321e-02    1.996932e-06
  5.348214e-02    2.003441e-06
  5.378107e-02    1.994918e-06
  5.408000e-02    1.993094e-06
  5.437893e-02    1.982864e-06
  5.467786e-02    2.011566e-06
  5.497679e-02    2.008323e-06
  5.527572e-02    2.005290e-06
  5.557465e-02    2.015371e-06
  5.587358e-02    2.003588e-06
  5.617251e-02    1.989845e-06
  5.647144e-02    2.000243e-06
  5.677037e-02    2.000818e-06
  5.706930e-02    1.996392e-06
  5.736823e-02    1.995023e-06
  5.766716e-02    2.008800e-06
  5.796609e-02    2.004410e-06
  5.826502e-02    2.001087e-06
  5.856395e-02    1.995381e-06
  5.886288e-02    1.994699e-06
  5.916181e-02    1.998478e-06
  5.946074e-02    1.973037e-06
  5.975967e-02    1.972390e-06
  6.005861e-02    1.993088e-06
  6.035754e-02    2.013961e-06
  6.065647e-02    2.007547e-06
  6.095540e-02    2.004752e-06
  6.125433e-02    2.024463e-06
  6.155326e-02    2.022342e-06
  6.185219e-02    1.998977e-06
  6.215112e-02    1.973063e-06
  6.245005e-02    1.979358e-06
  6.274898e-02    1.979940e-06
  6.304791e-02    1.968842e-06
  6.334684e-02    1.970227e-06
  6.364577e-02    1.964106e-06
  6.394470e-02    1.951183e-06
  6.424363e-02    1.962150e-06
  6.454256e-02    1.964620e-06
  6.484149e-02    1.982113e-06
  6.514042e-02    1.972551e-06
  6.543935e-02    1.959135e-06
  6.573828e-02    1.940942e-06
  6.603721e-02    1.938459e-06
  6.633614e-02    1.958071e-06
  6.663507e-02    1.962898e-06
  6.693400e-02    1.952217e-06
  6.723293e-02    1.956850e-06
  6.753186e-02    1.943650e-06
  6.783080e-02    1.942662e-06
  6.812973e-02    1.949705e-06
  6.842866e-02    1.938833e-06
  6.872759e-02    1.940264e-06
  6.902652e-02    1.943637e-06
  6.932545e-02    1.942304e-06
  6.962438e-02    1.937245e-06
  6.992331e-02    1.933849e-06
  7.022224e-02    1.929191e-06
  7.052117e-02    1.929467e-06
  7.082010e-02    1.928915e-06
  7.111903e-02    1.928471e-06
  7.141796e-02    1.932907e-06
  7.171689e-02    1.936645e-06
  7.201582e-02    1.930502e-06
  7.231475e-02    1.930342e-06
  7.261368e-02    1.930310e-06
  7.291261e-02    1.942614e-06
  7.321154e-02    1.940597e-06
  7.351047e-02    1.928700e-06
  7.380940e-02    1.911290e-06
  7.410833e-02    1.920535e-06
  7.440726e-02    1.932615e-06
  7.470619e-02    1.930440e-06
  7.500512e-02    1.912031e-06
  7.530405e-02    1.902450e-06
  7.560299e-02    1.909953e-06
  7.590192e-02    1.916689e-06
  7.620085e-02    1.917438e-06
  7.649978e-02    1.910696e-06
  7.679871e-02    1.914916e-06
  7.709764e-02    1.911237e-06
  7.739657e-02    1.907926e-06
  7.769550e-02    1.906221e-06
  7.799443e-02    1.894649e-06
  7.829336e-02    1.896196e-06
  7.859229e-02    1.886623e-06
  7.889122e-02    1.884149e-06
  7.919015e-02    1.879490e-06
  7.948908e-02    1.871012e-06
  7.978801e-02    1.878911e-06
  8.008694e-02    1.882486e-06
  8.038587e-02    1.868294e-06
  8.068480e-02    1.869145e-06
  8.098373e-02    1.875976e-06
  8.128266e-02    1.882620e-06
  8.158159e-02    1.874391e-06
  8.188052e-02    1.869091e-06
  8.217945e-02    1.859207e-06
  8.247838e-02    1.866808e-06
  8.277731e-02    1.862267e-06
  8.307624e-02    1.850524e-06
  8.337518e-02    1.848198e-06
  8.367411e-02    1.841874e-06
  8.397304e-02    1.845084e-06
  8.427197e-02    1.832825e-06
  8.457090e-02    1.828160e-06
  8.486983e-02    1.833499e-06
  8.516876e-02    1.833169e-06
  8.546769e-02    1.832584e-06
  8.576662e-02    1.827679e-06
  8.606555e-02    1.823806e-06
  8.636448e-02    1.838117e-06
  8.666341e-02    1.824572e-06
  8.696234e-02    1.806840e-06
  8.726127e-02    1.815863e-06
  8.756020e-02    1.818633e-06
  8.785913e-02    1.814478e-06
  8.815806e-02    1.806242e-06
  8.845699e-02    1.795877e-06
  8.875592e-02    1.790387e-06
  8.905485e-02    1.799105e-06
  8.935378e-02    1.801141e-06
  8.965271e-02    1.791260e-06
  8.995164e-02    1.788773e-06
  9.025057e-02    1.788259e-06
  9.054950e-02    1.776510e-06
  9.084843e-02    1.782944e-06
  9.114737e-02    1.790472e-06
  9.144630e-02    1.783007e-06
  9.174523e-02    1.771201e-06
  9.204416e-02    1.765272e-06
  9.234309e-02    1.755220e-06
  9.264202e-02    1.762863e-06
  9.294095e-02    1.778822e-06
  9.323988e-02    1.778341e-06
  9.353881e-02    1.763841e-06
  9.383774e-02    1.760703e-06
  9.413667e-02    1.759648e-06
  9.443560e-02    1.764335e-06
  9.473453e-02    1.754059e-06
  9.503346e-02    1.756067e-06
  9.533239e-02    1.755498e-06
  9.563132e-02    1.746619e-06
  9.593025e-02    1.747956e-06
  9.622918e-02    1.758012e-06
  9.652811e-02    1.751810e-06
  9.682704e-02    1.744936e-06
  9.712597e-02    1.754320e-06
  9.742490e-02    1.746921e-06
  9.772383e-02    1.741053e-06
  9.802276e-02    1.734667e-06
  9.832169e-02    1.724376e-06
  9.862062e-02    1.732721e-06
  9.891956e-02    1.725027e-06
  9.921849e-02    1.725164e-06
  9.951742e-02    1.734778e-06
  9.981635e-02    1.720405e-06
  1.001153e-01    1.713865e-06
  1.004142e-01    1.710904e-06
  1.007131e-01    1.706265e-06
  1.010121e-01    1.711003e-06
  1.013110e-01    1.705752e-06
  1.016099e-01    1.699015e-06
  1.019089e-01    1.703507e-06
  1.022078e-01    1.701697e-06
  1.025067e-01    1.704055e-06
  1.028057e-01    1.702414e-06
  1.031046e-01    1.699498e-06
  1.034035e-01    1.691674e-06
  1.037024e-01    1.685831e-06
  1.040014e-01    1.686605e-06
  1.043003e-01    1.689100e-06
  1.045992e-01    1.687181e-06
  1.048982e-01    1.686779e-06
  1.051971e-01    1.688118e-06
  1.054960e-01    1.684467e-06
  1.057950e-01    1.684745e-06
  1.060939e-01    1.673872e-06
  1.063928e-01    1.673305e-06
  1.066917e-01    1.671501e-06
  1.069907e-01    1.672859e-06
  1.072896e-01    1.678743e-06
  1.075885e-01    1.669448e-06
  1.078875e-01    1.661760e-06
  1.081864e-01    1.665865e-06
  1.084853e-01    1.657284e-06
  1.087843e-01    1.667502e-06
  1.090832e-01    1.677016e-06
  1.093821e-01    1.657603e-06
  1.096810e-01    1.665974e-06
  1.099800e-01    1.653458e-06
  1.102789e-01    1.636332e-06
  1.105778e-01    1.634491e-06
  1.108768e-01    1.648731e-06
  1.111757e-01    1.647260e-06
  1.114746e-01    1.625584e-06
  1.117736e-01    1.616404e-06
  1.120725e-01    1.612793e-06
  1.123714e-01    1.597316e-06
  1.126704e-01    1.590025e-06
  1.129693e-01    1.576014e-06
  1.132682e-01    1.583334e-06
  1.135671e-01    1.578749e-06
  1.138661e-01    1.551617e-06
  1.141650e-01    1.565229e-06
  1.144639e-01    1.582913e-06
  1.147629e-01    1.567818e-06
  1.150618e-01    1.559546e-06
  1.153607e-01    1.564999e-06
  1.156597e-01    1.552404e-06
  1.159586e-01    1.535735e-06
  1.162575e-01    1.531037e-06
  1.165564e-01    1.552468e-06
  1.168554e-01    1.553209e-06
  1.171543e-01    1.524916e-06
  1.174532e-01    1.525198e-06
  1.177522e-01    1.547455e-06
  1.180511e-01    1.587376e-06
  1.183500e-01    1.557037e-06
  1.186490e-01    1.538371e-06
  1.189479e-01    1.540757e-06
  1.192468e-01    1.520974e-06
  1.195458e-01    1.546144e-06
  1.198447e-01    1.513608e-06
  1.201436e-01    1.484470e-06
  1.204425e-01    1.540891e-06
  1.207415e-01    1.490596e-06
  1.210404e-01    1.444232e-06
  1.213393e-01    0.000000e+00
  1.216383e-01    0.000000e+00
  1.219372e-01    0.000000e+00
  1.222361e-01    0.000000e+00
  1.225351e-01    0.000000e+00
  1.228340e-01    0.000000e+00
  1.231329e-01    0.000000e+00
  1.234318e-01    0.000000e+00
  1.237308e-01    0.000000e+00
  1.240297e-01    0.000000e+00
  1.243286e-01    0.000000e+00
  1.246276e-01    0.000000e+00
  1.249265e-01    0.000000e+00
  1.252254e-01    0.000000e+00
  1.255244e-01    0.000000e+00
  1.258233e-01    0.000000e+00
  1.261222e-01    0.000000e+00
  1.264212e-01    0.000000e+00
  1.267201e-01    0.000000e+00
  1.270190e-01    0.000000e+00
  1.273179e-01    0.000000e+00
  1.276169e-01    0.000000e+00
  1.279158e-01    0.000000e+00
  1.282147e-01    0.000000e+00
  1.285137e-01    0.000000e+00
  1.288126e-01    0.000000e+00
  1.291115e-01    0.000000e+00
  1.294105e-01    0.000000e+00
  1.297094e-01    0.000000e+00
  1.300083e-01    0.000000e+00
  1.303072e-01    0.000000e+00
  1.306062e-01    0.000000e+00
  1.309051e-01    0.000000e+00
  1.312040e-01    0.000000e+00
  1.315030e-01    0.000000e+00
  1.318019e-01    0.000000e+00
  1.321008e-01    0.000000e+00
  1.323998e-01    0.000000e+00
  1.326987e-01    0.000000e+00
  1.329976e-01    0.000000e+00
  1.332965e-01    0.000000e+00
  1.335955e-01    0.000000e+00
  1.338944e-01    0.000000e+00
  1.341933e-01    0.000000e+00
  1.344923e-01    0.000000e+00
  1.347912e-01    0.000000e+00
  1.350901e-01    0.000000e+00
  1.353891e-01    0.000000e+00
  1.356880e-01    0.000000e+00
  1.359869e-01    0.000000e+00
  1.362859e-01    0.000000e+00
  1.365848e-01    0.000000e+00
  1.368837e-01    0.000000e+00
  1.371826e-01    0.000000e+00
  1.374816e-01    0.000000e+00
  1.377805e-01    0.000000e+00
  1.380794e-01    0.000000e+00
  1.383784e-01    0.000000e+00
  1.386773e-01    0.000000e+00
  1.389762e-01    0.000000e+00
  1.392752e-01    0.000000e+00
  1.395741e-01    0.000000e+00
  1.398730e-01    0.000000e+00
  1.401719e-01    0.000000e+00
  1.404709e-01    0.000000e+00
  1.407698e-01    0.000000e+00
  1.410687e-01    0.000000e+00
  1.413677e-01    0.000000e+00
  1.416666e-01    0.000000e+00
  1.419655e-01    0.000000e+00
  1.422645e-01    0.000000e+00
  1.425634e-01    0.000000e+00
  1.428623e-01    0.000000e+00
  1.431613e-01    0.000000e+00
  1.434602e-01    0.000000e+00
  1.437591e-01    0.000000e+00
  1.440580e-01    0.000000e+00
  1.443570e-01    0.000000e+00
  1.446559e-01    0.000000e+00
  1.449548e-01    0.000000e+00
  1.452538e-01    0.000000e+00
  1.455527e-01    0.000000e+00
  1.458516e-01    0.000000e+00
  1.461506e-01    0.000000e+00
  1.464495e-01    0.000000e+00
  1.467484e-01    0.000000e+00
  1.470473e-01    0.000000e+00
  1.473463e-01    0.000000e+00
  1.476452e-01    0.000000e+00
  1.479441e-01    0.000000e+00
  1.482431e-01    0.000000e+00
  1.485420e-01    0.000000e+00
  1.488409e-01    0.000000e+00
  1.491399e-01    0.000000e+00
  1.494388e-01    0.000000e+00
  1.497377e-01    0.000000e+00
  1.500367e-01    0.000000e+00
  1.503356e-01    0.000000e+00
  1.506345e-01    0.000000e+00
  1.509334e-01    0.000000e+00
  1.512324e-01    0.000000e+00
  1.515313e-01    0.000000e+00
  1.518302e-01    0.000000e+00
  1.521292e-01    0.000000e+00
  1.524281e-01    0.000000e+00
  1.527270e-01    0.000000e+00
  1.530260e-01    0.000000e+00
  1.533249e-01    0.000000e+00
  1.536238e-01    0.000000e+00
