# == pyFAI calibration ==
# Distance Sample to Detector: 2.266 m
# PONI: 5.659e-02, 4.293e-02 m
# Rotations: 0.000000 0.000000 0.000000 rad
# 
# == Fit2d calibration ==
# Distance Sample-beamCenter: 2266.000 mm
# Center: x=249.594, y=329.012 pix
# Tilt: 0.000 deg  TiltPlanRot: 0.000 deg
# 
# Detector Pilatus 300k	 PixelSize= 1.720e-04, 1.720e-04 m
#    Detector has a mask: True 
#    Detector has a dark current: False 
#    detector has a flat field: False 
# 
# Wavelength: 1.27818e-10 m
# Mask applied: user provided
# Dark current applied: False
# Flat field applied: False
# Polarization factor: None
# Normalization factor: 1068743.6
# --> F127_125.796_hexanes_3.457_EtOH_69.728_NaCl_99.322mgml_2_r1d.csv
#        q_A^-1             I 
  4.457554e-03    2.816851e-03
  4.756484e-03    2.137273e-03
  5.055415e-03    1.506886e-03
  5.354345e-03    1.086974e-03
  5.653276e-03    8.472573e-04
  5.952206e-03    1.253722e-03
  6.251136e-03    1.148942e-03
  6.550067e-03    1.004671e-03
  6.848997e-03    8.577228e-04
  7.147927e-03    7.272689e-04
  7.446858e-03    6.271401e-04
  7.745788e-03    5.403177e-04
  8.044719e-03    4.685486e-04
  8.343649e-03    4.108537e-04
  8.642579e-03    3.576807e-04
  8.941510e-03    3.170909e-04
  9.240440e-03    2.831560e-04
  9.539371e-03    2.511872e-04
  9.838301e-03    2.234689e-04
  1.013723e-02    2.001837e-04
  1.043616e-02    1.798522e-04
  1.073509e-02    1.610001e-04
  1.103402e-02    1.460632e-04
  1.133295e-02    1.326088e-04
  1.163188e-02    1.210634e-04
  1.193081e-02    1.105660e-04
  1.222974e-02    9.995904e-05
  1.252867e-02    9.190061e-05
  1.282760e-02    8.440024e-05
  1.312654e-02    7.749576e-05
  1.342547e-02    7.135317e-05
  1.372440e-02    6.584340e-05
  1.402333e-02    6.108507e-05
  1.432226e-02    5.721025e-05
  1.462119e-02    5.249479e-05
  1.492012e-02    4.889070e-05
  1.521905e-02    4.630290e-05
  1.551798e-02    4.291614e-05
  1.581691e-02    3.974251e-05
  1.611584e-02    3.711545e-05
  1.641477e-02    3.529124e-05
  1.671370e-02    3.331109e-05
  1.701263e-02    3.140911e-05
  1.731156e-02    2.999636e-05
  1.761049e-02    2.870994e-05
  1.790942e-02    2.691749e-05
  1.820835e-02    2.544254e-05
  1.850728e-02    2.400896e-05
  1.880621e-02    2.309288e-05
  1.910514e-02    2.197777e-05
  1.940407e-02    2.108493e-05
  1.970300e-02    2.023746e-05
  2.000193e-02    1.929956e-05
  2.030086e-02    1.804163e-05
  2.059979e-02    1.760339e-05
  2.089873e-02    1.711702e-05
  2.119766e-02    1.656354e-05
  2.149659e-02    1.577803e-05
  2.179552e-02    1.510716e-05
  2.209445e-02    1.462665e-05
  2.239338e-02    1.432054e-05
  2.269231e-02    1.393325e-05
  2.299124e-02    1.336651e-05
  2.329017e-02    1.269035e-05
  2.358910e-02    1.241584e-05
  2.388803e-02    1.244454e-05
  2.418696e-02    1.211626e-05
  2.448589e-02    1.168453e-05
  2.478482e-02    1.160884e-05
  2.508375e-02    1.132353e-05
  2.538268e-02    1.100041e-05
  2.568161e-02    1.078113e-05
  2.598054e-02    1.073202e-05
  2.627947e-02    1.077381e-05
  2.657840e-02    1.064020e-05
  2.687733e-02    1.019656e-05
  2.717626e-02    9.906895e-06
  2.747519e-02    9.873119e-06
  2.777412e-02    9.736517e-06
  2.807305e-02    9.580915e-06
  2.837198e-02    9.610359e-06
  2.867092e-02    9.453518e-06
  2.896985e-02    9.339769e-06
  2.926878e-02    9.131546e-06
  2.956771e-02    9.133020e-06
  2.986664e-02    8.994156e-06
  3.016557e-02    8.585357e-06
  3.046450e-02    8.676942e-06
  3.076343e-02    8.763071e-06
  3.106236e-02    8.562735e-06
  3.136129e-02    8.304037e-06
  3.166022e-02    8.217530e-06
  3.195915e-02    8.070482e-06
  3.225808e-02    8.121535e-06
  3.255701e-02    8.072062e-06
  3.285594e-02    7.960899e-06
  3.315487e-02    7.994599e-06
  3.345380e-02    7.712019e-06
  3.375273e-02    7.447860e-06
  3.405166e-02    7.530210e-06
  3.435059e-02    7.535309e-06
  3.464952e-02    7.493015e-06
  3.494845e-02    7.433674e-06
  3.524738e-02    7.260932e-06
  3.554631e-02    7.116373e-06
  3.584524e-02    7.079412e-06
  3.614417e-02    7.111088e-06
  3.644310e-02    7.002479e-06
  3.674204e-02    6.840376e-06
  3.704097e-02    6.784124e-06
  3.733990e-02    6.887090e-06
  3.763883e-02    6.850081e-06
  3.793776e-02    6.579979e-06
  3.823669e-02    6.495321e-06
  3.853562e-02    6.444519e-06
  3.883455e-02    6.328406e-06
  3.913348e-02    6.317884e-06
  3.943241e-02    6.185281e-06
  3.973134e-02    6.176188e-06
  4.003027e-02    6.206123e-06
  4.032920e-02    6.077398e-06
  4.062813e-02    6.067953e-06
  4.092706e-02    6.000221e-06
  4.122599e-02    5.966886e-06
  4.152492e-02    5.904807e-06
  4.182385e-02    6.071810e-06
  4.212278e-02    6.016475e-06
  4.242171e-02    5.911504e-06
  4.272064e-02    5.849344e-06
  4.301957e-02    5.827631e-06
  4.331850e-02    5.815224e-06
  4.361743e-02    5.814161e-06
  4.391636e-02    5.793620e-06
  4.421529e-02    5.677841e-06
  4.451423e-02    5.580686e-06
  4.481316e-02    5.682147e-06
  4.511209e-02    5.725854e-06
  4.541102e-02    5.681826e-06
  4.570995e-02    5.663260e-06
  4.600888e-02    5.613203e-06
  4.630781e-02    5.507666e-06
  4.660674e-02    5.678643e-06
  4.690567e-02    5.661195e-06
  4.720460e-02    5.618984e-06
  4.750353e-02    5.635950e-06
  4.780246e-02    5.628262e-06
  4.810139e-02    5.618449e-06
  4.840032e-02    5.642642e-06
  4.869925e-02    5.530905e-06
  4.899818e-02    5.519242e-06
  4.929711e-02    5.480816e-06
  4.959604e-02    5.478471e-06
  4.989497e-02    5.592683e-06
  5.019390e-02    5.723889e-06
  5.049283e-02    5.655417e-06
  5.079176e-02    5.517800e-06
  5.109069e-02    5.661257e-06
  5.138962e-02    5.824295e-06
  5.168855e-02    5.909073e-06
  5.198748e-02    6.120580e-06
  5.228642e-02    5.888380e-06
  5.258535e-02    5.602694e-06
  5.288428e-02    5.515728e-06
  5.318321e-02    5.468605e-06
  5.348214e-02    5.382282e-06
  5.378107e-02    5.348792e-06
  5.408000e-02    5.240880e-06
  5.437893e-02    5.386734e-06
  5.467786e-02    5.400279e-06
  5.497679e-02    5.412031e-06
  5.527572e-02    5.371420e-06
  5.557465e-02    5.456975e-06
  5.587358e-02    5.395416e-06
  5.617251e-02    5.354901e-06
  5.647144e-02    5.407899e-06
  5.677037e-02    5.404841e-06
  5.706930e-02    5.396205e-06
  5.736823e-02    5.358470e-06
  5.766716e-02    5.402114e-06
  5.796609e-02    5.421725e-06
  5.826502e-02    5.473714e-06
  5.856395e-02    5.421516e-06
  5.886288e-02    5.400314e-06
  5.916181e-02    5.406240e-06
  5.946074e-02    5.353469e-06
  5.975967e-02    5.342292e-06
  6.005861e-02    5.458779e-06
  6.035754e-02    5.580118e-06
  6.065647e-02    5.593336e-06
  6.095540e-02    5.454295e-06
  6.125433e-02    5.649948e-06
  6.155326e-02    5.793976e-06
  6.185219e-02    5.587377e-06
  6.215112e-02    5.413105e-06
  6.245005e-02    5.435008e-06
  6.274898e-02    5.496649e-06
  6.304791e-02    5.488835e-06
  6.334684e-02    5.442451e-06
  6.364577e-02    5.367181e-06
  6.394470e-02    5.417206e-06
  6.424363e-02    5.503589e-06
  6.454256e-02    5.471484e-06
  6.484149e-02    5.484019e-06
  6.514042e-02    5.567027e-06
  6.543935e-02    5.531793e-06
  6.573828e-02    5.522489e-06
  6.603721e-02    5.519412e-06
  6.633614e-02    5.466326e-06
  6.663507e-02    5.531503e-06
  6.693400e-02    5.579410e-06
  6.723293e-02    5.595227e-06
  6.753186e-02    5.628599e-06
  6.783080e-02    5.636422e-06
  6.812973e-02    5.580672e-06
  6.842866e-02    5.547327e-06
  6.872759e-02    5.592962e-06
  6.902652e-02    5.662305e-06
  6.932545e-02    5.665730e-06
  6.962438e-02    5.629109e-06
  6.992331e-02    5.659035e-06
  7.022224e-02    5.725358e-06
  7.052117e-02    5.720302e-06
  7.082010e-02    5.746958e-06
  7.111903e-02    5.700809e-06
  7.141796e-02    5.653488e-06
  7.171689e-02    5.570508e-06
  7.201582e-02    5.640229e-06
  7.231475e-02    5.664846e-06
  7.261368e-02    5.628280e-06
  7.291261e-02    5.708302e-06
  7.321154e-02    5.679529e-06
  7.351047e-02    5.722236e-06
  7.380940e-02    5.738332e-06
  7.410833e-02    5.711179e-06
  7.440726e-02    5.693594e-06
  7.470619e-02    5.611365e-06
  7.500512e-02    5.691755e-06
  7.530405e-02    5.720594e-06
  7.560299e-02    5.701554e-06
  7.590192e-02    5.593060e-06
  7.620085e-02    5.719945e-06
  7.649978e-02    5.776080e-06
  7.679871e-02    5.757509e-06
  7.709764e-02    5.701826e-06
  7.739657e-02    5.669135e-06
  7.769550e-02    5.721722e-06
  7.799443e-02    5.708665e-06
  7.829336e-02    5.664299e-06
  7.859229e-02    5.703390e-06
  7.889122e-02    5.708223e-06
  7.919015e-02    5.654376e-06
  7.948908e-02    5.686620e-06
  7.978801e-02    5.785692e-06
  8.008694e-02    5.805299e-06
  8.038587e-02    5.668764e-06
  8.068480e-02    5.637305e-06
  8.098373e-02    5.607580e-06
  8.128266e-02    5.674682e-06
  8.158159e-02    5.635475e-06
  8.188052e-02    5.522827e-06
  8.217945e-02    5.610206e-06
  8.247838e-02    5.592877e-06
  8.277731e-02    5.662892e-06
  8.307624e-02    5.674814e-06
  8.337518e-02    5.611048e-06
  8.367411e-02    5.518256e-06
  8.397304e-02    5.533428e-06
  8.427197e-02    5.555278e-06
  8.457090e-02    5.497762e-06
  8.486983e-02    5.492876e-06
  8.516876e-02    5.452535e-06
  8.546769e-02    5.534374e-06
  8.576662e-02    5.488122e-06
  8.606555e-02    5.452983e-06
  8.636448e-02    5.515060e-06
  8.666341e-02    5.520199e-06
  8.696234e-02    5.504989e-06
  8.726127e-02    5.460742e-06
  8.756020e-02    5.441586e-06
  8.785913e-02    5.486401e-06
  8.815806e-02    5.444958e-06
  8.845699e-02    5.336942e-06
  8.875592e-02    5.373696e-06
  8.905485e-02    5.477218e-06
  8.935378e-02    5.401689e-06
  8.965271e-02    5.341205e-06
  8.995164e-02    5.277475e-06
  9.025057e-02    5.347090e-06
  9.054950e-02    5.374731e-06
  9.084843e-02    5.301672e-06
  9.114737e-02    5.381190e-06
  9.144630e-02    5.322092e-06
  9.174523e-02    5.279761e-06
  9.204416e-02    5.320552e-06
  9.234309e-02    5.240356e-06
  9.264202e-02    5.110337e-06
  9.294095e-02    5.167471e-06
  9.323988e-02    5.170859e-06
  9.353881e-02    5.155009e-06
  9.383774e-02    5.219253e-06
  9.413667e-02    5.217632e-06
  9.443560e-02    5.142661e-06
  9.473453e-02    5.195771e-06
  9.503346e-02    5.280905e-06
  9.533239e-02    5.319838e-06
  9.563132e-02    5.174782e-06
  9.593025e-02    5.142896e-06
  9.622918e-02    5.177832e-06
  9.652811e-02    5.221568e-06
  9.682704e-02    5.282446e-06
  9.712597e-02    5.258034e-06
  9.742490e-02    5.248341e-06
  9.772383e-02    5.214622e-06
  9.802276e-02    5.104759e-06
  9.832169e-02    5.114072e-06
  9.862062e-02    5.080218e-06
  9.891956e-02    5.039644e-06
  9.921849e-02    5.114360e-06
  9.951742e-02    5.063886e-06
  9.981635e-02    5.029254e-06
  1.001153e-01    5.019474e-06
  1.004142e-01    4.924163e-06
  1.007131e-01    4.876859e-06
  1.010121e-01    4.854170e-06
  1.013110e-01    4.901494e-06
  1.016099e-01    4.898445e-06
  1.019089e-01    4.923508e-06
  1.022078e-01    4.848183e-06
  1.025067e-01    4.851007e-06
  1.028057e-01    4.759451e-06
  1.031046e-01    4.782655e-06
  1.034035e-01    4.785446e-06
  1.037024e-01    4.759050e-06
  1.040014e-01    4.784441e-06
  1.043003e-01    4.854786e-06
  1.045992e-01    4.843295e-06
  1.048982e-01    4.754706e-06
  1.051971e-01    4.791869e-06
  1.054960e-01    4.777022e-06
  1.057950e-01    4.724251e-06
  1.060939e-01    4.796919e-06
  1.063928e-01    4.854834e-06
  1.066917e-01    4.823399e-06
  1.069907e-01    4.791786e-06
  1.072896e-01    4.708185e-06
  1.075885e-01    4.616199e-06
  1.078875e-01    4.652371e-06
  1.081864e-01    4.668732e-06
  1.084853e-01    4.744418e-06
  1.087843e-01    4.807001e-06
  1.090832e-01    4.747064e-06
  1.093821e-01    4.703066e-06
  1.096810e-01    4.733302e-06
  1.099800e-01    4.681535e-06
  1.102789e-01    4.614913e-06
  1.105778e-01    4.617377e-06
  1.108768e-01    4.648321e-06
  1.111757e-01    4.630366e-06
  1.114746e-01    4.619046e-06
  1.117736e-01    4.730809e-06
  1.120725e-01    4.659842e-06
  1.123714e-01    4.552712e-06
  1.126704e-01    4.639889e-06
  1.129693e-01    4.567421e-06
  1.132682e-01    4.558301e-06
  1.135671e-01    4.603191e-06
  1.138661e-01    4.628715e-06
  1.141650e-01    4.529369e-06
  1.144639e-01    4.540104e-06
  1.147629e-01    4.503592e-06
  1.150618e-01    4.364011e-06
  1.153607e-01    4.353130e-06
  1.156597e-01    4.517381e-06
  1.159586e-01    4.564754e-06
  1.162575e-01    4.514407e-06
  1.165564e-01    4.442399e-06
  1.168554e-01    4.469402e-06
  1.171543e-01    4.353306e-06
  1.174532e-01    4.410932e-06
  1.177522e-01    4.450207e-06
  1.180511e-01    4.449552e-06
  1.183500e-01    4.434121e-06
  1.186490e-01    4.351573e-06
  1.189479e-01    4.259186e-06
  1.192468e-01    4.329803e-06
  1.195458e-01    4.487345e-06
  1.198447e-01    3.997682e-06
  1.201436e-01    3.910311e-06
  1.204425e-01    4.541754e-06
  1.207415e-01    4.648620e-06
  1.210404e-01    3.746103e-06
  1.213393e-01    0.000000e+00
  1.216383e-01    0.000000e+00
  1.219372e-01    0.000000e+00
  1.222361e-01    0.000000e+00
  1.225351e-01    0.000000e+00
  1.228340e-01    0.000000e+00
  1.231329e-01    0.000000e+00
  1.234318e-01    0.000000e+00
  1.237308e-01    0.000000e+00
  1.240297e-01    0.000000e+00
  1.243286e-01    0.000000e+00
  1.246276e-01    0.000000e+00
  1.249265e-01    0.000000e+00
  1.252254e-01    0.000000e+00
  1.255244e-01    0.000000e+00
  1.258233e-01    0.000000e+00
  1.261222e-01    0.000000e+00
  1.264212e-01    0.000000e+00
  1.267201e-01    0.000000e+00
  1.270190e-01    0.000000e+00
  1.273179e-01    0.000000e+00
  1.276169e-01    0.000000e+00
  1.279158e-01    0.000000e+00
  1.282147e-01    0.000000e+00
  1.285137e-01    0.000000e+00
  1.288126e-01    0.000000e+00
  1.291115e-01    0.000000e+00
  1.294105e-01    0.000000e+00
  1.297094e-01    0.000000e+00
  1.300083e-01    0.000000e+00
  1.303072e-01    0.000000e+00
  1.306062e-01    0.000000e+00
  1.309051e-01    0.000000e+00
  1.312040e-01    0.000000e+00
  1.315030e-01    0.000000e+00
  1.318019e-01    0.000000e+00
  1.321008e-01    0.000000e+00
  1.323998e-01    0.000000e+00
  1.326987e-01    0.000000e+00
  1.329976e-01    0.000000e+00
  1.332965e-01    0.000000e+00
  1.335955e-01    0.000000e+00
  1.338944e-01    0.000000e+00
  1.341933e-01    0.000000e+00
  1.344923e-01    0.000000e+00
  1.347912e-01    0.000000e+00
  1.350901e-01    0.000000e+00
  1.353891e-01    0.000000e+00
  1.356880e-01    0.000000e+00
  1.359869e-01    0.000000e+00
  1.362859e-01    0.000000e+00
  1.365848e-01    0.000000e+00
  1.368837e-01    0.000000e+00
  1.371826e-01    0.000000e+00
  1.374816e-01    0.000000e+00
  1.377805e-01    0.000000e+00
  1.380794e-01    0.000000e+00
  1.383784e-01    0.000000e+00
  1.386773e-01    0.000000e+00
  1.389762e-01    0.000000e+00
  1.392752e-01    0.000000e+00
  1.395741e-01    0.000000e+00
  1.398730e-01    0.000000e+00
  1.401719e-01    0.000000e+00
  1.404709e-01    0.000000e+00
  1.407698e-01    0.000000e+00
  1.410687e-01    0.000000e+00
  1.413677e-01    0.000000e+00
  1.416666e-01    0.000000e+00
  1.419655e-01    0.000000e+00
  1.422645e-01    0.000000e+00
  1.425634e-01    0.000000e+00
  1.428623e-01    0.000000e+00
  1.431613e-01    0.000000e+00
  1.434602e-01    0.000000e+00
  1.437591e-01    0.000000e+00
  1.440580e-01    0.000000e+00
  1.443570e-01    0.000000e+00
  1.446559e-01    0.000000e+00
  1.449548e-01    0.000000e+00
  1.452538e-01    0.000000e+00
  1.455527e-01    0.000000e+00
  1.458516e-01    0.000000e+00
  1.461506e-01    0.000000e+00
  1.464495e-01    0.000000e+00
  1.467484e-01    0.000000e+00
  1.470473e-01    0.000000e+00
  1.473463e-01    0.000000e+00
  1.476452e-01    0.000000e+00
  1.479441e-01    0.000000e+00
  1.482431e-01    0.000000e+00
  1.485420e-01    0.000000e+00
  1.488409e-01    0.000000e+00
  1.491399e-01    0.000000e+00
  1.494388e-01    0.000000e+00
  1.497377e-01    0.000000e+00
  1.500367e-01    0.000000e+00
  1.503356e-01    0.000000e+00
  1.506345e-01    0.000000e+00
  1.509334e-01    0.000000e+00
  1.512324e-01    0.000000e+00
  1.515313e-01    0.000000e+00
  1.518302e-01    0.000000e+00
  1.521292e-01    0.000000e+00
  1.524281e-01    0.000000e+00
  1.527270e-01    0.000000e+00
  1.530260e-01    0.000000e+00
  1.533249e-01    0.000000e+00
  1.536238e-01    0.000000e+00
