# == pyFAI calibration ==
# Distance Sample to Detector: 2.266 m
# PONI: 5.659e-02, 4.293e-02 m
# Rotations: 0.000000 0.000000 0.000000 rad
# 
# == Fit2d calibration ==
# Distance Sample-beamCenter: 2266.000 mm
# Center: x=249.594, y=329.012 pix
# Tilt: 0.000 deg  TiltPlanRot: 0.000 deg
# 
# Detector Pilatus 300k	 PixelSize= 1.720e-04, 1.720e-04 m
#    Detector has a mask: True 
#    Detector has a dark current: False 
#    detector has a flat field: False 
# 
# Wavelength: 1.27818e-10 m
# Mask applied: user provided
# Dark current applied: False
# Flat field applied: False
# Polarization factor: None
# Normalization factor: 5625416.2
# --> F127_24.500_hexanes_22.050_NaCl_0.000mgml_r1d.csv
#        q_A^-1             I 
  4.457554e-03    2.314554e-03
  4.756484e-03    1.799596e-03
  5.055415e-03    1.266813e-03
  5.354345e-03    8.864488e-04
  5.653276e-03    6.771377e-04
  5.952206e-03    1.092338e-03
  6.251136e-03    9.995733e-04
  6.550067e-03    8.707846e-04
  6.848997e-03    7.412221e-04
  7.147927e-03    6.258935e-04
  7.446858e-03    5.344762e-04
  7.745788e-03    4.573775e-04
  8.044719e-03    3.922637e-04
  8.343649e-03    3.424943e-04
  8.642579e-03    3.005039e-04
  8.941510e-03    2.639901e-04
  9.240440e-03    2.331586e-04
  9.539371e-03    2.071863e-04
  9.838301e-03    1.845283e-04
  1.013723e-02    1.643775e-04
  1.043616e-02    1.472002e-04
  1.073509e-02    1.319352e-04
  1.103402e-02    1.198372e-04
  1.133295e-02    1.091053e-04
  1.163188e-02    9.894319e-05
  1.193081e-02    8.992021e-05
  1.222974e-02    8.232048e-05
  1.252867e-02    7.553952e-05
  1.282760e-02    6.946291e-05
  1.312654e-02    6.373945e-05
  1.342547e-02    5.921036e-05
  1.372440e-02    5.487293e-05
  1.402333e-02    5.097201e-05
  1.432226e-02    4.736450e-05
  1.462119e-02    4.412838e-05
  1.492012e-02    4.119671e-05
  1.521905e-02    3.839520e-05
  1.551798e-02    3.593147e-05
  1.581691e-02    3.375102e-05
  1.611584e-02    3.183151e-05
  1.641477e-02    3.008985e-05
  1.671370e-02    2.850109e-05
  1.701263e-02    2.676664e-05
  1.731156e-02    2.526719e-05
  1.761049e-02    2.408579e-05
  1.790942e-02    2.286576e-05
  1.820835e-02    2.176064e-05
  1.850728e-02    2.069359e-05
  1.880621e-02    1.973272e-05
  1.910514e-02    1.908498e-05
  1.940407e-02    1.835010e-05
  1.970300e-02    1.752693e-05
  2.000193e-02    1.678660e-05
  2.030086e-02    1.617243e-05
  2.059979e-02    1.555453e-05
  2.089873e-02    1.504093e-05
  2.119766e-02    1.456120e-05
  2.149659e-02    1.420931e-05
  2.179552e-02    1.376421e-05
  2.209445e-02    1.330623e-05
  2.239338e-02    1.292940e-05
  2.269231e-02    1.253898e-05
  2.299124e-02    1.214565e-05
  2.329017e-02    1.182444e-05
  2.358910e-02    1.147248e-05
  2.388803e-02    1.117368e-05
  2.418696e-02    1.092101e-05
  2.448589e-02    1.069678e-05
  2.478482e-02    1.058171e-05
  2.508375e-02    1.030941e-05
  2.538268e-02    1.012066e-05
  2.568161e-02    9.998852e-06
  2.598054e-02    9.724826e-06
  2.627947e-02    9.562616e-06
  2.657840e-02    9.421828e-06
  2.687733e-02    9.323814e-06
  2.717626e-02    9.163562e-06
  2.747519e-02    8.993665e-06
  2.777412e-02    8.940492e-06
  2.807305e-02    8.842534e-06
  2.837198e-02    8.759424e-06
  2.867092e-02    8.600376e-06
  2.896985e-02    8.425409e-06
  2.926878e-02    8.306841e-06
  2.956771e-02    8.328787e-06
  2.986664e-02    8.226712e-06
  3.016557e-02    8.086258e-06
  3.046450e-02    8.036737e-06
  3.076343e-02    7.948690e-06
  3.106236e-02    7.827931e-06
  3.136129e-02    7.802555e-06
  3.166022e-02    7.719873e-06
  3.195915e-02    7.628407e-06
  3.225808e-02    7.506431e-06
  3.255701e-02    7.531045e-06
  3.285594e-02    7.426965e-06
  3.315487e-02    7.378706e-06
  3.345380e-02    7.341078e-06
  3.375273e-02    7.257852e-06
  3.405166e-02    7.224695e-06
  3.435059e-02    7.083748e-06
  3.464952e-02    6.931480e-06
  3.494845e-02    6.929877e-06
  3.524738e-02    6.861902e-06
  3.554631e-02    6.789644e-06
  3.584524e-02    6.658644e-06
  3.614417e-02    6.527558e-06
  3.644310e-02    6.495647e-06
  3.674204e-02    6.507842e-06
  3.704097e-02    6.507814e-06
  3.733990e-02    6.444225e-06
  3.763883e-02    6.372650e-06
  3.793776e-02    6.373687e-06
  3.823669e-02    6.301113e-06
  3.853562e-02    6.200840e-06
  3.883455e-02    6.181139e-06
  3.913348e-02    6.141245e-06
  3.943241e-02    6.099846e-06
  3.973134e-02    6.088308e-06
  4.003027e-02    6.062835e-06
  4.032920e-02    6.008497e-06
  4.062813e-02    5.985478e-06
  4.092706e-02    5.959276e-06
  4.122599e-02    5.932133e-06
  4.152492e-02    5.881707e-06
  4.182385e-02    5.872789e-06
  4.212278e-02    5.880445e-06
  4.242171e-02    5.845632e-06
  4.272064e-02    5.794654e-06
  4.301957e-02    5.805869e-06
  4.331850e-02    5.770354e-06
  4.361743e-02    5.659921e-06
  4.391636e-02    5.685773e-06
  4.421529e-02    5.727928e-06
  4.451423e-02    5.696787e-06
  4.481316e-02    5.668989e-06
  4.511209e-02    5.657115e-06
  4.541102e-02    5.666589e-06
  4.570995e-02    5.695050e-06
  4.600888e-02    5.682071e-06
  4.630781e-02    5.691709e-06
  4.660674e-02    5.654136e-06
  4.690567e-02    5.610985e-06
  4.720460e-02    5.637212e-06
  4.750353e-02    5.639153e-06
  4.780246e-02    5.574100e-06
  4.810139e-02    5.554969e-06
  4.840032e-02    5.579655e-06
  4.869925e-02    5.579366e-06
  4.899818e-02    5.580470e-06
  4.929711e-02    5.598045e-06
  4.959604e-02    5.579458e-06
  4.989497e-02    5.573908e-06
  5.019390e-02    5.589444e-06
  5.049283e-02    5.643851e-06
  5.079176e-02    5.609478e-06
  5.109069e-02    5.578086e-06
  5.138962e-02    5.632495e-06
  5.168855e-02    5.796940e-06
  5.198748e-02    5.910089e-06
  5.228642e-02    5.839031e-06
  5.258535e-02    5.623300e-06
  5.288428e-02    5.578182e-06
  5.318321e-02    5.549162e-06
  5.348214e-02    5.532705e-06
  5.378107e-02    5.556218e-06
  5.408000e-02    5.578552e-06
  5.437893e-02    5.580735e-06
  5.467786e-02    5.580477e-06
  5.497679e-02    5.586770e-06
  5.527572e-02    5.567976e-06
  5.557465e-02    5.558948e-06
  5.587358e-02    5.564170e-06
  5.617251e-02    5.532997e-06
  5.647144e-02    5.536041e-06
  5.677037e-02    5.566254e-06
  5.706930e-02    5.546475e-06
  5.736823e-02    5.525868e-06
  5.766716e-02    5.547727e-06
  5.796609e-02    5.593884e-06
  5.826502e-02    5.600339e-06
  5.856395e-02    5.609570e-06
  5.886288e-02    5.602613e-06
  5.916181e-02    5.571170e-06
  5.946074e-02    5.575471e-06
  5.975967e-02    5.601483e-06
  6.005861e-02    5.663634e-06
  6.035754e-02    5.688238e-06
  6.065647e-02    5.652492e-06
  6.095540e-02    5.692175e-06
  6.125433e-02    5.817010e-06
  6.155326e-02    5.882344e-06
  6.185219e-02    5.750629e-06
  6.215112e-02    5.683758e-06
  6.245005e-02    5.663029e-06
  6.274898e-02    5.674452e-06
  6.304791e-02    5.706840e-06
  6.334684e-02    5.712298e-06
  6.364577e-02    5.690125e-06
  6.394470e-02    5.691889e-06
  6.424363e-02    5.715358e-06
  6.454256e-02    5.760977e-06
  6.484149e-02    5.737502e-06
  6.514042e-02    5.734019e-06
  6.543935e-02    5.750425e-06
  6.573828e-02    5.749790e-06
  6.603721e-02    5.773895e-06
  6.633614e-02    5.736686e-06
  6.663507e-02    5.717066e-06
  6.693400e-02    5.736180e-06
  6.723293e-02    5.750512e-06
  6.753186e-02    5.765807e-06
  6.783080e-02    5.781353e-06
  6.812973e-02    5.829265e-06
  6.842866e-02    5.819746e-06
  6.872759e-02    5.865368e-06
  6.902652e-02    5.844360e-06
  6.932545e-02    5.842141e-06
  6.962438e-02    5.800344e-06
  6.992331e-02    5.864734e-06
  7.022224e-02    5.883779e-06
  7.052117e-02    5.814682e-06
  7.082010e-02    5.839289e-06
  7.111903e-02    5.916152e-06
  7.141796e-02    5.911320e-06
  7.171689e-02    5.901044e-06
  7.201582e-02    5.920310e-06
  7.231475e-02    5.905191e-06
  7.261368e-02    5.954668e-06
  7.291261e-02    5.936045e-06
  7.321154e-02    5.928103e-06
  7.351047e-02    5.923518e-06
  7.380940e-02    5.928951e-06
  7.410833e-02    5.914149e-06
  7.440726e-02    5.912762e-06
  7.470619e-02    5.917531e-06
  7.500512e-02    5.919601e-06
  7.530405e-02    5.882540e-06
  7.560299e-02    5.878419e-06
  7.590192e-02    5.901975e-06
  7.620085e-02    5.896897e-06
  7.649978e-02    5.884516e-06
  7.679871e-02    5.878666e-06
  7.709764e-02    5.917609e-06
  7.739657e-02    5.960891e-06
  7.769550e-02    5.963605e-06
  7.799443e-02    5.907170e-06
  7.829336e-02    5.912499e-06
  7.859229e-02    5.954152e-06
  7.889122e-02    5.920149e-06
  7.919015e-02    5.864023e-06
  7.948908e-02    5.905496e-06
  7.978801e-02    5.876530e-06
  8.008694e-02    5.838226e-06
  8.038587e-02    5.857209e-06
  8.068480e-02    5.848696e-06
  8.098373e-02    5.839438e-06
  8.128266e-02    5.865734e-06
  8.158159e-02    5.841442e-06
  8.188052e-02    5.836212e-06
  8.217945e-02    5.799259e-06
  8.247838e-02    5.764145e-06
  8.277731e-02    5.805173e-06
  8.307624e-02    5.823685e-06
  8.337518e-02    5.799434e-06
  8.367411e-02    5.767380e-06
  8.397304e-02    5.787235e-06
  8.427197e-02    5.756535e-06
  8.457090e-02    5.717879e-06
  8.486983e-02    5.714448e-06
  8.516876e-02    5.698369e-06
  8.546769e-02    5.738011e-06
  8.576662e-02    5.780221e-06
  8.606555e-02    5.726585e-06
  8.636448e-02    5.701812e-06
  8.666341e-02    5.728786e-06
  8.696234e-02    5.736159e-06
  8.726127e-02    5.670436e-06
  8.756020e-02    5.641889e-06
  8.785913e-02    5.589117e-06
  8.815806e-02    5.592724e-06
  8.845699e-02    5.636085e-06
  8.875592e-02    5.640845e-06
  8.905485e-02    5.585669e-06
  8.935378e-02    5.585546e-06
  8.965271e-02    5.573146e-06
  8.995164e-02    5.597889e-06
  9.025057e-02    5.597445e-06
  9.054950e-02    5.540931e-06
  9.084843e-02    5.512073e-06
  9.114737e-02    5.518150e-06
  9.144630e-02    5.481837e-06
  9.174523e-02    5.470755e-06
  9.204416e-02    5.479279e-06
  9.234309e-02    5.462863e-06
  9.264202e-02    5.441661e-06
  9.294095e-02    5.413178e-06
  9.323988e-02    5.484978e-06
  9.353881e-02    5.511238e-06
  9.383774e-02    5.443400e-06
  9.413667e-02    5.386671e-06
  9.443560e-02    5.389240e-06
  9.473453e-02    5.399232e-06
  9.503346e-02    5.398158e-06
  9.533239e-02    5.369648e-06
  9.563132e-02    5.383266e-06
  9.593025e-02    5.401378e-06
  9.622918e-02    5.424170e-06
  9.652811e-02    5.417446e-06
  9.682704e-02    5.450040e-06
  9.712597e-02    5.446308e-06
  9.742490e-02    5.386550e-06
  9.772383e-02    5.377125e-06
  9.802276e-02    5.323737e-06
  9.832169e-02    5.291839e-06
  9.862062e-02    5.288094e-06
  9.891956e-02    5.283425e-06
  9.921849e-02    5.257782e-06
  9.951742e-02    5.252291e-06
  9.981635e-02    5.244992e-06
  1.001153e-01    5.201850e-06
  1.004142e-01    5.201273e-06
  1.007131e-01    5.178053e-06
  1.010121e-01    5.161345e-06
  1.013110e-01    5.205078e-06
  1.016099e-01    5.198184e-06
  1.019089e-01    5.159852e-06
  1.022078e-01    5.166054e-06
  1.025067e-01    5.138655e-06
  1.028057e-01    5.086147e-06
  1.031046e-01    5.118619e-06
  1.034035e-01    5.143848e-06
  1.037024e-01    5.148203e-06
  1.040014e-01    5.138732e-06
  1.043003e-01    5.104092e-06
  1.045992e-01    5.079307e-06
  1.048982e-01    5.070231e-06
  1.051971e-01    5.055920e-06
  1.054960e-01    5.020525e-06
  1.057950e-01    5.024209e-06
  1.060939e-01    5.061764e-06
  1.063928e-01    5.056407e-06
  1.066917e-01    5.016692e-06
  1.069907e-01    5.009159e-06
  1.072896e-01    4.985034e-06
  1.075885e-01    4.998811e-06
  1.078875e-01    5.024482e-06
  1.081864e-01    4.999517e-06
  1.084853e-01    4.988503e-06
  1.087843e-01    4.988800e-06
  1.090832e-01    4.985347e-06
  1.093821e-01    4.964541e-06
  1.096810e-01    4.909586e-06
  1.099800e-01    4.885943e-06
  1.102789e-01    4.935556e-06
  1.105778e-01    4.900870e-06
  1.108768e-01    4.888200e-06
  1.111757e-01    4.889163e-06
  1.114746e-01    4.866401e-06
  1.117736e-01    4.840373e-06
  1.120725e-01    4.851949e-06
  1.123714e-01    4.811627e-06
  1.126704e-01    4.765636e-06
  1.129693e-01    4.714501e-06
  1.132682e-01    4.721494e-06
  1.135671e-01    4.764045e-06
  1.138661e-01    4.718300e-06
  1.141650e-01    4.705810e-06
  1.144639e-01    4.705060e-06
  1.147629e-01    4.706143e-06
  1.150618e-01    4.695497e-06
  1.153607e-01    4.662932e-06
  1.156597e-01    4.642989e-06
  1.159586e-01    4.636742e-06
  1.162575e-01    4.675750e-06
  1.165564e-01    4.667851e-06
  1.168554e-01    4.650849e-06
  1.171543e-01    4.605693e-06
  1.174532e-01    4.652092e-06
  1.177522e-01    4.691608e-06
  1.180511e-01    4.656839e-06
  1.183500e-01    4.703402e-06
  1.186490e-01    4.639243e-06
  1.189479e-01    4.611016e-06
  1.192468e-01    4.614958e-06
  1.195458e-01    4.595403e-06
  1.198447e-01    4.618248e-06
  1.201436e-01    4.535701e-06
  1.204425e-01    4.493993e-06
  1.207415e-01    4.580801e-06
  1.210404e-01    3.736439e-06
  1.213393e-01    0.000000e+00
  1.216383e-01    0.000000e+00
  1.219372e-01    0.000000e+00
  1.222361e-01    0.000000e+00
  1.225351e-01    0.000000e+00
  1.228340e-01    0.000000e+00
  1.231329e-01    0.000000e+00
  1.234318e-01    0.000000e+00
  1.237308e-01    0.000000e+00
  1.240297e-01    0.000000e+00
  1.243286e-01    0.000000e+00
  1.246276e-01    0.000000e+00
  1.249265e-01    0.000000e+00
  1.252254e-01    0.000000e+00
  1.255244e-01    0.000000e+00
  1.258233e-01    0.000000e+00
  1.261222e-01    0.000000e+00
  1.264212e-01    0.000000e+00
  1.267201e-01    0.000000e+00
  1.270190e-01    0.000000e+00
  1.273179e-01    0.000000e+00
  1.276169e-01    0.000000e+00
  1.279158e-01    0.000000e+00
  1.282147e-01    0.000000e+00
  1.285137e-01    0.000000e+00
  1.288126e-01    0.000000e+00
  1.291115e-01    0.000000e+00
  1.294105e-01    0.000000e+00
  1.297094e-01    0.000000e+00
  1.300083e-01    0.000000e+00
  1.303072e-01    0.000000e+00
  1.306062e-01    0.000000e+00
  1.309051e-01    0.000000e+00
  1.312040e-01    0.000000e+00
  1.315030e-01    0.000000e+00
  1.318019e-01    0.000000e+00
  1.321008e-01    0.000000e+00
  1.323998e-01    0.000000e+00
  1.326987e-01    0.000000e+00
  1.329976e-01    0.000000e+00
  1.332965e-01    0.000000e+00
  1.335955e-01    0.000000e+00
  1.338944e-01    0.000000e+00
  1.341933e-01    0.000000e+00
  1.344923e-01    0.000000e+00
  1.347912e-01    0.000000e+00
  1.350901e-01    0.000000e+00
  1.353891e-01    0.000000e+00
  1.356880e-01    0.000000e+00
  1.359869e-01    0.000000e+00
  1.362859e-01    0.000000e+00
  1.365848e-01    0.000000e+00
  1.368837e-01    0.000000e+00
  1.371826e-01    0.000000e+00
  1.374816e-01    0.000000e+00
  1.377805e-01    0.000000e+00
  1.380794e-01    0.000000e+00
  1.383784e-01    0.000000e+00
  1.386773e-01    0.000000e+00
  1.389762e-01    0.000000e+00
  1.392752e-01    0.000000e+00
  1.395741e-01    0.000000e+00
  1.398730e-01    0.000000e+00
  1.401719e-01    0.000000e+00
  1.404709e-01    0.000000e+00
  1.407698e-01    0.000000e+00
  1.410687e-01    0.000000e+00
  1.413677e-01    0.000000e+00
  1.416666e-01    0.000000e+00
  1.419655e-01    0.000000e+00
  1.422645e-01    0.000000e+00
  1.425634e-01    0.000000e+00
  1.428623e-01    0.000000e+00
  1.431613e-01    0.000000e+00
  1.434602e-01    0.000000e+00
  1.437591e-01    0.000000e+00
  1.440580e-01    0.000000e+00
  1.443570e-01    0.000000e+00
  1.446559e-01    0.000000e+00
  1.449548e-01    0.000000e+00
  1.452538e-01    0.000000e+00
  1.455527e-01    0.000000e+00
  1.458516e-01    0.000000e+00
  1.461506e-01    0.000000e+00
  1.464495e-01    0.000000e+00
  1.467484e-01    0.000000e+00
  1.470473e-01    0.000000e+00
  1.473463e-01    0.000000e+00
  1.476452e-01    0.000000e+00
  1.479441e-01    0.000000e+00
  1.482431e-01    0.000000e+00
  1.485420e-01    0.000000e+00
  1.488409e-01    0.000000e+00
  1.491399e-01    0.000000e+00
  1.494388e-01    0.000000e+00
  1.497377e-01    0.000000e+00
  1.500367e-01    0.000000e+00
  1.503356e-01    0.000000e+00
  1.506345e-01    0.000000e+00
  1.509334e-01    0.000000e+00
  1.512324e-01    0.000000e+00
  1.515313e-01    0.000000e+00
  1.518302e-01    0.000000e+00
  1.521292e-01    0.000000e+00
  1.524281e-01    0.000000e+00
  1.527270e-01    0.000000e+00
  1.530260e-01    0.000000e+00
  1.533249e-01    0.000000e+00
  1.536238e-01    0.000000e+00
