# == pyFAI calibration ==
# Distance Sample to Detector: 2.266 m
# PONI: 5.659e-02, 4.293e-02 m
# Rotations: 0.000000 0.000000 0.000000 rad
# 
# == Fit2d calibration ==
# Distance Sample-beamCenter: 2266.000 mm
# Center: x=249.594, y=329.012 pix
# Tilt: 0.000 deg  TiltPlanRot: 0.000 deg
# 
# Detector Pilatus 300k	 PixelSize= 1.720e-04, 1.720e-04 m
#    Detector has a mask: True 
#    Detector has a dark current: False 
#    detector has a flat field: False 
# 
# Wavelength: 1.27818e-10 m
# Mask applied: user provided
# Dark current applied: False
# Flat field applied: False
# Polarization factor: None
# Normalization factor: 14366782.0
# --> F127_154.958_NaCl_193.697_limonene_96.849mgml_2_r1d.csv
#        q_A^-1             I 
  4.457554e-03    1.365759e-03
  4.756484e-03    1.000392e-03
  5.055415e-03    6.278415e-04
  5.354345e-03    3.748838e-04
  5.653276e-03    2.442210e-04
  5.952206e-03    2.159817e-04
  6.251136e-03    1.803990e-04
  6.550067e-03    1.571186e-04
  6.848997e-03    1.346619e-04
  7.147927e-03    1.195801e-04
  7.446858e-03    1.052280e-04
  7.745788e-03    9.162515e-05
  8.044719e-03    8.230456e-05
  8.343649e-03    7.361662e-05
  8.642579e-03    6.605338e-05
  8.941510e-03    5.972051e-05
  9.240440e-03    5.366725e-05
  9.539371e-03    4.851256e-05
  9.838301e-03    4.452911e-05
  1.013723e-02    4.057491e-05
  1.043616e-02    3.699206e-05
  1.073509e-02    3.416530e-05
  1.103402e-02    3.149282e-05
  1.133295e-02    2.903804e-05
  1.163188e-02    2.711863e-05
  1.193081e-02    2.526728e-05
  1.222974e-02    2.369316e-05
  1.252867e-02    2.230317e-05
  1.282760e-02    2.110692e-05
  1.312654e-02    1.999952e-05
  1.342547e-02    1.898565e-05
  1.372440e-02    1.818255e-05
  1.402333e-02    1.731210e-05
  1.432226e-02    1.653640e-05
  1.462119e-02    1.604413e-05
  1.492012e-02    1.557966e-05
  1.521905e-02    1.508730e-05
  1.551798e-02    1.471169e-05
  1.581691e-02    1.433331e-05
  1.611584e-02    1.402697e-05
  1.641477e-02    1.386837e-05
  1.671370e-02    1.363560e-05
  1.701263e-02    1.348512e-05
  1.731156e-02    1.344041e-05
  1.761049e-02    1.346533e-05
  1.790942e-02    1.352435e-05
  1.820835e-02    1.361775e-05
  1.850728e-02    1.380294e-05
  1.880621e-02    1.411842e-05
  1.910514e-02    1.429680e-05
  1.940407e-02    1.460608e-05
  1.970300e-02    1.515399e-05
  2.000193e-02    1.565292e-05
  2.030086e-02    1.616627e-05
  2.059979e-02    1.684816e-05
  2.089873e-02    1.759715e-05
  2.119766e-02    1.847124e-05
  2.149659e-02    1.943951e-05
  2.179552e-02    2.046717e-05
  2.209445e-02    2.169137e-05
  2.239338e-02    2.291426e-05
  2.269231e-02    2.448056e-05
  2.299124e-02    2.624899e-05
  2.329017e-02    2.807414e-05
  2.358910e-02    2.997996e-05
  2.388803e-02    3.205425e-05
  2.418696e-02    3.431107e-05
  2.448589e-02    3.676460e-05
  2.478482e-02    3.917516e-05
  2.508375e-02    4.167231e-05
  2.538268e-02    4.427614e-05
  2.568161e-02    4.670566e-05
  2.598054e-02    4.894296e-05
  2.627947e-02    5.074286e-05
  2.657840e-02    5.227861e-05
  2.687733e-02    5.339449e-05
  2.717626e-02    5.403244e-05
  2.747519e-02    5.424856e-05
  2.777412e-02    5.398330e-05
  2.807305e-02    5.332189e-05
  2.837198e-02    5.214037e-05
  2.867092e-02    5.057240e-05
  2.896985e-02    4.868483e-05
  2.926878e-02    4.659372e-05
  2.956771e-02    4.439279e-05
  2.986664e-02    4.214106e-05
  3.016557e-02    3.988349e-05
  3.046450e-02    3.751005e-05
  3.076343e-02    3.518293e-05
  3.106236e-02    3.316212e-05
  3.136129e-02    3.126670e-05
  3.166022e-02    2.929267e-05
  3.195915e-02    2.739757e-05
  3.225808e-02    2.576763e-05
  3.255701e-02    2.418913e-05
  3.285594e-02    2.277032e-05
  3.315487e-02    2.149531e-05
  3.345380e-02    2.030079e-05
  3.375273e-02    1.921793e-05
  3.405166e-02    1.827604e-05
  3.435059e-02    1.729453e-05
  3.464952e-02    1.646687e-05
  3.494845e-02    1.580536e-05
  3.524738e-02    1.510323e-05
  3.554631e-02    1.442840e-05
  3.584524e-02    1.389171e-05
  3.614417e-02    1.331924e-05
  3.644310e-02    1.280087e-05
  3.674204e-02    1.236637e-05
  3.704097e-02    1.196672e-05
  3.733990e-02    1.160436e-05
  3.763883e-02    1.124293e-05
  3.793776e-02    1.093198e-05
  3.823669e-02    1.063356e-05
  3.853562e-02    1.036689e-05
  3.883455e-02    1.007168e-05
  3.913348e-02    9.844764e-06
  3.943241e-02    9.656867e-06
  3.973134e-02    9.465575e-06
  4.003027e-02    9.293512e-06
  4.032920e-02    9.133733e-06
  4.062813e-02    8.965077e-06
  4.092706e-02    8.851507e-06
  4.122599e-02    8.734056e-06
  4.152492e-02    8.624960e-06
  4.182385e-02    8.501816e-06
  4.212278e-02    8.407573e-06
  4.242171e-02    8.328765e-06
  4.272064e-02    8.242385e-06
  4.301957e-02    8.171209e-06
  4.331850e-02    8.059475e-06
  4.361743e-02    7.997104e-06
  4.391636e-02    7.960429e-06
  4.421529e-02    7.910495e-06
  4.451423e-02    7.866678e-06
  4.481316e-02    7.797336e-06
  4.511209e-02    7.767216e-06
  4.541102e-02    7.705881e-06
  4.570995e-02    7.665541e-06
  4.600888e-02    7.586001e-06
  4.630781e-02    7.550052e-06
  4.660674e-02    7.531632e-06
  4.690567e-02    7.499629e-06
  4.720460e-02    7.426923e-06
  4.750353e-02    7.359655e-06
  4.780246e-02    7.285089e-06
  4.810139e-02    7.251286e-06
  4.840032e-02    7.182401e-06
  4.869925e-02    7.065171e-06
  4.899818e-02    6.978515e-06
  4.929711e-02    6.893784e-06
  4.959604e-02    6.859229e-06
  4.989497e-02    6.769847e-06
  5.019390e-02    6.668185e-06
  5.049283e-02    6.559607e-06
  5.079176e-02    6.478907e-06
  5.109069e-02    6.363753e-06
  5.138962e-02    6.276215e-06
  5.168855e-02    6.260786e-06
  5.198748e-02    6.230487e-06
  5.228642e-02    6.069672e-06
  5.258535e-02    5.850447e-06
  5.288428e-02    5.679866e-06
  5.318321e-02    5.567143e-06
  5.348214e-02    5.444582e-06
  5.378107e-02    5.318572e-06
  5.408000e-02    5.194021e-06
  5.437893e-02    5.058282e-06
  5.467786e-02    4.934948e-06
  5.497679e-02    4.812031e-06
  5.527572e-02    4.688699e-06
  5.557465e-02    4.572924e-06
  5.587358e-02    4.445767e-06
  5.617251e-02    4.332342e-06
  5.647144e-02    4.225919e-06
  5.677037e-02    4.120062e-06
  5.706930e-02    4.024477e-06
  5.736823e-02    3.886401e-06
  5.766716e-02    3.783623e-06
  5.796609e-02    3.685688e-06
  5.826502e-02    3.581505e-06
  5.856395e-02    3.508532e-06
  5.886288e-02    3.424006e-06
  5.916181e-02    3.333663e-06
  5.946074e-02    3.256694e-06
  5.975967e-02    3.199999e-06
  6.005861e-02    3.126994e-06
  6.035754e-02    3.064372e-06
  6.065647e-02    3.004619e-06
  6.095540e-02    2.959484e-06
  6.125433e-02    2.925213e-06
  6.155326e-02    2.888031e-06
  6.185219e-02    2.766927e-06
  6.215112e-02    2.674881e-06
  6.245005e-02    2.614461e-06
  6.274898e-02    2.560832e-06
  6.304791e-02    2.506725e-06
  6.334684e-02    2.460211e-06
  6.364577e-02    2.418399e-06
  6.394470e-02    2.384484e-06
  6.424363e-02    2.359120e-06
  6.454256e-02    2.321246e-06
  6.484149e-02    2.269556e-06
  6.514042e-02    2.236151e-06
  6.543935e-02    2.203168e-06
  6.573828e-02    2.163391e-06
  6.603721e-02    2.116630e-06
  6.633614e-02    2.095485e-06
  6.663507e-02    2.080464e-06
  6.693400e-02    2.070427e-06
  6.723293e-02    2.037628e-06
  6.753186e-02    2.009483e-06
  6.783080e-02    1.993434e-06
  6.812973e-02    1.967268e-06
  6.842866e-02    1.933073e-06
  6.872759e-02    1.928906e-06
  6.902652e-02    1.903274e-06
  6.932545e-02    1.886771e-06
  6.962438e-02    1.872796e-06
  6.992331e-02    1.848106e-06
  7.022224e-02    1.834241e-06
  7.052117e-02    1.831833e-06
  7.082010e-02    1.802842e-06
  7.111903e-02    1.782569e-06
  7.141796e-02    1.774031e-06
  7.171689e-02    1.766127e-06
  7.201582e-02    1.757001e-06
  7.231475e-02    1.750165e-06
  7.261368e-02    1.737505e-06
  7.291261e-02    1.728704e-06
  7.321154e-02    1.712938e-06
  7.351047e-02    1.705405e-06
  7.380940e-02    1.699702e-06
  7.410833e-02    1.681946e-06
  7.440726e-02    1.677325e-06
  7.470619e-02    1.666346e-06
  7.500512e-02    1.644753e-06
  7.530405e-02    1.631982e-06
  7.560299e-02    1.629358e-06
  7.590192e-02    1.617203e-06
  7.620085e-02    1.612508e-06
  7.649978e-02    1.604711e-06
  7.679871e-02    1.584732e-06
  7.709764e-02    1.585466e-06
  7.739657e-02    1.589877e-06
  7.769550e-02    1.577535e-06
  7.799443e-02    1.569044e-06
  7.829336e-02    1.555916e-06
  7.859229e-02    1.558539e-06
  7.889122e-02    1.571437e-06
  7.919015e-02    1.571986e-06
  7.948908e-02    1.553085e-06
  7.978801e-02    1.552478e-06
  8.008694e-02    1.552360e-06
  8.038587e-02    1.540218e-06
  8.068480e-02    1.539211e-06
  8.098373e-02    1.551606e-06
  8.128266e-02    1.545969e-06
  8.158159e-02    1.535755e-06
  8.188052e-02    1.533082e-06
  8.217945e-02    1.543345e-06
  8.247838e-02    1.543272e-06
  8.277731e-02    1.540127e-06
  8.307624e-02    1.535644e-06
  8.337518e-02    1.535452e-06
  8.367411e-02    1.524170e-06
  8.397304e-02    1.531530e-06
  8.427197e-02    1.545297e-06
  8.457090e-02    1.534328e-06
  8.486983e-02    1.516316e-06
  8.516876e-02    1.531780e-06
  8.546769e-02    1.533817e-06
  8.576662e-02    1.516779e-06
  8.606555e-02    1.526558e-06
  8.636448e-02    1.526846e-06
  8.666341e-02    1.514330e-06
  8.696234e-02    1.520471e-06
  8.726127e-02    1.521596e-06
  8.756020e-02    1.530368e-06
  8.785913e-02    1.530805e-06
  8.815806e-02    1.532793e-06
  8.845699e-02    1.532854e-06
  8.875592e-02    1.530419e-06
  8.905485e-02    1.516718e-06
  8.935378e-02    1.509684e-06
  8.965271e-02    1.509470e-06
  8.995164e-02    1.508083e-06
  9.025057e-02    1.503158e-06
  9.054950e-02    1.502709e-06
  9.084843e-02    1.487637e-06
  9.114737e-02    1.495386e-06
  9.144630e-02    1.501306e-06
  9.174523e-02    1.494898e-06
  9.204416e-02    1.484388e-06
  9.234309e-02    1.495820e-06
  9.264202e-02    1.500081e-06
  9.294095e-02    1.496561e-06
  9.323988e-02    1.499237e-06
  9.353881e-02    1.489062e-06
  9.383774e-02    1.496526e-06
  9.413667e-02    1.497302e-06
  9.443560e-02    1.482041e-06
  9.473453e-02    1.484107e-06
  9.503346e-02    1.488767e-06
  9.533239e-02    1.485919e-06
  9.563132e-02    1.490537e-06
  9.593025e-02    1.496060e-06
  9.622918e-02    1.508204e-06
  9.652811e-02    1.518960e-06
  9.682704e-02    1.531868e-06
  9.712597e-02    1.533026e-06
  9.742490e-02    1.526036e-06
  9.772383e-02    1.525020e-06
  9.802276e-02    1.515688e-06
  9.832169e-02    1.498866e-06
  9.862062e-02    1.491396e-06
  9.891956e-02    1.481353e-06
  9.921849e-02    1.470677e-06
  9.951742e-02    1.472867e-06
  9.981635e-02    1.484251e-06
  1.001153e-01    1.471873e-06
  1.004142e-01    1.471716e-06
  1.007131e-01    1.464632e-06
  1.010121e-01    1.472702e-06
  1.013110e-01    1.476205e-06
  1.016099e-01    1.458798e-06
  1.019089e-01    1.456181e-06
  1.022078e-01    1.458796e-06
  1.025067e-01    1.458869e-06
  1.028057e-01    1.451625e-06
  1.031046e-01    1.442040e-06
  1.034035e-01    1.439589e-06
  1.037024e-01    1.437272e-06
  1.040014e-01    1.436570e-06
  1.043003e-01    1.432961e-06
  1.045992e-01    1.438111e-06
  1.048982e-01    1.441161e-06
  1.051971e-01    1.431194e-06
  1.054960e-01    1.424916e-06
  1.057950e-01    1.415370e-06
  1.060939e-01    1.421275e-06
  1.063928e-01    1.419924e-06
  1.066917e-01    1.415020e-06
  1.069907e-01    1.421203e-06
  1.072896e-01    1.419771e-06
  1.075885e-01    1.422136e-06
  1.078875e-01    1.424164e-06
  1.081864e-01    1.423426e-06
  1.084853e-01    1.415203e-06
  1.087843e-01    1.417728e-06
  1.090832e-01    1.416161e-06
  1.093821e-01    1.426745e-06
  1.096810e-01    1.426906e-06
  1.099800e-01    1.421503e-06
  1.102789e-01    1.431493e-06
  1.105778e-01    1.432680e-06
  1.108768e-01    1.414033e-06
  1.111757e-01    1.408139e-06
  1.114746e-01    1.420626e-06
  1.117736e-01    1.425167e-06
  1.120725e-01    1.411104e-06
  1.123714e-01    1.396084e-06
  1.126704e-01    1.389060e-06
  1.129693e-01    1.379872e-06
  1.132682e-01    1.349741e-06
  1.135671e-01    1.326370e-06
  1.138661e-01    1.300453e-06
  1.141650e-01    1.276825e-06
  1.144639e-01    1.260125e-06
  1.147629e-01    1.235949e-06
  1.150618e-01    1.203197e-06
  1.153607e-01    1.210587e-06
  1.156597e-01    1.218758e-06
  1.159586e-01    1.198086e-06
  1.162575e-01    1.208256e-06
  1.165564e-01    1.210337e-06
  1.168554e-01    1.213614e-06
  1.171543e-01    1.253483e-06
  1.174532e-01    1.267828e-06
  1.177522e-01    1.266443e-06
  1.180511e-01    1.311473e-06
  1.183500e-01    1.341182e-06
  1.186490e-01    1.341694e-06
  1.189479e-01    1.357983e-06
  1.192468e-01    1.343026e-06
  1.195458e-01    1.297676e-06
  1.198447e-01    1.256263e-06
  1.201436e-01    1.258027e-06
  1.204425e-01    1.243431e-06
  1.207415e-01    1.161070e-06
  1.210404e-01    1.393361e-06
  1.213393e-01    0.000000e+00
  1.216383e-01    0.000000e+00
  1.219372e-01    0.000000e+00
  1.222361e-01    0.000000e+00
  1.225351e-01    0.000000e+00
  1.228340e-01    0.000000e+00
  1.231329e-01    0.000000e+00
  1.234318e-01    0.000000e+00
  1.237308e-01    0.000000e+00
  1.240297e-01    0.000000e+00
  1.243286e-01    0.000000e+00
  1.246276e-01    0.000000e+00
  1.249265e-01    0.000000e+00
  1.252254e-01    0.000000e+00
  1.255244e-01    0.000000e+00
  1.258233e-01    0.000000e+00
  1.261222e-01    0.000000e+00
  1.264212e-01    0.000000e+00
  1.267201e-01    0.000000e+00
  1.270190e-01    0.000000e+00
  1.273179e-01    0.000000e+00
  1.276169e-01    0.000000e+00
  1.279158e-01    0.000000e+00
  1.282147e-01    0.000000e+00
  1.285137e-01    0.000000e+00
  1.288126e-01    0.000000e+00
  1.291115e-01    0.000000e+00
  1.294105e-01    0.000000e+00
  1.297094e-01    0.000000e+00
  1.300083e-01    0.000000e+00
  1.303072e-01    0.000000e+00
  1.306062e-01    0.000000e+00
  1.309051e-01    0.000000e+00
  1.312040e-01    0.000000e+00
  1.315030e-01    0.000000e+00
  1.318019e-01    0.000000e+00
  1.321008e-01    0.000000e+00
  1.323998e-01    0.000000e+00
  1.326987e-01    0.000000e+00
  1.329976e-01    0.000000e+00
  1.332965e-01    0.000000e+00
  1.335955e-01    0.000000e+00
  1.338944e-01    0.000000e+00
  1.341933e-01    0.000000e+00
  1.344923e-01    0.000000e+00
  1.347912e-01    0.000000e+00
  1.350901e-01    0.000000e+00
  1.353891e-01    0.000000e+00
  1.356880e-01    0.000000e+00
  1.359869e-01    0.000000e+00
  1.362859e-01    0.000000e+00
  1.365848e-01    0.000000e+00
  1.368837e-01    0.000000e+00
  1.371826e-01    0.000000e+00
  1.374816e-01    0.000000e+00
  1.377805e-01    0.000000e+00
  1.380794e-01    0.000000e+00
  1.383784e-01    0.000000e+00
  1.386773e-01    0.000000e+00
  1.389762e-01    0.000000e+00
  1.392752e-01    0.000000e+00
  1.395741e-01    0.000000e+00
  1.398730e-01    0.000000e+00
  1.401719e-01    0.000000e+00
  1.404709e-01    0.000000e+00
  1.407698e-01    0.000000e+00
  1.410687e-01    0.000000e+00
  1.413677e-01    0.000000e+00
  1.416666e-01    0.000000e+00
  1.419655e-01    0.000000e+00
  1.422645e-01    0.000000e+00
  1.425634e-01    0.000000e+00
  1.428623e-01    0.000000e+00
  1.431613e-01    0.000000e+00
  1.434602e-01    0.000000e+00
  1.437591e-01    0.000000e+00
  1.440580e-01    0.000000e+00
  1.443570e-01    0.000000e+00
  1.446559e-01    0.000000e+00
  1.449548e-01    0.000000e+00
  1.452538e-01    0.000000e+00
  1.455527e-01    0.000000e+00
  1.458516e-01    0.000000e+00
  1.461506e-01    0.000000e+00
  1.464495e-01    0.000000e+00
  1.467484e-01    0.000000e+00
  1.470473e-01    0.000000e+00
  1.473463e-01    0.000000e+00
  1.476452e-01    0.000000e+00
  1.479441e-01    0.000000e+00
  1.482431e-01    0.000000e+00
  1.485420e-01    0.000000e+00
  1.488409e-01    0.000000e+00
  1.491399e-01    0.000000e+00
  1.494388e-01    0.000000e+00
  1.497377e-01    0.000000e+00
  1.500367e-01    0.000000e+00
  1.503356e-01    0.000000e+00
  1.506345e-01    0.000000e+00
  1.509334e-01    0.000000e+00
  1.512324e-01    0.000000e+00
  1.515313e-01    0.000000e+00
  1.518302e-01    0.000000e+00
  1.521292e-01    0.000000e+00
  1.524281e-01    0.000000e+00
  1.527270e-01    0.000000e+00
  1.530260e-01    0.000000e+00
  1.533249e-01    0.000000e+00
  1.536238e-01    0.000000e+00
