# == pyFAI calibration ==
# Distance Sample to Detector: 2.266 m
# PONI: 5.659e-02, 4.293e-02 m
# Rotations: 0.000000 0.000000 0.000000 rad
# 
# == Fit2d calibration ==
# Distance Sample-beamCenter: 2266.000 mm
# Center: x=249.594, y=329.012 pix
# Tilt: 0.000 deg  TiltPlanRot: 0.000 deg
# 
# Detector Pilatus 300k	 PixelSize= 1.720e-04, 1.720e-04 m
#    Detector has a mask: True 
#    Detector has a dark current: False 
#    detector has a flat field: False 
# 
# Wavelength: 1.27818e-10 m
# Mask applied: user provided
# Dark current applied: False
# Flat field applied: False
# Polarization factor: None
# Normalization factor: 1327294.8
# --> F127_33.142_hexanes_82.855_EtOH_0.000_NaCl_100.267mgml_2_r1d.csv
#        q_A^-1             I 
  4.457554e-03    2.873210e-03
  4.756484e-03    2.228257e-03
  5.055415e-03    1.545743e-03
  5.354345e-03    1.018394e-03
  5.653276e-03    7.210019e-04
  5.952206e-03    1.068283e-03
  6.251136e-03    9.687445e-04
  6.550067e-03    8.414739e-04
  6.848997e-03    7.181659e-04
  7.147927e-03    6.090645e-04
  7.446858e-03    5.168801e-04
  7.745788e-03    4.417025e-04
  8.044719e-03    3.839321e-04
  8.343649e-03    3.349439e-04
  8.642579e-03    2.915266e-04
  8.941510e-03    2.573568e-04
  9.240440e-03    2.286137e-04
  9.539371e-03    2.026432e-04
  9.838301e-03    1.806953e-04
  1.013723e-02    1.623172e-04
  1.043616e-02    1.467300e-04
  1.073509e-02    1.318605e-04
  1.103402e-02    1.205944e-04
  1.133295e-02    1.094251e-04
  1.163188e-02    9.907247e-05
  1.193081e-02    9.121869e-05
  1.222974e-02    8.501597e-05
  1.252867e-02    7.808891e-05
  1.282760e-02    7.148617e-05
  1.312654e-02    6.626759e-05
  1.342547e-02    6.226185e-05
  1.372440e-02    5.828639e-05
  1.402333e-02    5.443758e-05
  1.432226e-02    5.101696e-05
  1.462119e-02    4.771012e-05
  1.492012e-02    4.453290e-05
  1.521905e-02    4.228713e-05
  1.551798e-02    4.047707e-05
  1.581691e-02    3.775080e-05
  1.611584e-02    3.585023e-05
  1.641477e-02    3.366249e-05
  1.671370e-02    3.209407e-05
  1.701263e-02    3.092907e-05
  1.731156e-02    2.950871e-05
  1.761049e-02    2.777387e-05
  1.790942e-02    2.685119e-05
  1.820835e-02    2.565194e-05
  1.850728e-02    2.469760e-05
  1.880621e-02    2.382092e-05
  1.910514e-02    2.312816e-05
  1.940407e-02    2.193890e-05
  1.970300e-02    2.095966e-05
  2.000193e-02    2.059621e-05
  2.030086e-02    1.999374e-05
  2.059979e-02    1.960419e-05
  2.089873e-02    1.891509e-05
  2.119766e-02    1.845757e-05
  2.149659e-02    1.823237e-05
  2.179552e-02    1.774413e-05
  2.209445e-02    1.728698e-05
  2.239338e-02    1.666104e-05
  2.269231e-02    1.627902e-05
  2.299124e-02    1.617462e-05
  2.329017e-02    1.598335e-05
  2.358910e-02    1.563276e-05
  2.388803e-02    1.528579e-05
  2.418696e-02    1.488438e-05
  2.448589e-02    1.480947e-05
  2.478482e-02    1.488424e-05
  2.508375e-02    1.467087e-05
  2.538268e-02    1.448061e-05
  2.568161e-02    1.430240e-05
  2.598054e-02    1.416909e-05
  2.627947e-02    1.377864e-05
  2.657840e-02    1.357703e-05
  2.687733e-02    1.353067e-05
  2.717626e-02    1.359337e-05
  2.747519e-02    1.343926e-05
  2.777412e-02    1.326166e-05
  2.807305e-02    1.314493e-05
  2.837198e-02    1.302632e-05
  2.867092e-02    1.300091e-05
  2.896985e-02    1.294772e-05
  2.926878e-02    1.292688e-05
  2.956771e-02    1.264328e-05
  2.986664e-02    1.269435e-05
  3.016557e-02    1.251153e-05
  3.046450e-02    1.221801e-05
  3.076343e-02    1.213458e-05
  3.106236e-02    1.205929e-05
  3.136129e-02    1.195346e-05
  3.166022e-02    1.202810e-05
  3.195915e-02    1.204440e-05
  3.225808e-02    1.175476e-05
  3.255701e-02    1.166060e-05
  3.285594e-02    1.152789e-05
  3.315487e-02    1.161130e-05
  3.345380e-02    1.164891e-05
  3.375273e-02    1.155088e-05
  3.405166e-02    1.144156e-05
  3.435059e-02    1.121278e-05
  3.464952e-02    1.093261e-05
  3.494845e-02    1.104175e-05
  3.524738e-02    1.105549e-05
  3.554631e-02    1.089535e-05
  3.584524e-02    1.078614e-05
  3.614417e-02    1.076476e-05
  3.644310e-02    1.067475e-05
  3.674204e-02    1.071347e-05
  3.704097e-02    1.069265e-05
  3.733990e-02    1.073491e-05
  3.763883e-02    1.062353e-05
  3.793776e-02    1.046490e-05
  3.823669e-02    1.042428e-05
  3.853562e-02    1.044529e-05
  3.883455e-02    1.033018e-05
  3.913348e-02    1.037654e-05
  3.943241e-02    1.051066e-05
  3.973134e-02    1.027800e-05
  4.003027e-02    1.028588e-05
  4.032920e-02    1.034360e-05
  4.062813e-02    1.030139e-05
  4.092706e-02    1.023158e-05
  4.122599e-02    1.010775e-05
  4.152492e-02    1.012481e-05
  4.182385e-02    1.014644e-05
  4.212278e-02    1.011170e-05
  4.242171e-02    9.989993e-06
  4.272064e-02    9.993872e-06
  4.301957e-02    1.001533e-05
  4.331850e-02    9.949750e-06
  4.361743e-02    9.945008e-06
  4.391636e-02    1.008119e-05
  4.421529e-02    9.862589e-06
  4.451423e-02    9.711866e-06
  4.481316e-02    9.723880e-06
  4.511209e-02    9.733038e-06
  4.541102e-02    9.839288e-06
  4.570995e-02    9.816969e-06
  4.600888e-02    9.636733e-06
  4.630781e-02    9.534582e-06
  4.660674e-02    9.620886e-06
  4.690567e-02    9.574605e-06
  4.720460e-02    9.454052e-06
  4.750353e-02    9.472290e-06
  4.780246e-02    9.691066e-06
  4.810139e-02    9.705145e-06
  4.840032e-02    9.448389e-06
  4.869925e-02    9.374080e-06
  4.899818e-02    9.550268e-06
  4.929711e-02    9.511682e-06
  4.959604e-02    9.437686e-06
  4.989497e-02    9.377751e-06
  5.019390e-02    9.379869e-06
  5.049283e-02    9.363167e-06
  5.079176e-02    9.269720e-06
  5.109069e-02    9.477370e-06
  5.138962e-02    9.636507e-06
  5.168855e-02    9.668165e-06
  5.198748e-02    9.772780e-06
  5.228642e-02    9.701908e-06
  5.258535e-02    9.391151e-06
  5.288428e-02    9.313728e-06
  5.318321e-02    9.382605e-06
  5.348214e-02    9.277821e-06
  5.378107e-02    9.341451e-06
  5.408000e-02    9.455051e-06
  5.437893e-02    9.352166e-06
  5.467786e-02    9.376586e-06
  5.497679e-02    9.365321e-06
  5.527572e-02    9.407107e-06
  5.557465e-02    9.347270e-06
  5.587358e-02    9.183703e-06
  5.617251e-02    9.178681e-06
  5.647144e-02    9.291643e-06
  5.677037e-02    9.269067e-06
  5.706930e-02    9.244829e-06
  5.736823e-02    9.360222e-06
  5.766716e-02    9.318858e-06
  5.796609e-02    9.300904e-06
  5.826502e-02    9.221304e-06
  5.856395e-02    9.231164e-06
  5.886288e-02    9.209393e-06
  5.916181e-02    9.097575e-06
  5.946074e-02    9.096421e-06
  5.975967e-02    9.144915e-06
  6.005861e-02    9.200227e-06
  6.035754e-02    9.161451e-06
  6.065647e-02    9.269244e-06
  6.095540e-02    9.257342e-06
  6.125433e-02    9.272817e-06
  6.155326e-02    9.383771e-06
  6.185219e-02    9.284352e-06
  6.215112e-02    9.165601e-06
  6.245005e-02    9.156588e-06
  6.274898e-02    9.150230e-06
  6.304791e-02    9.039086e-06
  6.334684e-02    9.060122e-06
  6.364577e-02    9.063938e-06
  6.394470e-02    9.002072e-06
  6.424363e-02    9.062424e-06
  6.454256e-02    9.052697e-06
  6.484149e-02    9.073150e-06
  6.514042e-02    9.020336e-06
  6.543935e-02    9.091404e-06
  6.573828e-02    9.084405e-06
  6.603721e-02    9.053142e-06
  6.633614e-02    8.981395e-06
  6.663507e-02    8.971635e-06
  6.693400e-02    9.012473e-06
  6.723293e-02    9.071627e-06
  6.753186e-02    9.074578e-06
  6.783080e-02    8.880577e-06
  6.812973e-02    8.940545e-06
  6.842866e-02    9.067976e-06
  6.872759e-02    8.918377e-06
  6.902652e-02    8.885738e-06
  6.932545e-02    9.193599e-06
  6.962438e-02    9.228292e-06
  6.992331e-02    9.093344e-06
  7.022224e-02    8.992881e-06
  7.052117e-02    9.019123e-06
  7.082010e-02    9.020768e-06
  7.111903e-02    8.992690e-06
  7.141796e-02    9.023949e-06
  7.171689e-02    9.095212e-06
  7.201582e-02    9.111217e-06
  7.231475e-02    9.133165e-06
  7.261368e-02    9.154775e-06
  7.291261e-02    9.141263e-06
  7.321154e-02    9.095692e-06
  7.351047e-02    9.038661e-06
  7.380940e-02    9.158623e-06
  7.410833e-02    9.189322e-06
  7.440726e-02    9.021692e-06
  7.470619e-02    9.089138e-06
  7.500512e-02    9.124597e-06
  7.530405e-02    9.114471e-06
  7.560299e-02    9.010431e-06
  7.590192e-02    8.991000e-06
  7.620085e-02    9.148528e-06
  7.649978e-02    9.110676e-06
  7.679871e-02    8.998618e-06
  7.709764e-02    8.981955e-06
  7.739657e-02    8.971403e-06
  7.769550e-02    9.071007e-06
  7.799443e-02    9.087661e-06
  7.829336e-02    9.005778e-06
  7.859229e-02    8.947140e-06
  7.889122e-02    9.033953e-06
  7.919015e-02    9.096328e-06
  7.948908e-02    9.013037e-06
  7.978801e-02    9.064326e-06
  8.008694e-02    9.005825e-06
  8.038587e-02    8.919728e-06
  8.068480e-02    9.027018e-06
  8.098373e-02    8.968861e-06
  8.128266e-02    8.916704e-06
  8.158159e-02    8.943881e-06
  8.188052e-02    8.969986e-06
  8.217945e-02    8.958687e-06
  8.247838e-02    8.981187e-06
  8.277731e-02    8.955352e-06
  8.307624e-02    8.873225e-06
  8.337518e-02    8.897133e-06
  8.367411e-02    8.875768e-06
  8.397304e-02    8.865568e-06
  8.427197e-02    8.885038e-06
  8.457090e-02    8.817845e-06
  8.486983e-02    8.855856e-06
  8.516876e-02    8.878343e-06
  8.546769e-02    8.906723e-06
  8.576662e-02    8.872361e-06
  8.606555e-02    8.853343e-06
  8.636448e-02    8.903320e-06
  8.666341e-02    8.827437e-06
  8.696234e-02    8.863865e-06
  8.726127e-02    8.866124e-06
  8.756020e-02    8.796291e-06
  8.785913e-02    8.747957e-06
  8.815806e-02    8.738894e-06
  8.845699e-02    8.695353e-06
  8.875592e-02    8.711101e-06
  8.905485e-02    8.733460e-06
  8.935378e-02    8.727271e-06
  8.965271e-02    8.797917e-06
  8.995164e-02    8.803086e-06
  9.025057e-02    8.721835e-06
  9.054950e-02    8.673868e-06
  9.084843e-02    8.746089e-06
  9.114737e-02    8.719099e-06
  9.144630e-02    8.690449e-06
  9.174523e-02    8.714554e-06
  9.204416e-02    8.681167e-06
  9.234309e-02    8.714000e-06
  9.264202e-02    8.749376e-06
  9.294095e-02    8.708077e-06
  9.323988e-02    8.663347e-06
  9.353881e-02    8.646466e-06
  9.383774e-02    8.610830e-06
  9.413667e-02    8.664812e-06
  9.443560e-02    8.653267e-06
  9.473453e-02    8.664636e-06
  9.503346e-02    8.711008e-06
  9.533239e-02    8.674584e-06
  9.563132e-02    8.720607e-06
  9.593025e-02    8.706664e-06
  9.622918e-02    8.704694e-06
  9.652811e-02    8.716879e-06
  9.682704e-02    8.728680e-06
  9.712597e-02    8.768706e-06
  9.742490e-02    8.793229e-06
  9.772383e-02    8.717204e-06
  9.802276e-02    8.707460e-06
  9.832169e-02    8.683915e-06
  9.862062e-02    8.596000e-06
  9.891956e-02    8.587089e-06
  9.921849e-02    8.545289e-06
  9.951742e-02    8.600838e-06
  9.981635e-02    8.737108e-06
  1.001153e-01    8.577408e-06
  1.004142e-01    8.566523e-06
  1.007131e-01    8.610528e-06
  1.010121e-01    8.602460e-06
  1.013110e-01    8.519482e-06
  1.016099e-01    8.520514e-06
  1.019089e-01    8.576946e-06
  1.022078e-01    8.577376e-06
  1.025067e-01    8.541982e-06
  1.028057e-01    8.499847e-06
  1.031046e-01    8.482229e-06
  1.034035e-01    8.450766e-06
  1.037024e-01    8.387135e-06
  1.040014e-01    8.480226e-06
  1.043003e-01    8.495163e-06
  1.045992e-01    8.524047e-06
  1.048982e-01    8.619881e-06
  1.051971e-01    8.632666e-06
  1.054960e-01    8.527571e-06
  1.057950e-01    8.488181e-06
  1.060939e-01    8.450715e-06
  1.063928e-01    8.481392e-06
  1.066917e-01    8.464310e-06
  1.069907e-01    8.467659e-06
  1.072896e-01    8.570752e-06
  1.075885e-01    8.613160e-06
  1.078875e-01    8.562851e-06
  1.081864e-01    8.487673e-06
  1.084853e-01    8.582831e-06
  1.087843e-01    8.592370e-06
  1.090832e-01    8.654234e-06
  1.093821e-01    8.710491e-06
  1.096810e-01    8.602930e-06
  1.099800e-01    8.558669e-06
  1.102789e-01    8.509129e-06
  1.105778e-01    8.465669e-06
  1.108768e-01    8.561648e-06
  1.111757e-01    8.547694e-06
  1.114746e-01    8.558017e-06
  1.117736e-01    8.420992e-06
  1.120725e-01    8.250226e-06
  1.123714e-01    8.210809e-06
  1.126704e-01    8.255081e-06
  1.129693e-01    8.161420e-06
  1.132682e-01    7.957768e-06
  1.135671e-01    7.691512e-06
  1.138661e-01    7.493573e-06
  1.141650e-01    7.480273e-06
  1.144639e-01    7.336911e-06
  1.147629e-01    7.206787e-06
  1.150618e-01    7.214605e-06
  1.153607e-01    7.343514e-06
  1.156597e-01    7.249226e-06
  1.159586e-01    7.052457e-06
  1.162575e-01    7.170197e-06
  1.165564e-01    7.226784e-06
  1.168554e-01    7.125373e-06
  1.171543e-01    7.083354e-06
  1.174532e-01    7.102172e-06
  1.177522e-01    6.979225e-06
  1.180511e-01    7.046891e-06
  1.183500e-01    7.277421e-06
  1.186490e-01    7.132980e-06
  1.189479e-01    7.037599e-06
  1.192468e-01    6.965069e-06
  1.195458e-01    7.086493e-06
  1.198447e-01    7.148894e-06
  1.201436e-01    7.142080e-06
  1.204425e-01    7.011336e-06
  1.207415e-01    7.593796e-06
  1.210404e-01    6.786852e-06
  1.213393e-01    0.000000e+00
  1.216383e-01    0.000000e+00
  1.219372e-01    0.000000e+00
  1.222361e-01    0.000000e+00
  1.225351e-01    0.000000e+00
  1.228340e-01    0.000000e+00
  1.231329e-01    0.000000e+00
  1.234318e-01    0.000000e+00
  1.237308e-01    0.000000e+00
  1.240297e-01    0.000000e+00
  1.243286e-01    0.000000e+00
  1.246276e-01    0.000000e+00
  1.249265e-01    0.000000e+00
  1.252254e-01    0.000000e+00
  1.255244e-01    0.000000e+00
  1.258233e-01    0.000000e+00
  1.261222e-01    0.000000e+00
  1.264212e-01    0.000000e+00
  1.267201e-01    0.000000e+00
  1.270190e-01    0.000000e+00
  1.273179e-01    0.000000e+00
  1.276169e-01    0.000000e+00
  1.279158e-01    0.000000e+00
  1.282147e-01    0.000000e+00
  1.285137e-01    0.000000e+00
  1.288126e-01    0.000000e+00
  1.291115e-01    0.000000e+00
  1.294105e-01    0.000000e+00
  1.297094e-01    0.000000e+00
  1.300083e-01    0.000000e+00
  1.303072e-01    0.000000e+00
  1.306062e-01    0.000000e+00
  1.309051e-01    0.000000e+00
  1.312040e-01    0.000000e+00
  1.315030e-01    0.000000e+00
  1.318019e-01    0.000000e+00
  1.321008e-01    0.000000e+00
  1.323998e-01    0.000000e+00
  1.326987e-01    0.000000e+00
  1.329976e-01    0.000000e+00
  1.332965e-01    0.000000e+00
  1.335955e-01    0.000000e+00
  1.338944e-01    0.000000e+00
  1.341933e-01    0.000000e+00
  1.344923e-01    0.000000e+00
  1.347912e-01    0.000000e+00
  1.350901e-01    0.000000e+00
  1.353891e-01    0.000000e+00
  1.356880e-01    0.000000e+00
  1.359869e-01    0.000000e+00
  1.362859e-01    0.000000e+00
  1.365848e-01    0.000000e+00
  1.368837e-01    0.000000e+00
  1.371826e-01    0.000000e+00
  1.374816e-01    0.000000e+00
  1.377805e-01    0.000000e+00
  1.380794e-01    0.000000e+00
  1.383784e-01    0.000000e+00
  1.386773e-01    0.000000e+00
  1.389762e-01    0.000000e+00
  1.392752e-01    0.000000e+00
  1.395741e-01    0.000000e+00
  1.398730e-01    0.000000e+00
  1.401719e-01    0.000000e+00
  1.404709e-01    0.000000e+00
  1.407698e-01    0.000000e+00
  1.410687e-01    0.000000e+00
  1.413677e-01    0.000000e+00
  1.416666e-01    0.000000e+00
  1.419655e-01    0.000000e+00
  1.422645e-01    0.000000e+00
  1.425634e-01    0.000000e+00
  1.428623e-01    0.000000e+00
  1.431613e-01    0.000000e+00
  1.434602e-01    0.000000e+00
  1.437591e-01    0.000000e+00
  1.440580e-01    0.000000e+00
  1.443570e-01    0.000000e+00
  1.446559e-01    0.000000e+00
  1.449548e-01    0.000000e+00
  1.452538e-01    0.000000e+00
  1.455527e-01    0.000000e+00
  1.458516e-01    0.000000e+00
  1.461506e-01    0.000000e+00
  1.464495e-01    0.000000e+00
  1.467484e-01    0.000000e+00
  1.470473e-01    0.000000e+00
  1.473463e-01    0.000000e+00
  1.476452e-01    0.000000e+00
  1.479441e-01    0.000000e+00
  1.482431e-01    0.000000e+00
  1.485420e-01    0.000000e+00
  1.488409e-01    0.000000e+00
  1.491399e-01    0.000000e+00
  1.494388e-01    0.000000e+00
  1.497377e-01    0.000000e+00
  1.500367e-01    0.000000e+00
  1.503356e-01    0.000000e+00
  1.506345e-01    0.000000e+00
  1.509334e-01    0.000000e+00
  1.512324e-01    0.000000e+00
  1.515313e-01    0.000000e+00
  1.518302e-01    0.000000e+00
  1.521292e-01    0.000000e+00
  1.524281e-01    0.000000e+00
  1.527270e-01    0.000000e+00
  1.530260e-01    0.000000e+00
  1.533249e-01    0.000000e+00
  1.536238e-01    0.000000e+00
