# == pyFAI calibration ==
# Distance Sample to Detector: 2.266 m
# PONI: 5.659e-02, 4.293e-02 m
# Rotations: 0.000000 0.000000 0.000000 rad
# 
# == Fit2d calibration ==
# Distance Sample-beamCenter: 2266.000 mm
# Center: x=249.594, y=329.012 pix
# Tilt: 0.000 deg  TiltPlanRot: 0.000 deg
# 
# Detector Pilatus 300k	 PixelSize= 1.720e-04, 1.720e-04 m
#    Detector has a mask: True 
#    Detector has a dark current: False 
#    detector has a flat field: False 
# 
# Wavelength: 1.27818e-10 m
# Mask applied: user provided
# Dark current applied: False
# Flat field applied: False
# Polarization factor: None
# Normalization factor: 12059002.4
# --> F127_80.845_NaCl_0.000_limonene_0.000mgml_1_r1d.csv
#        q_A^-1             I 
  4.457554e-03    1.886346e-03
  4.756484e-03    1.506081e-03
  5.055415e-03    1.102477e-03
  5.354345e-03    7.987192e-04
  5.653276e-03    6.362830e-04
  5.952206e-03    1.027533e-03
  6.251136e-03    9.210269e-04
  6.550067e-03    7.851389e-04
  6.848997e-03    6.593320e-04
  7.147927e-03    5.561224e-04
  7.446858e-03    4.767454e-04
  7.745788e-03    4.113931e-04
  8.044719e-03    3.576070e-04
  8.343649e-03    3.146381e-04
  8.642579e-03    2.776223e-04
  8.941510e-03    2.463172e-04
  9.240440e-03    2.203584e-04
  9.539371e-03    1.977098e-04
  9.838301e-03    1.777915e-04
  1.013723e-02    1.612517e-04
  1.043616e-02    1.467315e-04
  1.073509e-02    1.339280e-04
  1.103402e-02    1.230284e-04
  1.133295e-02    1.133942e-04
  1.163188e-02    1.047063e-04
  1.193081e-02    9.697418e-05
  1.222974e-02    9.029829e-05
  1.252867e-02    8.414740e-05
  1.282760e-02    7.859671e-05
  1.312654e-02    7.356599e-05
  1.342547e-02    6.945323e-05
  1.372440e-02    6.558027e-05
  1.402333e-02    6.191880e-05
  1.432226e-02    5.865957e-05
  1.462119e-02    5.566603e-05
  1.492012e-02    5.306797e-05
  1.521905e-02    5.064398e-05
  1.551798e-02    4.839357e-05
  1.581691e-02    4.635268e-05
  1.611584e-02    4.447783e-05
  1.641477e-02    4.263048e-05
  1.671370e-02    4.105991e-05
  1.701263e-02    3.954001e-05
  1.731156e-02    3.811015e-05
  1.761049e-02    3.685054e-05
  1.790942e-02    3.570686e-05
  1.820835e-02    3.456185e-05
  1.850728e-02    3.346788e-05
  1.880621e-02    3.242485e-05
  1.910514e-02    3.155417e-05
  1.940407e-02    3.066604e-05
  1.970300e-02    2.970817e-05
  2.000193e-02    2.905055e-05
  2.030086e-02    2.840109e-05
  2.059979e-02    2.767331e-05
  2.089873e-02    2.705583e-05
  2.119766e-02    2.638044e-05
  2.149659e-02    2.585662e-05
  2.179552e-02    2.523242e-05
  2.209445e-02    2.455617e-05
  2.239338e-02    2.413916e-05
  2.269231e-02    2.366937e-05
  2.299124e-02    2.304791e-05
  2.329017e-02    2.246654e-05
  2.358910e-02    2.206104e-05
  2.388803e-02    2.170648e-05
  2.418696e-02    2.127646e-05
  2.448589e-02    2.079455e-05
  2.478482e-02    2.042037e-05
  2.508375e-02    2.001257e-05
  2.538268e-02    1.961989e-05
  2.568161e-02    1.920263e-05
  2.598054e-02    1.890982e-05
  2.627947e-02    1.860422e-05
  2.657840e-02    1.826819e-05
  2.687733e-02    1.793940e-05
  2.717626e-02    1.757417e-05
  2.747519e-02    1.724292e-05
  2.777412e-02    1.694198e-05
  2.807305e-02    1.663325e-05
  2.837198e-02    1.634205e-05
  2.867092e-02    1.603841e-05
  2.896985e-02    1.571317e-05
  2.926878e-02    1.543376e-05
  2.956771e-02    1.524422e-05
  2.986664e-02    1.498716e-05
  3.016557e-02    1.473867e-05
  3.046450e-02    1.446460e-05
  3.076343e-02    1.423699e-05
  3.106236e-02    1.400775e-05
  3.136129e-02    1.380106e-05
  3.166022e-02    1.361711e-05
  3.195915e-02    1.341638e-05
  3.225808e-02    1.317514e-05
  3.255701e-02    1.297740e-05
  3.285594e-02    1.279751e-05
  3.315487e-02    1.261965e-05
  3.345380e-02    1.252058e-05
  3.375273e-02    1.233357e-05
  3.405166e-02    1.213985e-05
  3.435059e-02    1.191651e-05
  3.464952e-02    1.179664e-05
  3.494845e-02    1.167112e-05
  3.524738e-02    1.151287e-05
  3.554631e-02    1.143488e-05
  3.584524e-02    1.128471e-05
  3.614417e-02    1.110836e-05
  3.644310e-02    1.102356e-05
  3.674204e-02    1.092350e-05
  3.704097e-02    1.081529e-05
  3.733990e-02    1.069132e-05
  3.763883e-02    1.054408e-05
  3.793776e-02    1.043559e-05
  3.823669e-02    1.036302e-05
  3.853562e-02    1.028443e-05
  3.883455e-02    1.021719e-05
  3.913348e-02    1.017109e-05
  3.943241e-02    1.005345e-05
  3.973134e-02    9.965943e-06
  4.003027e-02    9.893306e-06
  4.032920e-02    9.840842e-06
  4.062813e-02    9.795627e-06
  4.092706e-02    9.690790e-06
  4.122599e-02    9.589448e-06
  4.152492e-02    9.564030e-06
  4.182385e-02    9.548216e-06
  4.212278e-02    9.447458e-06
  4.242171e-02    9.399701e-06
  4.272064e-02    9.373662e-06
  4.301957e-02    9.365181e-06
  4.331850e-02    9.330979e-06
  4.361743e-02    9.280024e-06
  4.391636e-02    9.241447e-06
  4.421529e-02    9.257550e-06
  4.451423e-02    9.203358e-06
  4.481316e-02    9.141864e-06
  4.511209e-02    9.132438e-06
  4.541102e-02    9.132176e-06
  4.570995e-02    9.089566e-06
  4.600888e-02    9.069929e-06
  4.630781e-02    9.010374e-06
  4.660674e-02    8.972653e-06
  4.690567e-02    8.949271e-06
  4.720460e-02    8.948000e-06
  4.750353e-02    8.951929e-06
  4.780246e-02    8.955263e-06
  4.810139e-02    8.950709e-06
  4.840032e-02    8.916857e-06
  4.869925e-02    8.916531e-06
  4.899818e-02    8.942062e-06
  4.929711e-02    8.867018e-06
  4.959604e-02    8.788399e-06
  4.989497e-02    8.850732e-06
  5.019390e-02    8.923263e-06
  5.049283e-02    8.914214e-06
  5.079176e-02    8.887637e-06
  5.109069e-02    8.853453e-06
  5.138962e-02    8.901249e-06
  5.168855e-02    8.965884e-06
  5.198748e-02    8.979320e-06
  5.228642e-02    8.963436e-06
  5.258535e-02    8.883775e-06
  5.288428e-02    8.832614e-06
  5.318321e-02    8.825893e-06
  5.348214e-02    8.837047e-06
  5.378107e-02    8.837123e-06
  5.408000e-02    8.792576e-06
  5.437893e-02    8.773289e-06
  5.467786e-02    8.816967e-06
  5.497679e-02    8.835591e-06
  5.527572e-02    8.837852e-06
  5.557465e-02    8.839741e-06
  5.587358e-02    8.836706e-06
  5.617251e-02    8.816745e-06
  5.647144e-02    8.796798e-06
  5.677037e-02    8.817781e-06
  5.706930e-02    8.821690e-06
  5.736823e-02    8.803234e-06
  5.766716e-02    8.796716e-06
  5.796609e-02    8.822700e-06
  5.826502e-02    8.859002e-06
  5.856395e-02    8.819715e-06
  5.886288e-02    8.810259e-06
  5.916181e-02    8.814107e-06
  5.946074e-02    8.871969e-06
  5.975967e-02    8.873544e-06
  6.005861e-02    8.831254e-06
  6.035754e-02    8.830223e-06
  6.065647e-02    8.820207e-06
  6.095540e-02    8.842047e-06
  6.125433e-02    8.899869e-06
  6.155326e-02    8.891127e-06
  6.185219e-02    8.862551e-06
  6.215112e-02    8.859097e-06
  6.245005e-02    8.869007e-06
  6.274898e-02    8.865735e-06
  6.304791e-02    8.821162e-06
  6.334684e-02    8.816633e-06
  6.364577e-02    8.852931e-06
  6.394470e-02    8.867348e-06
  6.424363e-02    8.832112e-06
  6.454256e-02    8.810599e-06
  6.484149e-02    8.819447e-06
  6.514042e-02    8.822331e-06
  6.543935e-02    8.843833e-06
  6.573828e-02    8.845281e-06
  6.603721e-02    8.844715e-06
  6.633614e-02    8.828810e-06
  6.663507e-02    8.855075e-06
  6.693400e-02    8.831297e-06
  6.723293e-02    8.810060e-06
  6.753186e-02    8.835824e-06
  6.783080e-02    8.868919e-06
  6.812973e-02    8.819336e-06
  6.842866e-02    8.810468e-06
  6.872759e-02    8.825806e-06
  6.902652e-02    8.829553e-06
  6.932545e-02    8.833513e-06
  6.962438e-02    8.818105e-06
  6.992331e-02    8.832372e-06
  7.022224e-02    8.806694e-06
  7.052117e-02    8.765985e-06
  7.082010e-02    8.813524e-06
  7.111903e-02    8.829685e-06
  7.141796e-02    8.799100e-06
  7.171689e-02    8.797253e-06
  7.201582e-02    8.810291e-06
  7.231475e-02    8.789360e-06
  7.261368e-02    8.757026e-06
  7.291261e-02    8.787166e-06
  7.321154e-02    8.794650e-06
  7.351047e-02    8.806469e-06
  7.380940e-02    8.807882e-06
  7.410833e-02    8.812161e-06
  7.440726e-02    8.776678e-06
  7.470619e-02    8.745366e-06
  7.500512e-02    8.775412e-06
  7.530405e-02    8.794213e-06
  7.560299e-02    8.769352e-06
  7.590192e-02    8.745649e-06
  7.620085e-02    8.734001e-06
  7.649978e-02    8.734805e-06
  7.679871e-02    8.745689e-06
  7.709764e-02    8.725916e-06
  7.739657e-02    8.708662e-06
  7.769550e-02    8.693580e-06
  7.799443e-02    8.736939e-06
  7.829336e-02    8.701491e-06
  7.859229e-02    8.680560e-06
  7.889122e-02    8.680729e-06
  7.919015e-02    8.643136e-06
  7.948908e-02    8.674479e-06
  7.978801e-02    8.663639e-06
  8.008694e-02    8.646097e-06
  8.038587e-02    8.615676e-06
  8.068480e-02    8.589625e-06
  8.098373e-02    8.592404e-06
  8.128266e-02    8.567385e-06
  8.158159e-02    8.573384e-06
  8.188052e-02    8.597109e-06
  8.217945e-02    8.589828e-06
  8.247838e-02    8.538881e-06
  8.277731e-02    8.529965e-06
  8.307624e-02    8.541037e-06
  8.337518e-02    8.532402e-06
  8.367411e-02    8.548256e-06
  8.397304e-02    8.503438e-06
  8.427197e-02    8.492166e-06
  8.457090e-02    8.494515e-06
  8.486983e-02    8.469946e-06
  8.516876e-02    8.451197e-06
  8.546769e-02    8.442045e-06
  8.576662e-02    8.427372e-06
  8.606555e-02    8.396692e-06
  8.636448e-02    8.397327e-06
  8.666341e-02    8.413380e-06
  8.696234e-02    8.411785e-06
  8.726127e-02    8.372922e-06
  8.756020e-02    8.374929e-06
  8.785913e-02    8.345268e-06
  8.815806e-02    8.328436e-06
  8.845699e-02    8.296320e-06
  8.875592e-02    8.312011e-06
  8.905485e-02    8.306311e-06
  8.935378e-02    8.278080e-06
  8.965271e-02    8.257865e-06
  8.995164e-02    8.256144e-06
  9.025057e-02    8.257932e-06
  9.054950e-02    8.217385e-06
  9.084843e-02    8.196123e-06
  9.114737e-02    8.196846e-06
  9.144630e-02    8.180738e-06
  9.174523e-02    8.186631e-06
  9.204416e-02    8.166590e-06
  9.234309e-02    8.135235e-06
  9.264202e-02    8.119584e-06
  9.294095e-02    8.131020e-06
  9.323988e-02    8.115795e-06
  9.353881e-02    8.085304e-06
  9.383774e-02    8.083464e-06
  9.413667e-02    8.077002e-06
  9.443560e-02    8.050773e-06
  9.473453e-02    8.018082e-06
  9.503346e-02    8.038181e-06
  9.533239e-02    8.031177e-06
  9.563132e-02    8.018244e-06
  9.593025e-02    8.000929e-06
  9.622918e-02    7.997179e-06
  9.652811e-02    7.979077e-06
  9.682704e-02    8.002369e-06
  9.712597e-02    7.983164e-06
  9.742490e-02    7.965691e-06
  9.772383e-02    7.972735e-06
  9.802276e-02    7.946142e-06
  9.832169e-02    7.914897e-06
  9.862062e-02    7.904629e-06
  9.891956e-02    7.880934e-06
  9.921849e-02    7.881603e-06
  9.951742e-02    7.875831e-06
  9.981635e-02    7.866219e-06
  1.001153e-01    7.839478e-06
  1.004142e-01    7.803546e-06
  1.007131e-01    7.799956e-06
  1.010121e-01    7.789904e-06
  1.013110e-01    7.766293e-06
  1.016099e-01    7.772434e-06
  1.019089e-01    7.763860e-06
  1.022078e-01    7.742216e-06
  1.025067e-01    7.769468e-06
  1.028057e-01    7.759709e-06
  1.031046e-01    7.721932e-06
  1.034035e-01    7.709943e-06
  1.037024e-01    7.681467e-06
  1.040014e-01    7.692936e-06
  1.043003e-01    7.668347e-06
  1.045992e-01    7.658199e-06
  1.048982e-01    7.660034e-06
  1.051971e-01    7.599084e-06
  1.054960e-01    7.570762e-06
  1.057950e-01    7.571917e-06
  1.060939e-01    7.587925e-06
  1.063928e-01    7.609854e-06
  1.066917e-01    7.606238e-06
  1.069907e-01    7.580557e-06
  1.072896e-01    7.547258e-06
  1.075885e-01    7.551062e-06
  1.078875e-01    7.533346e-06
  1.081864e-01    7.527211e-06
  1.084853e-01    7.516445e-06
  1.087843e-01    7.533005e-06
  1.090832e-01    7.497017e-06
  1.093821e-01    7.449372e-06
  1.096810e-01    7.452329e-06
  1.099800e-01    7.429954e-06
  1.102789e-01    7.417706e-06
  1.105778e-01    7.382367e-06
  1.108768e-01    7.358158e-06
  1.111757e-01    7.311040e-06
  1.114746e-01    7.295830e-06
  1.117736e-01    7.319833e-06
  1.120725e-01    7.279647e-06
  1.123714e-01    7.191217e-06
  1.126704e-01    7.155370e-06
  1.129693e-01    7.113455e-06
  1.132682e-01    7.072764e-06
  1.135671e-01    7.064245e-06
  1.138661e-01    7.048327e-06
  1.141650e-01    7.001930e-06
  1.144639e-01    6.993880e-06
  1.147629e-01    6.995079e-06
  1.150618e-01    7.013412e-06
  1.153607e-01    6.976315e-06
  1.156597e-01    6.938660e-06
  1.159586e-01    6.910021e-06
  1.162575e-01    6.938368e-06
  1.165564e-01    6.990795e-06
  1.168554e-01    7.003071e-06
  1.171543e-01    6.858711e-06
  1.174532e-01    6.856033e-06
  1.177522e-01    6.944147e-06
  1.180511e-01    6.965563e-06
  1.183500e-01    6.908824e-06
  1.186490e-01    6.851825e-06
  1.189479e-01    6.855449e-06
  1.192468e-01    6.862441e-06
  1.195458e-01    6.811182e-06
  1.198447e-01    6.824226e-06
  1.201436e-01    6.784441e-06
  1.204425e-01    6.535054e-06
  1.207415e-01    6.271360e-06
  1.210404e-01    5.561049e-06
  1.213393e-01    0.000000e+00
  1.216383e-01    0.000000e+00
  1.219372e-01    0.000000e+00
  1.222361e-01    0.000000e+00
  1.225351e-01    0.000000e+00
  1.228340e-01    0.000000e+00
  1.231329e-01    0.000000e+00
  1.234318e-01    0.000000e+00
  1.237308e-01    0.000000e+00
  1.240297e-01    0.000000e+00
  1.243286e-01    0.000000e+00
  1.246276e-01    0.000000e+00
  1.249265e-01    0.000000e+00
  1.252254e-01    0.000000e+00
  1.255244e-01    0.000000e+00
  1.258233e-01    0.000000e+00
  1.261222e-01    0.000000e+00
  1.264212e-01    0.000000e+00
  1.267201e-01    0.000000e+00
  1.270190e-01    0.000000e+00
  1.273179e-01    0.000000e+00
  1.276169e-01    0.000000e+00
  1.279158e-01    0.000000e+00
  1.282147e-01    0.000000e+00
  1.285137e-01    0.000000e+00
  1.288126e-01    0.000000e+00
  1.291115e-01    0.000000e+00
  1.294105e-01    0.000000e+00
  1.297094e-01    0.000000e+00
  1.300083e-01    0.000000e+00
  1.303072e-01    0.000000e+00
  1.306062e-01    0.000000e+00
  1.309051e-01    0.000000e+00
  1.312040e-01    0.000000e+00
  1.315030e-01    0.000000e+00
  1.318019e-01    0.000000e+00
  1.321008e-01    0.000000e+00
  1.323998e-01    0.000000e+00
  1.326987e-01    0.000000e+00
  1.329976e-01    0.000000e+00
  1.332965e-01    0.000000e+00
  1.335955e-01    0.000000e+00
  1.338944e-01    0.000000e+00
  1.341933e-01    0.000000e+00
  1.344923e-01    0.000000e+00
  1.347912e-01    0.000000e+00
  1.350901e-01    0.000000e+00
  1.353891e-01    0.000000e+00
  1.356880e-01    0.000000e+00
  1.359869e-01    0.000000e+00
  1.362859e-01    0.000000e+00
  1.365848e-01    0.000000e+00
  1.368837e-01    0.000000e+00
  1.371826e-01    0.000000e+00
  1.374816e-01    0.000000e+00
  1.377805e-01    0.000000e+00
  1.380794e-01    0.000000e+00
  1.383784e-01    0.000000e+00
  1.386773e-01    0.000000e+00
  1.389762e-01    0.000000e+00
  1.392752e-01    0.000000e+00
  1.395741e-01    0.000000e+00
  1.398730e-01    0.000000e+00
  1.401719e-01    0.000000e+00
  1.404709e-01    0.000000e+00
  1.407698e-01    0.000000e+00
  1.410687e-01    0.000000e+00
  1.413677e-01    0.000000e+00
  1.416666e-01    0.000000e+00
  1.419655e-01    0.000000e+00
  1.422645e-01    0.000000e+00
  1.425634e-01    0.000000e+00
  1.428623e-01    0.000000e+00
  1.431613e-01    0.000000e+00
  1.434602e-01    0.000000e+00
  1.437591e-01    0.000000e+00
  1.440580e-01    0.000000e+00
  1.443570e-01    0.000000e+00
  1.446559e-01    0.000000e+00
  1.449548e-01    0.000000e+00
  1.452538e-01    0.000000e+00
  1.455527e-01    0.000000e+00
  1.458516e-01    0.000000e+00
  1.461506e-01    0.000000e+00
  1.464495e-01    0.000000e+00
  1.467484e-01    0.000000e+00
  1.470473e-01    0.000000e+00
  1.473463e-01    0.000000e+00
  1.476452e-01    0.000000e+00
  1.479441e-01    0.000000e+00
  1.482431e-01    0.000000e+00
  1.485420e-01    0.000000e+00
  1.488409e-01    0.000000e+00
  1.491399e-01    0.000000e+00
  1.494388e-01    0.000000e+00
  1.497377e-01    0.000000e+00
  1.500367e-01    0.000000e+00
  1.503356e-01    0.000000e+00
  1.506345e-01    0.000000e+00
  1.509334e-01    0.000000e+00
  1.512324e-01    0.000000e+00
  1.515313e-01    0.000000e+00
  1.518302e-01    0.000000e+00
  1.521292e-01    0.000000e+00
  1.524281e-01    0.000000e+00
  1.527270e-01    0.000000e+00
  1.530260e-01    0.000000e+00
  1.533249e-01    0.000000e+00
  1.536238e-01    0.000000e+00
