# == pyFAI calibration ==
# Distance Sample to Detector: 2.266 m
# PONI: 5.659e-02, 4.293e-02 m
# Rotations: 0.000000 0.000000 0.000000 rad
# 
# == Fit2d calibration ==
# Distance Sample-beamCenter: 2266.000 mm
# Center: x=249.594, y=329.012 pix
# Tilt: 0.000 deg  TiltPlanRot: 0.000 deg
# 
# Detector Pilatus 300k	 PixelSize= 1.720e-04, 1.720e-04 m
#    Detector has a mask: True 
#    Detector has a dark current: False 
#    detector has a flat field: False 
# 
# Wavelength: 1.27818e-10 m
# Mask applied: user provided
# Dark current applied: False
# Flat field applied: False
# Polarization factor: None
# Normalization factor: 2168170.8000000003
# --> F127_132.225_hexanes_32.455_EtOH_0.000_NaCl_100.279mgml_2_r1d.csv
#        q_A^-1             I 
  4.457554e-03    2.865573e-03
  4.756484e-03    2.229771e-03
  5.055415e-03    1.561360e-03
  5.354345e-03    1.037625e-03
  5.653276e-03    7.564939e-04
  5.952206e-03    1.128655e-03
  6.251136e-03    1.020397e-03
  6.550067e-03    8.855382e-04
  6.848997e-03    7.565922e-04
  7.147927e-03    6.428693e-04
  7.446858e-03    5.484689e-04
  7.745788e-03    4.722786e-04
  8.044719e-03    4.068693e-04
  8.343649e-03    3.556429e-04
  8.642579e-03    3.112508e-04
  8.941510e-03    2.746583e-04
  9.240440e-03    2.439493e-04
  9.539371e-03    2.171220e-04
  9.838301e-03    1.942585e-04
  1.013723e-02    1.744098e-04
  1.043616e-02    1.569359e-04
  1.073509e-02    1.414895e-04
  1.103402e-02    1.287564e-04
  1.133295e-02    1.171071e-04
  1.163188e-02    1.069063e-04
  1.193081e-02    9.825132e-05
  1.222974e-02    9.088025e-05
  1.252867e-02    8.419153e-05
  1.282760e-02    7.797190e-05
  1.312654e-02    7.175570e-05
  1.342547e-02    6.625796e-05
  1.372440e-02    6.200809e-05
  1.402333e-02    5.831498e-05
  1.432226e-02    5.463991e-05
  1.462119e-02    5.141447e-05
  1.492012e-02    4.850739e-05
  1.521905e-02    4.571457e-05
  1.551798e-02    4.299097e-05
  1.581691e-02    4.102221e-05
  1.611584e-02    3.894250e-05
  1.641477e-02    3.712967e-05
  1.671370e-02    3.597559e-05
  1.701263e-02    3.423713e-05
  1.731156e-02    3.258045e-05
  1.761049e-02    3.140694e-05
  1.790942e-02    3.037296e-05
  1.820835e-02    2.919783e-05
  1.850728e-02    2.815427e-05
  1.880621e-02    2.771196e-05
  1.910514e-02    2.724369e-05
  1.940407e-02    2.673731e-05
  1.970300e-02    2.619208e-05
  2.000193e-02    2.571082e-05
  2.030086e-02    2.540455e-05
  2.059979e-02    2.514285e-05
  2.089873e-02    2.499724e-05
  2.119766e-02    2.503972e-05
  2.149659e-02    2.513428e-05
  2.179552e-02    2.519875e-05
  2.209445e-02    2.525418e-05
  2.239338e-02    2.555742e-05
  2.269231e-02    2.585254e-05
  2.299124e-02    2.616822e-05
  2.329017e-02    2.653291e-05
  2.358910e-02    2.692484e-05
  2.388803e-02    2.722477e-05
  2.418696e-02    2.749455e-05
  2.448589e-02    2.786827e-05
  2.478482e-02    2.841525e-05
  2.508375e-02    2.895614e-05
  2.538268e-02    2.895728e-05
  2.568161e-02    2.910953e-05
  2.598054e-02    2.929243e-05
  2.627947e-02    2.923050e-05
  2.657840e-02    2.940201e-05
  2.687733e-02    2.966821e-05
  2.717626e-02    2.951224e-05
  2.747519e-02    2.949801e-05
  2.777412e-02    2.951146e-05
  2.807305e-02    2.949656e-05
  2.837198e-02    2.946907e-05
  2.867092e-02    2.911519e-05
  2.896985e-02    2.879419e-05
  2.926878e-02    2.859186e-05
  2.956771e-02    2.841148e-05
  2.986664e-02    2.815210e-05
  3.016557e-02    2.790858e-05
  3.046450e-02    2.736957e-05
  3.076343e-02    2.701059e-05
  3.106236e-02    2.704338e-05
  3.136129e-02    2.701458e-05
  3.166022e-02    2.682936e-05
  3.195915e-02    2.653374e-05
  3.225808e-02    2.636969e-05
  3.255701e-02    2.623540e-05
  3.285594e-02    2.613615e-05
  3.315487e-02    2.619956e-05
  3.345380e-02    2.579317e-05
  3.375273e-02    2.569817e-05
  3.405166e-02    2.560658e-05
  3.435059e-02    2.561358e-05
  3.464952e-02    2.549369e-05
  3.494845e-02    2.539794e-05
  3.524738e-02    2.520214e-05
  3.554631e-02    2.527408e-05
  3.584524e-02    2.537474e-05
  3.614417e-02    2.515652e-05
  3.644310e-02    2.511915e-05
  3.674204e-02    2.498053e-05
  3.704097e-02    2.508674e-05
  3.733990e-02    2.526112e-05
  3.763883e-02    2.530464e-05
  3.793776e-02    2.515955e-05
  3.823669e-02    2.518523e-05
  3.853562e-02    2.540836e-05
  3.883455e-02    2.534909e-05
  3.913348e-02    2.509127e-05
  3.943241e-02    2.519133e-05
  3.973134e-02    2.513621e-05
  4.003027e-02    2.521195e-05
  4.032920e-02    2.531414e-05
  4.062813e-02    2.542899e-05
  4.092706e-02    2.562986e-05
  4.122599e-02    2.576787e-05
  4.152492e-02    2.576074e-05
  4.182385e-02    2.569139e-05
  4.212278e-02    2.576846e-05
  4.242171e-02    2.594426e-05
  4.272064e-02    2.605220e-05
  4.301957e-02    2.594207e-05
  4.331850e-02    2.596575e-05
  4.361743e-02    2.613607e-05
  4.391636e-02    2.609441e-05
  4.421529e-02    2.613377e-05
  4.451423e-02    2.613163e-05
  4.481316e-02    2.615707e-05
  4.511209e-02    2.615106e-05
  4.541102e-02    2.609153e-05
  4.570995e-02    2.609413e-05
  4.600888e-02    2.613006e-05
  4.630781e-02    2.618227e-05
  4.660674e-02    2.611360e-05
  4.690567e-02    2.582225e-05
  4.720460e-02    2.575509e-05
  4.750353e-02    2.579616e-05
  4.780246e-02    2.564351e-05
  4.810139e-02    2.540934e-05
  4.840032e-02    2.523555e-05
  4.869925e-02    2.512355e-05
  4.899818e-02    2.491532e-05
  4.929711e-02    2.488145e-05
  4.959604e-02    2.462144e-05
  4.989497e-02    2.421107e-05
  5.019390e-02    2.401375e-05
  5.049283e-02    2.394762e-05
  5.079176e-02    2.376365e-05
  5.109069e-02    2.360716e-05
  5.138962e-02    2.342626e-05
  5.168855e-02    2.321629e-05
  5.198748e-02    2.315093e-05
  5.228642e-02    2.288600e-05
  5.258535e-02    2.259193e-05
  5.288428e-02    2.207346e-05
  5.318321e-02    2.186383e-05
  5.348214e-02    2.148553e-05
  5.378107e-02    2.122344e-05
  5.408000e-02    2.101176e-05
  5.437893e-02    2.075630e-05
  5.467786e-02    2.042367e-05
  5.497679e-02    2.004862e-05
  5.527572e-02    1.996072e-05
  5.557465e-02    1.974613e-05
  5.587358e-02    1.932642e-05
  5.617251e-02    1.908417e-05
  5.647144e-02    1.882092e-05
  5.677037e-02    1.844521e-05
  5.706930e-02    1.823645e-05
  5.736823e-02    1.803766e-05
  5.766716e-02    1.778807e-05
  5.796609e-02    1.761936e-05
  5.826502e-02    1.754903e-05
  5.856395e-02    1.734988e-05
  5.886288e-02    1.713131e-05
  5.916181e-02    1.672157e-05
  5.946074e-02    1.650104e-05
  5.975967e-02    1.642461e-05
  6.005861e-02    1.619995e-05
  6.035754e-02    1.603207e-05
  6.065647e-02    1.587056e-05
  6.095540e-02    1.574875e-05
  6.125433e-02    1.568661e-05
  6.155326e-02    1.544337e-05
  6.185219e-02    1.514224e-05
  6.215112e-02    1.498497e-05
  6.245005e-02    1.482067e-05
  6.274898e-02    1.465864e-05
  6.304791e-02    1.458588e-05
  6.334684e-02    1.445586e-05
  6.364577e-02    1.431840e-05
  6.394470e-02    1.416176e-05
  6.424363e-02    1.406859e-05
  6.454256e-02    1.393494e-05
  6.484149e-02    1.372147e-05
  6.514042e-02    1.362197e-05
  6.543935e-02    1.359610e-05
  6.573828e-02    1.342653e-05
  6.603721e-02    1.327367e-05
  6.633614e-02    1.323609e-05
  6.663507e-02    1.319669e-05
  6.693400e-02    1.302900e-05
  6.723293e-02    1.284543e-05
  6.753186e-02    1.283797e-05
  6.783080e-02    1.283704e-05
  6.812973e-02    1.270012e-05
  6.842866e-02    1.254175e-05
  6.872759e-02    1.242537e-05
  6.902652e-02    1.243187e-05
  6.932545e-02    1.228767e-05
  6.962438e-02    1.218705e-05
  6.992331e-02    1.221388e-05
  7.022224e-02    1.219236e-05
  7.052117e-02    1.211598e-05
  7.082010e-02    1.199551e-05
  7.111903e-02    1.199666e-05
  7.141796e-02    1.188961e-05
  7.171689e-02    1.172825e-05
  7.201582e-02    1.172978e-05
  7.231475e-02    1.174882e-05
  7.261368e-02    1.171238e-05
  7.291261e-02    1.152062e-05
  7.321154e-02    1.141146e-05
  7.351047e-02    1.151103e-05
  7.380940e-02    1.145412e-05
  7.410833e-02    1.129715e-05
  7.440726e-02    1.122124e-05
  7.470619e-02    1.126636e-05
  7.500512e-02    1.112569e-05
  7.530405e-02    1.109239e-05
  7.560299e-02    1.101079e-05
  7.590192e-02    1.092955e-05
  7.620085e-02    1.092842e-05
  7.649978e-02    1.089490e-05
  7.679871e-02    1.089150e-05
  7.709764e-02    1.086577e-05
  7.739657e-02    1.072315e-05
  7.769550e-02    1.063458e-05
  7.799443e-02    1.068084e-05
  7.829336e-02    1.075059e-05
  7.859229e-02    1.068565e-05
  7.889122e-02    1.056163e-05
  7.919015e-02    1.053448e-05
  7.948908e-02    1.049992e-05
  7.978801e-02    1.048601e-05
  8.008694e-02    1.049289e-05
  8.038587e-02    1.056193e-05
  8.068480e-02    1.050713e-05
  8.098373e-02    1.037390e-05
  8.128266e-02    1.028342e-05
  8.158159e-02    1.030915e-05
  8.188052e-02    1.031395e-05
  8.217945e-02    1.030659e-05
  8.247838e-02    1.027598e-05
  8.277731e-02    1.023580e-05
  8.307624e-02    1.023669e-05
  8.337518e-02    1.020544e-05
  8.367411e-02    1.014718e-05
  8.397304e-02    1.010789e-05
  8.427197e-02    1.005092e-05
  8.457090e-02    1.003545e-05
  8.486983e-02    1.005794e-05
  8.516876e-02    9.959283e-06
  8.546769e-02    9.989019e-06
  8.576662e-02    9.906702e-06
  8.606555e-02    9.928831e-06
  8.636448e-02    9.936962e-06
  8.666341e-02    9.898543e-06
  8.696234e-02    9.882632e-06
  8.726127e-02    9.884136e-06
  8.756020e-02    9.770875e-06
  8.785913e-02    9.827304e-06
  8.815806e-02    9.843339e-06
  8.845699e-02    9.785724e-06
  8.875592e-02    9.739812e-06
  8.905485e-02    9.771838e-06
  8.935378e-02    9.805904e-06
  8.965271e-02    9.779578e-06
  8.995164e-02    9.804172e-06
  9.025057e-02    9.709997e-06
  9.054950e-02    9.648367e-06
  9.084843e-02    9.728036e-06
  9.114737e-02    9.777873e-06
  9.144630e-02    9.769686e-06
  9.174523e-02    9.697026e-06
  9.204416e-02    9.648766e-06
  9.234309e-02    9.648068e-06
  9.264202e-02    9.645953e-06
  9.294095e-02    9.610389e-06
  9.323988e-02    9.681908e-06
  9.353881e-02    9.647417e-06
  9.383774e-02    9.638683e-06
  9.413667e-02    9.594176e-06
  9.443560e-02    9.548753e-06
  9.473453e-02    9.638346e-06
  9.503346e-02    9.651513e-06
  9.533239e-02    9.587995e-06
  9.563132e-02    9.562476e-06
  9.593025e-02    9.562022e-06
  9.622918e-02    9.630916e-06
  9.652811e-02    9.627313e-06
  9.682704e-02    9.732928e-06
  9.712597e-02    9.679927e-06
  9.742490e-02    9.597440e-06
  9.772383e-02    9.572699e-06
  9.802276e-02    9.580725e-06
  9.832169e-02    9.621840e-06
  9.862062e-02    9.641381e-06
  9.891956e-02    9.601772e-06
  9.921849e-02    9.561638e-06
  9.951742e-02    9.543738e-06
  9.981635e-02    9.517349e-06
  1.001153e-01    9.577470e-06
  1.004142e-01    9.545247e-06
  1.007131e-01    9.511302e-06
  1.010121e-01    9.487443e-06
  1.013110e-01    9.469545e-06
  1.016099e-01    9.504452e-06
  1.019089e-01    9.534360e-06
  1.022078e-01    9.487610e-06
  1.025067e-01    9.420722e-06
  1.028057e-01    9.447872e-06
  1.031046e-01    9.462063e-06
  1.034035e-01    9.376023e-06
  1.037024e-01    9.363887e-06
  1.040014e-01    9.310726e-06
  1.043003e-01    9.347253e-06
  1.045992e-01    9.402307e-06
  1.048982e-01    9.457645e-06
  1.051971e-01    9.395581e-06
  1.054960e-01    9.366332e-06
  1.057950e-01    9.372726e-06
  1.060939e-01    9.313776e-06
  1.063928e-01    9.354575e-06
  1.066917e-01    9.393503e-06
  1.069907e-01    9.447240e-06
  1.072896e-01    9.445404e-06
  1.075885e-01    9.467239e-06
  1.078875e-01    9.403663e-06
  1.081864e-01    9.396638e-06
  1.084853e-01    9.456672e-06
  1.087843e-01    9.574075e-06
  1.090832e-01    9.595588e-06
  1.093821e-01    9.494285e-06
  1.096810e-01    9.454490e-06
  1.099800e-01    9.510381e-06
  1.102789e-01    9.432388e-06
  1.105778e-01    9.398256e-06
  1.108768e-01    9.341602e-06
  1.111757e-01    9.357224e-06
  1.114746e-01    9.342033e-06
  1.117736e-01    9.175627e-06
  1.120725e-01    9.019833e-06
  1.123714e-01    8.999157e-06
  1.126704e-01    8.894684e-06
  1.129693e-01    8.855654e-06
  1.132682e-01    8.786466e-06
  1.135671e-01    8.617881e-06
  1.138661e-01    8.454747e-06
  1.141650e-01    8.392548e-06
  1.144639e-01    8.364518e-06
  1.147629e-01    8.241467e-06
  1.150618e-01    8.087531e-06
  1.153607e-01    8.178939e-06
  1.156597e-01    8.120910e-06
  1.159586e-01    7.992178e-06
  1.162575e-01    7.904520e-06
  1.165564e-01    7.834989e-06
  1.168554e-01    7.873373e-06
  1.171543e-01    8.018279e-06
  1.174532e-01    8.162395e-06
  1.177522e-01    8.165444e-06
  1.180511e-01    8.300331e-06
  1.183500e-01    8.398842e-06
  1.186490e-01    8.361365e-06
  1.189479e-01    8.239684e-06
  1.192468e-01    8.196054e-06
  1.195458e-01    8.268215e-06
  1.198447e-01    8.125774e-06
  1.201436e-01    7.986805e-06
  1.204425e-01    7.822751e-06
  1.207415e-01    7.172028e-06
  1.210404e-01    5.539633e-06
  1.213393e-01    0.000000e+00
  1.216383e-01    0.000000e+00
  1.219372e-01    0.000000e+00
  1.222361e-01    0.000000e+00
  1.225351e-01    0.000000e+00
  1.228340e-01    0.000000e+00
  1.231329e-01    0.000000e+00
  1.234318e-01    0.000000e+00
  1.237308e-01    0.000000e+00
  1.240297e-01    0.000000e+00
  1.243286e-01    0.000000e+00
  1.246276e-01    0.000000e+00
  1.249265e-01    0.000000e+00
  1.252254e-01    0.000000e+00
  1.255244e-01    0.000000e+00
  1.258233e-01    0.000000e+00
  1.261222e-01    0.000000e+00
  1.264212e-01    0.000000e+00
  1.267201e-01    0.000000e+00
  1.270190e-01    0.000000e+00
  1.273179e-01    0.000000e+00
  1.276169e-01    0.000000e+00
  1.279158e-01    0.000000e+00
  1.282147e-01    0.000000e+00
  1.285137e-01    0.000000e+00
  1.288126e-01    0.000000e+00
  1.291115e-01    0.000000e+00
  1.294105e-01    0.000000e+00
  1.297094e-01    0.000000e+00
  1.300083e-01    0.000000e+00
  1.303072e-01    0.000000e+00
  1.306062e-01    0.000000e+00
  1.309051e-01    0.000000e+00
  1.312040e-01    0.000000e+00
  1.315030e-01    0.000000e+00
  1.318019e-01    0.000000e+00
  1.321008e-01    0.000000e+00
  1.323998e-01    0.000000e+00
  1.326987e-01    0.000000e+00
  1.329976e-01    0.000000e+00
  1.332965e-01    0.000000e+00
  1.335955e-01    0.000000e+00
  1.338944e-01    0.000000e+00
  1.341933e-01    0.000000e+00
  1.344923e-01    0.000000e+00
  1.347912e-01    0.000000e+00
  1.350901e-01    0.000000e+00
  1.353891e-01    0.000000e+00
  1.356880e-01    0.000000e+00
  1.359869e-01    0.000000e+00
  1.362859e-01    0.000000e+00
  1.365848e-01    0.000000e+00
  1.368837e-01    0.000000e+00
  1.371826e-01    0.000000e+00
  1.374816e-01    0.000000e+00
  1.377805e-01    0.000000e+00
  1.380794e-01    0.000000e+00
  1.383784e-01    0.000000e+00
  1.386773e-01    0.000000e+00
  1.389762e-01    0.000000e+00
  1.392752e-01    0.000000e+00
  1.395741e-01    0.000000e+00
  1.398730e-01    0.000000e+00
  1.401719e-01    0.000000e+00
  1.404709e-01    0.000000e+00
  1.407698e-01    0.000000e+00
  1.410687e-01    0.000000e+00
  1.413677e-01    0.000000e+00
  1.416666e-01    0.000000e+00
  1.419655e-01    0.000000e+00
  1.422645e-01    0.000000e+00
  1.425634e-01    0.000000e+00
  1.428623e-01    0.000000e+00
  1.431613e-01    0.000000e+00
  1.434602e-01    0.000000e+00
  1.437591e-01    0.000000e+00
  1.440580e-01    0.000000e+00
  1.443570e-01    0.000000e+00
  1.446559e-01    0.000000e+00
  1.449548e-01    0.000000e+00
  1.452538e-01    0.000000e+00
  1.455527e-01    0.000000e+00
  1.458516e-01    0.000000e+00
  1.461506e-01    0.000000e+00
  1.464495e-01    0.000000e+00
  1.467484e-01    0.000000e+00
  1.470473e-01    0.000000e+00
  1.473463e-01    0.000000e+00
  1.476452e-01    0.000000e+00
  1.479441e-01    0.000000e+00
  1.482431e-01    0.000000e+00
  1.485420e-01    0.000000e+00
  1.488409e-01    0.000000e+00
  1.491399e-01    0.000000e+00
  1.494388e-01    0.000000e+00
  1.497377e-01    0.000000e+00
  1.500367e-01    0.000000e+00
  1.503356e-01    0.000000e+00
  1.506345e-01    0.000000e+00
  1.509334e-01    0.000000e+00
  1.512324e-01    0.000000e+00
  1.515313e-01    0.000000e+00
  1.518302e-01    0.000000e+00
  1.521292e-01    0.000000e+00
  1.524281e-01    0.000000e+00
  1.527270e-01    0.000000e+00
  1.530260e-01    0.000000e+00
  1.533249e-01    0.000000e+00
  1.536238e-01    0.000000e+00
