# == pyFAI calibration ==
# Distance Sample to Detector: 2.266 m
# PONI: 5.659e-02, 4.293e-02 m
# Rotations: 0.000000 0.000000 0.000000 rad
# 
# == Fit2d calibration ==
# Distance Sample-beamCenter: 2266.000 mm
# Center: x=249.594, y=329.012 pix
# Tilt: 0.000 deg  TiltPlanRot: 0.000 deg
# 
# Detector Pilatus 300k	 PixelSize= 1.720e-04, 1.720e-04 m
#    Detector has a mask: True 
#    Detector has a dark current: False 
#    detector has a flat field: False 
# 
# Wavelength: 1.27818e-10 m
# Mask applied: user provided
# Dark current applied: False
# Flat field applied: False
# Polarization factor: None
# Normalization factor: 930888.6000000001
# --> F127_83.140_hexanes_3.615_EtOH_37.542_NaCl_100.588mgml_1_r1d.csv
#        q_A^-1             I 
  4.457554e-03    2.726063e-03
  4.756484e-03    2.156805e-03
  5.055415e-03    1.552147e-03
  5.354345e-03    1.109808e-03
  5.653276e-03    8.675081e-04
  5.952206e-03    1.281538e-03
  6.251136e-03    1.171700e-03
  6.550067e-03    1.023188e-03
  6.848997e-03    8.804457e-04
  7.147927e-03    7.528186e-04
  7.446858e-03    6.481277e-04
  7.745788e-03    5.566680e-04
  8.044719e-03    4.796285e-04
  8.343649e-03    4.207780e-04
  8.642579e-03    3.713690e-04
  8.941510e-03    3.281232e-04
  9.240440e-03    2.905165e-04
  9.539371e-03    2.582050e-04
  9.838301e-03    2.301629e-04
  1.013723e-02    2.075224e-04
  1.043616e-02    1.861888e-04
  1.073509e-02    1.658054e-04
  1.103402e-02    1.508571e-04
  1.133295e-02    1.374074e-04
  1.163188e-02    1.247557e-04
  1.193081e-02    1.135871e-04
  1.222974e-02    1.035975e-04
  1.252867e-02    9.374024e-05
  1.282760e-02    8.653212e-05
  1.312654e-02    8.063443e-05
  1.342547e-02    7.323667e-05
  1.372440e-02    6.724639e-05
  1.402333e-02    6.296282e-05
  1.432226e-02    5.775148e-05
  1.462119e-02    5.385232e-05
  1.492012e-02    5.016463e-05
  1.521905e-02    4.684977e-05
  1.551798e-02    4.387984e-05
  1.581691e-02    4.055384e-05
  1.611584e-02    3.808738e-05
  1.641477e-02    3.586916e-05
  1.671370e-02    3.377383e-05
  1.701263e-02    3.204880e-05
  1.731156e-02    2.993668e-05
  1.761049e-02    2.818122e-05
  1.790942e-02    2.738772e-05
  1.820835e-02    2.569872e-05
  1.850728e-02    2.439281e-05
  1.880621e-02    2.297279e-05
  1.910514e-02    2.190231e-05
  1.940407e-02    2.085486e-05
  1.970300e-02    1.985587e-05
  2.000193e-02    1.870587e-05
  2.030086e-02    1.805670e-05
  2.059979e-02    1.774391e-05
  2.089873e-02    1.722127e-05
  2.119766e-02    1.663061e-05
  2.149659e-02    1.591151e-05
  2.179552e-02    1.524952e-05
  2.209445e-02    1.485547e-05
  2.239338e-02    1.439219e-05
  2.269231e-02    1.387542e-05
  2.299124e-02    1.347300e-05
  2.329017e-02    1.324063e-05
  2.358910e-02    1.281084e-05
  2.388803e-02    1.234205e-05
  2.418696e-02    1.208466e-05
  2.448589e-02    1.198961e-05
  2.478482e-02    1.165916e-05
  2.508375e-02    1.149417e-05
  2.538268e-02    1.128482e-05
  2.568161e-02    1.094291e-05
  2.598054e-02    1.052772e-05
  2.627947e-02    1.029523e-05
  2.657840e-02    1.020331e-05
  2.687733e-02    1.009924e-05
  2.717626e-02    1.006188e-05
  2.747519e-02    9.821995e-06
  2.777412e-02    9.642934e-06
  2.807305e-02    9.485887e-06
  2.837198e-02    9.428602e-06
  2.867092e-02    9.423343e-06
  2.896985e-02    9.572693e-06
  2.926878e-02    9.171932e-06
  2.956771e-02    8.922997e-06
  2.986664e-02    8.820653e-06
  3.016557e-02    8.673206e-06
  3.046450e-02    8.533118e-06
  3.076343e-02    8.491250e-06
  3.106236e-02    8.492226e-06
  3.136129e-02    8.430204e-06
  3.166022e-02    8.324735e-06
  3.195915e-02    8.173507e-06
  3.225808e-02    8.088907e-06
  3.255701e-02    8.079111e-06
  3.285594e-02    7.969402e-06
  3.315487e-02    7.783608e-06
  3.345380e-02    7.584673e-06
  3.375273e-02    7.665974e-06
  3.405166e-02    7.694122e-06
  3.435059e-02    7.505035e-06
  3.464952e-02    7.453486e-06
  3.494845e-02    7.397321e-06
  3.524738e-02    7.318063e-06
  3.554631e-02    7.285685e-06
  3.584524e-02    7.009382e-06
  3.614417e-02    6.897162e-06
  3.644310e-02    6.837910e-06
  3.674204e-02    6.787315e-06
  3.704097e-02    6.801481e-06
  3.733990e-02    6.819668e-06
  3.763883e-02    6.691981e-06
  3.793776e-02    6.562741e-06
  3.823669e-02    6.477086e-06
  3.853562e-02    6.428887e-06
  3.883455e-02    6.375237e-06
  3.913348e-02    6.346667e-06
  3.943241e-02    6.233812e-06
  3.973134e-02    6.189431e-06
  4.003027e-02    6.120400e-06
  4.032920e-02    6.052644e-06
  4.062813e-02    6.089856e-06
  4.092706e-02    6.014485e-06
  4.122599e-02    5.988938e-06
  4.152492e-02    5.985686e-06
  4.182385e-02    6.015129e-06
  4.212278e-02    5.937205e-06
  4.242171e-02    5.665523e-06
  4.272064e-02    5.714547e-06
  4.301957e-02    5.838916e-06
  4.331850e-02    5.811548e-06
  4.361743e-02    5.712586e-06
  4.391636e-02    5.763510e-06
  4.421529e-02    5.812628e-06
  4.451423e-02    5.770243e-06
  4.481316e-02    5.636382e-06
  4.511209e-02    5.626298e-06
  4.541102e-02    5.692897e-06
  4.570995e-02    5.699245e-06
  4.600888e-02    5.635978e-06
  4.630781e-02    5.653366e-06
  4.660674e-02    5.664947e-06
  4.690567e-02    5.635044e-06
  4.720460e-02    5.595749e-06
  4.750353e-02    5.549042e-06
  4.780246e-02    5.550856e-06
  4.810139e-02    5.471871e-06
  4.840032e-02    5.466291e-06
  4.869925e-02    5.421725e-06
  4.899818e-02    5.399656e-06
  4.929711e-02    5.561400e-06
  4.959604e-02    5.601612e-06
  4.989497e-02    5.627225e-06
  5.019390e-02    5.551446e-06
  5.049283e-02    5.512858e-06
  5.079176e-02    5.571483e-06
  5.109069e-02    5.580778e-06
  5.138962e-02    5.664763e-06
  5.168855e-02    5.775787e-06
  5.198748e-02    5.937403e-06
  5.228642e-02    5.869186e-06
  5.258535e-02    5.566895e-06
  5.288428e-02    5.421914e-06
  5.318321e-02    5.440136e-06
  5.348214e-02    5.336091e-06
  5.378107e-02    5.416327e-06
  5.408000e-02    5.468578e-06
  5.437893e-02    5.475838e-06
  5.467786e-02    5.440331e-06
  5.497679e-02    5.446479e-06
  5.527572e-02    5.353524e-06
  5.557465e-02    5.375221e-06
  5.587358e-02    5.355471e-06
  5.617251e-02    5.369214e-06
  5.647144e-02    5.321019e-06
  5.677037e-02    5.246156e-06
  5.706930e-02    5.186418e-06
  5.736823e-02    5.268781e-06
  5.766716e-02    5.372876e-06
  5.796609e-02    5.240139e-06
  5.826502e-02    5.189822e-06
  5.856395e-02    5.336586e-06
  5.886288e-02    5.371831e-06
  5.916181e-02    5.297745e-06
  5.946074e-02    5.277599e-06
  5.975967e-02    5.185056e-06
  6.005861e-02    5.281529e-06
  6.035754e-02    5.364918e-06
  6.065647e-02    5.429589e-06
  6.095540e-02    5.475606e-06
  6.125433e-02    5.558231e-06
  6.155326e-02    5.560455e-06
  6.185219e-02    5.417461e-06
  6.215112e-02    5.289941e-06
  6.245005e-02    5.315004e-06
  6.274898e-02    5.332894e-06
  6.304791e-02    5.216994e-06
  6.334684e-02    5.248914e-06
  6.364577e-02    5.360282e-06
  6.394470e-02    5.376616e-06
  6.424363e-02    5.430018e-06
  6.454256e-02    5.370008e-06
  6.484149e-02    5.336601e-06
  6.514042e-02    5.365804e-06
  6.543935e-02    5.354135e-06
  6.573828e-02    5.422376e-06
  6.603721e-02    5.418497e-06
  6.633614e-02    5.402637e-06
  6.663507e-02    5.485525e-06
  6.693400e-02    5.367602e-06
  6.723293e-02    5.446283e-06
  6.753186e-02    5.538463e-06
  6.783080e-02    5.554629e-06
  6.812973e-02    5.544234e-06
  6.842866e-02    5.545732e-06
  6.872759e-02    5.566003e-06
  6.902652e-02    5.482075e-06
  6.932545e-02    5.540076e-06
  6.962438e-02    5.454115e-06
  6.992331e-02    5.402334e-06
  7.022224e-02    5.563889e-06
  7.052117e-02    5.540115e-06
  7.082010e-02    5.510007e-06
  7.111903e-02    5.513534e-06
  7.141796e-02    5.445341e-06
  7.171689e-02    5.381418e-06
  7.201582e-02    5.390813e-06
  7.231475e-02    5.467018e-06
  7.261368e-02    5.590605e-06
  7.291261e-02    5.580197e-06
  7.321154e-02    5.553038e-06
  7.351047e-02    5.583467e-06
  7.380940e-02    5.507379e-06
  7.410833e-02    5.523726e-06
  7.440726e-02    5.545303e-06
  7.470619e-02    5.472188e-06
  7.500512e-02    5.455578e-06
  7.530405e-02    5.554787e-06
  7.560299e-02    5.532420e-06
  7.590192e-02    5.448828e-06
  7.620085e-02    5.461788e-06
  7.649978e-02    5.484153e-06
  7.679871e-02    5.470796e-06
  7.709764e-02    5.483367e-06
  7.739657e-02    5.536109e-06
  7.769550e-02    5.436113e-06
  7.799443e-02    5.444654e-06
  7.829336e-02    5.451325e-06
  7.859229e-02    5.435658e-06
  7.889122e-02    5.402080e-06
  7.919015e-02    5.375727e-06
  7.948908e-02    5.422372e-06
  7.978801e-02    5.359356e-06
  8.008694e-02    5.418957e-06
  8.038587e-02    5.502822e-06
  8.068480e-02    5.571300e-06
  8.098373e-02    5.443584e-06
  8.128266e-02    5.370546e-06
  8.158159e-02    5.464036e-06
  8.188052e-02    5.345373e-06
  8.217945e-02    5.331357e-06
  8.247838e-02    5.404432e-06
  8.277731e-02    5.438356e-06
  8.307624e-02    5.409120e-06
  8.337518e-02    5.320923e-06
  8.367411e-02    5.241031e-06
  8.397304e-02    5.271948e-06
  8.427197e-02    5.366684e-06
  8.457090e-02    5.361358e-06
  8.486983e-02    5.305342e-06
  8.516876e-02    5.320095e-06
  8.546769e-02    5.338985e-06
  8.576662e-02    5.296938e-06
  8.606555e-02    5.280468e-06
  8.636448e-02    5.304104e-06
  8.666341e-02    5.298180e-06
  8.696234e-02    5.347033e-06
  8.726127e-02    5.290265e-06
  8.756020e-02    5.182694e-06
  8.785913e-02    5.165219e-06
  8.815806e-02    5.149579e-06
  8.845699e-02    5.148209e-06
  8.875592e-02    5.096645e-06
  8.905485e-02    5.082140e-06
  8.935378e-02    5.106749e-06
  8.965271e-02    5.182935e-06
  8.995164e-02    5.166411e-06
  9.025057e-02    5.109581e-06
  9.054950e-02    5.101070e-06
  9.084843e-02    5.133783e-06
  9.114737e-02    5.082263e-06
  9.144630e-02    5.127415e-06
  9.174523e-02    5.044998e-06
  9.204416e-02    4.935998e-06
  9.234309e-02    5.043518e-06
  9.264202e-02    5.082442e-06
  9.294095e-02    5.000487e-06
  9.323988e-02    5.022893e-06
  9.353881e-02    5.016684e-06
  9.383774e-02    4.949037e-06
  9.413667e-02    4.917565e-06
  9.443560e-02    4.899186e-06
  9.473453e-02    4.890851e-06
  9.503346e-02    4.917899e-06
  9.533239e-02    4.978938e-06
  9.563132e-02    5.010073e-06
  9.593025e-02    5.057063e-06
  9.622918e-02    5.015114e-06
  9.652811e-02    4.929397e-06
  9.682704e-02    4.983802e-06
  9.712597e-02    4.994704e-06
  9.742490e-02    4.944805e-06
  9.772383e-02    4.805782e-06
  9.802276e-02    4.817465e-06
  9.832169e-02    4.886947e-06
  9.862062e-02    4.830494e-06
  9.891956e-02    4.806520e-06
  9.921849e-02    4.855372e-06
  9.951742e-02    4.779690e-06
  9.981635e-02    4.740229e-06
  1.001153e-01    4.752432e-06
  1.004142e-01    4.730693e-06
  1.007131e-01    4.672246e-06
  1.010121e-01    4.713426e-06
  1.013110e-01    4.734327e-06
  1.016099e-01    4.697825e-06
  1.019089e-01    4.685043e-06
  1.022078e-01    4.627449e-06
  1.025067e-01    4.618791e-06
  1.028057e-01    4.646874e-06
  1.031046e-01    4.694324e-06
  1.034035e-01    4.636538e-06
  1.037024e-01    4.652835e-06
  1.040014e-01    4.652659e-06
  1.043003e-01    4.561749e-06
  1.045992e-01    4.682970e-06
  1.048982e-01    4.677734e-06
  1.051971e-01    4.684979e-06
  1.054960e-01    4.601668e-06
  1.057950e-01    4.685913e-06
  1.060939e-01    4.692432e-06
  1.063928e-01    4.685477e-06
  1.066917e-01    4.650015e-06
  1.069907e-01    4.573207e-06
  1.072896e-01    4.503564e-06
  1.075885e-01    4.416175e-06
  1.078875e-01    4.453839e-06
  1.081864e-01    4.537713e-06
  1.084853e-01    4.501729e-06
  1.087843e-01    4.456204e-06
  1.090832e-01    4.567280e-06
  1.093821e-01    4.494508e-06
  1.096810e-01    4.502701e-06
  1.099800e-01    4.573587e-06
  1.102789e-01    4.512839e-06
  1.105778e-01    4.434966e-06
  1.108768e-01    4.450957e-06
  1.111757e-01    4.435344e-06
  1.114746e-01    4.376131e-06
  1.117736e-01    4.470944e-06
  1.120725e-01    4.493013e-06
  1.123714e-01    4.434382e-06
  1.126704e-01    4.382714e-06
  1.129693e-01    4.381422e-06
  1.132682e-01    4.283724e-06
  1.135671e-01    4.225638e-06
  1.138661e-01    4.372590e-06
  1.141650e-01    4.383506e-06
  1.144639e-01    4.347340e-06
  1.147629e-01    4.239263e-06
  1.150618e-01    4.196620e-06
  1.153607e-01    4.188464e-06
  1.156597e-01    4.219157e-06
  1.159586e-01    4.262235e-06
  1.162575e-01    4.305452e-06
  1.165564e-01    4.172996e-06
  1.168554e-01    4.059839e-06
  1.171543e-01    4.363070e-06
  1.174532e-01    4.275629e-06
  1.177522e-01    4.066925e-06
  1.180511e-01    4.130213e-06
  1.183500e-01    4.195188e-06
  1.186490e-01    4.266024e-06
  1.189479e-01    4.237457e-06
  1.192468e-01    4.302279e-06
  1.195458e-01    4.412218e-06
  1.198447e-01    4.145041e-06
  1.201436e-01    4.005383e-06
  1.204425e-01    4.407262e-06
  1.207415e-01    4.492694e-06
  1.210404e-01    5.376077e-06
  1.213393e-01    0.000000e+00
  1.216383e-01    0.000000e+00
  1.219372e-01    0.000000e+00
  1.222361e-01    0.000000e+00
  1.225351e-01    0.000000e+00
  1.228340e-01    0.000000e+00
  1.231329e-01    0.000000e+00
  1.234318e-01    0.000000e+00
  1.237308e-01    0.000000e+00
  1.240297e-01    0.000000e+00
  1.243286e-01    0.000000e+00
  1.246276e-01    0.000000e+00
  1.249265e-01    0.000000e+00
  1.252254e-01    0.000000e+00
  1.255244e-01    0.000000e+00
  1.258233e-01    0.000000e+00
  1.261222e-01    0.000000e+00
  1.264212e-01    0.000000e+00
  1.267201e-01    0.000000e+00
  1.270190e-01    0.000000e+00
  1.273179e-01    0.000000e+00
  1.276169e-01    0.000000e+00
  1.279158e-01    0.000000e+00
  1.282147e-01    0.000000e+00
  1.285137e-01    0.000000e+00
  1.288126e-01    0.000000e+00
  1.291115e-01    0.000000e+00
  1.294105e-01    0.000000e+00
  1.297094e-01    0.000000e+00
  1.300083e-01    0.000000e+00
  1.303072e-01    0.000000e+00
  1.306062e-01    0.000000e+00
  1.309051e-01    0.000000e+00
  1.312040e-01    0.000000e+00
  1.315030e-01    0.000000e+00
  1.318019e-01    0.000000e+00
  1.321008e-01    0.000000e+00
  1.323998e-01    0.000000e+00
  1.326987e-01    0.000000e+00
  1.329976e-01    0.000000e+00
  1.332965e-01    0.000000e+00
  1.335955e-01    0.000000e+00
  1.338944e-01    0.000000e+00
  1.341933e-01    0.000000e+00
  1.344923e-01    0.000000e+00
  1.347912e-01    0.000000e+00
  1.350901e-01    0.000000e+00
  1.353891e-01    0.000000e+00
  1.356880e-01    0.000000e+00
  1.359869e-01    0.000000e+00
  1.362859e-01    0.000000e+00
  1.365848e-01    0.000000e+00
  1.368837e-01    0.000000e+00
  1.371826e-01    0.000000e+00
  1.374816e-01    0.000000e+00
  1.377805e-01    0.000000e+00
  1.380794e-01    0.000000e+00
  1.383784e-01    0.000000e+00
  1.386773e-01    0.000000e+00
  1.389762e-01    0.000000e+00
  1.392752e-01    0.000000e+00
  1.395741e-01    0.000000e+00
  1.398730e-01    0.000000e+00
  1.401719e-01    0.000000e+00
  1.404709e-01    0.000000e+00
  1.407698e-01    0.000000e+00
  1.410687e-01    0.000000e+00
  1.413677e-01    0.000000e+00
  1.416666e-01    0.000000e+00
  1.419655e-01    0.000000e+00
  1.422645e-01    0.000000e+00
  1.425634e-01    0.000000e+00
  1.428623e-01    0.000000e+00
  1.431613e-01    0.000000e+00
  1.434602e-01    0.000000e+00
  1.437591e-01    0.000000e+00
  1.440580e-01    0.000000e+00
  1.443570e-01    0.000000e+00
  1.446559e-01    0.000000e+00
  1.449548e-01    0.000000e+00
  1.452538e-01    0.000000e+00
  1.455527e-01    0.000000e+00
  1.458516e-01    0.000000e+00
  1.461506e-01    0.000000e+00
  1.464495e-01    0.000000e+00
  1.467484e-01    0.000000e+00
  1.470473e-01    0.000000e+00
  1.473463e-01    0.000000e+00
  1.476452e-01    0.000000e+00
  1.479441e-01    0.000000e+00
  1.482431e-01    0.000000e+00
  1.485420e-01    0.000000e+00
  1.488409e-01    0.000000e+00
  1.491399e-01    0.000000e+00
  1.494388e-01    0.000000e+00
  1.497377e-01    0.000000e+00
  1.500367e-01    0.000000e+00
  1.503356e-01    0.000000e+00
  1.506345e-01    0.000000e+00
  1.509334e-01    0.000000e+00
  1.512324e-01    0.000000e+00
  1.515313e-01    0.000000e+00
  1.518302e-01    0.000000e+00
  1.521292e-01    0.000000e+00
  1.524281e-01    0.000000e+00
  1.527270e-01    0.000000e+00
  1.530260e-01    0.000000e+00
  1.533249e-01    0.000000e+00
  1.536238e-01    0.000000e+00
