# == pyFAI calibration ==
# Distance Sample to Detector: 2.266 m
# PONI: 5.659e-02, 4.293e-02 m
# Rotations: 0.000000 0.000000 0.000000 rad
# 
# == Fit2d calibration ==
# Distance Sample-beamCenter: 2266.000 mm
# Center: x=249.594, y=329.012 pix
# Tilt: 0.000 deg  TiltPlanRot: 0.000 deg
# 
# Detector Pilatus 300k	 PixelSize= 1.720e-04, 1.720e-04 m
#    Detector has a mask: True 
#    Detector has a dark current: False 
#    detector has a flat field: False 
# 
# Wavelength: 1.27818e-10 m
# Mask applied: user provided
# Dark current applied: False
# Flat field applied: False
# Polarization factor: None
# Normalization factor: 384761.60000000003
# --> F127_22.049_NaCl_0.000_limonene_0.000mgml_1_r1d.csv
#        q_A^-1             I 
  4.457554e-03    2.753064e-03
  4.756484e-03    2.059960e-03
  5.055415e-03    1.425994e-03
  5.354345e-03    1.017154e-03
  5.653276e-03    7.935326e-04
  5.952206e-03    1.106478e-03
  6.251136e-03    1.017663e-03
  6.550067e-03    8.915899e-04
  6.848997e-03    7.596904e-04
  7.147927e-03    6.493219e-04
  7.446858e-03    5.640798e-04
  7.745788e-03    4.898192e-04
  8.044719e-03    4.292333e-04
  8.343649e-03    3.739510e-04
  8.642579e-03    3.292161e-04
  8.941510e-03    2.901203e-04
  9.240440e-03    2.570887e-04
  9.539371e-03    2.324297e-04
  9.838301e-03    2.075168e-04
  1.013723e-02    1.878617e-04
  1.043616e-02    1.682273e-04
  1.073509e-02    1.508937e-04
  1.103402e-02    1.390842e-04
  1.133295e-02    1.273920e-04
  1.163188e-02    1.157440e-04
  1.193081e-02    1.057494e-04
  1.222974e-02    9.747765e-05
  1.252867e-02    8.929316e-05
  1.282760e-02    8.219402e-05
  1.312654e-02    7.649799e-05
  1.342547e-02    6.978255e-05
  1.372440e-02    6.357668e-05
  1.402333e-02    6.068439e-05
  1.432226e-02    5.630906e-05
  1.462119e-02    5.303267e-05
  1.492012e-02    4.964901e-05
  1.521905e-02    4.609193e-05
  1.551798e-02    4.321447e-05
  1.581691e-02    4.092413e-05
  1.611584e-02    3.914947e-05
  1.641477e-02    3.693820e-05
  1.671370e-02    3.460666e-05
  1.701263e-02    3.199653e-05
  1.731156e-02    3.058617e-05
  1.761049e-02    2.948342e-05
  1.790942e-02    2.836516e-05
  1.820835e-02    2.706028e-05
  1.850728e-02    2.593727e-05
  1.880621e-02    2.494033e-05
  1.910514e-02    2.421184e-05
  1.940407e-02    2.339006e-05
  1.970300e-02    2.251646e-05
  2.000193e-02    2.131039e-05
  2.030086e-02    2.099617e-05
  2.059979e-02    2.011618e-05
  2.089873e-02    1.952337e-05
  2.119766e-02    1.855915e-05
  2.149659e-02    1.800578e-05
  2.179552e-02    1.788496e-05
  2.209445e-02    1.766204e-05
  2.239338e-02    1.689671e-05
  2.269231e-02    1.677677e-05
  2.299124e-02    1.625297e-05
  2.329017e-02    1.578954e-05
  2.358910e-02    1.546675e-05
  2.388803e-02    1.517448e-05
  2.418696e-02    1.468367e-05
  2.448589e-02    1.418647e-05
  2.478482e-02    1.413925e-05
  2.508375e-02    1.375551e-05
  2.538268e-02    1.354867e-05
  2.568161e-02    1.331330e-05
  2.598054e-02    1.308494e-05
  2.627947e-02    1.290488e-05
  2.657840e-02    1.274302e-05
  2.687733e-02    1.228569e-05
  2.717626e-02    1.248218e-05
  2.747519e-02    1.263244e-05
  2.777412e-02    1.261958e-05
  2.807305e-02    1.191597e-05
  2.837198e-02    1.168426e-05
  2.867092e-02    1.151877e-05
  2.896985e-02    1.143013e-05
  2.926878e-02    1.133252e-05
  2.956771e-02    1.087018e-05
  2.986664e-02    1.075764e-05
  3.016557e-02    1.081022e-05
  3.046450e-02    1.065518e-05
  3.076343e-02    1.082988e-05
  3.106236e-02    1.085087e-05
  3.136129e-02    1.045416e-05
  3.166022e-02    9.886478e-06
  3.195915e-02    1.029428e-05
  3.225808e-02    1.001687e-05
  3.255701e-02    9.930131e-06
  3.285594e-02    1.002379e-05
  3.315487e-02    9.955865e-06
  3.345380e-02    9.671103e-06
  3.375273e-02    9.629417e-06
  3.405166e-02    9.218670e-06
  3.435059e-02    9.090957e-06
  3.464952e-02    8.917978e-06
  3.494845e-02    8.828399e-06
  3.524738e-02    8.788328e-06
  3.554631e-02    8.838946e-06
  3.584524e-02    8.688273e-06
  3.614417e-02    8.458114e-06
  3.644310e-02    8.238511e-06
  3.674204e-02    8.489852e-06
  3.704097e-02    8.580478e-06
  3.733990e-02    8.416046e-06
  3.763883e-02    8.310719e-06
  3.793776e-02    8.063314e-06
  3.823669e-02    7.820909e-06
  3.853562e-02    7.822770e-06
  3.883455e-02    7.896077e-06
  3.913348e-02    8.052913e-06
  3.943241e-02    8.034405e-06
  3.973134e-02    7.805773e-06
  4.003027e-02    7.938232e-06
  4.032920e-02    7.791778e-06
  4.062813e-02    7.724495e-06
  4.092706e-02    7.497405e-06
  4.122599e-02    7.338029e-06
  4.152492e-02    7.621581e-06
  4.182385e-02    7.763353e-06
  4.212278e-02    7.402026e-06
  4.242171e-02    7.286299e-06
  4.272064e-02    7.340037e-06
  4.301957e-02    7.513752e-06
  4.331850e-02    7.296992e-06
  4.361743e-02    7.278013e-06
  4.391636e-02    7.303746e-06
  4.421529e-02    7.297766e-06
  4.451423e-02    7.317967e-06
  4.481316e-02    7.365084e-06
  4.511209e-02    6.900374e-06
  4.541102e-02    6.964684e-06
  4.570995e-02    7.025380e-06
  4.600888e-02    6.865490e-06
  4.630781e-02    7.083979e-06
  4.660674e-02    7.160665e-06
  4.690567e-02    7.029867e-06
  4.720460e-02    7.056712e-06
  4.750353e-02    6.993988e-06
  4.780246e-02    6.855324e-06
  4.810139e-02    6.721625e-06
  4.840032e-02    6.916522e-06
  4.869925e-02    6.799094e-06
  4.899818e-02    6.821088e-06
  4.929711e-02    6.880491e-06
  4.959604e-02    7.084662e-06
  4.989497e-02    6.987317e-06
  5.019390e-02    6.960230e-06
  5.049283e-02    6.901727e-06
  5.079176e-02    6.986533e-06
  5.109069e-02    6.805722e-06
  5.138962e-02    6.850972e-06
  5.168855e-02    7.132606e-06
  5.198748e-02    7.195083e-06
  5.228642e-02    7.089748e-06
  5.258535e-02    6.849540e-06
  5.288428e-02    6.838376e-06
  5.318321e-02    6.922125e-06
  5.348214e-02    6.555822e-06
  5.378107e-02    6.463577e-06
  5.408000e-02    6.831478e-06
  5.437893e-02    6.827476e-06
  5.467786e-02    6.532499e-06
  5.497679e-02    6.419410e-06
  5.527572e-02    6.468492e-06
  5.557465e-02    6.465281e-06
  5.587358e-02    6.443964e-06
  5.617251e-02    6.510713e-06
  5.647144e-02    6.551685e-06
  5.677037e-02    6.557188e-06
  5.706930e-02    6.649188e-06
  5.736823e-02    6.587089e-06
  5.766716e-02    6.478638e-06
  5.796609e-02    6.313192e-06
  5.826502e-02    6.455204e-06
  5.856395e-02    6.563055e-06
  5.886288e-02    6.623355e-06
  5.916181e-02    6.447104e-06
  5.946074e-02    6.416135e-06
  5.975967e-02    6.505918e-06
  6.005861e-02    6.478931e-06
  6.035754e-02    6.457420e-06
  6.065647e-02    6.627481e-06
  6.095540e-02    6.800174e-06
  6.125433e-02    6.755291e-06
  6.155326e-02    6.563731e-06
  6.185219e-02    6.549773e-06
  6.215112e-02    6.322463e-06
  6.245005e-02    6.298885e-06
  6.274898e-02    6.342642e-06
  6.304791e-02    6.302607e-06
  6.334684e-02    6.382352e-06
  6.364577e-02    6.396049e-06
  6.394470e-02    6.379584e-06
  6.424363e-02    6.416001e-06
  6.454256e-02    6.507411e-06
  6.484149e-02    6.402701e-06
  6.514042e-02    6.411708e-06
  6.543935e-02    6.435403e-06
  6.573828e-02    6.440826e-06
  6.603721e-02    6.295523e-06
  6.633614e-02    6.407429e-06
  6.663507e-02    6.417127e-06
  6.693400e-02    6.571978e-06
  6.723293e-02    6.576923e-06
  6.753186e-02    6.397066e-06
  6.783080e-02    6.415011e-06
  6.812973e-02    6.625603e-06
  6.842866e-02    6.616095e-06
  6.872759e-02    6.532336e-06
  6.902652e-02    6.371379e-06
  6.932545e-02    6.315172e-06
  6.962438e-02    6.587880e-06
  6.992331e-02    6.776340e-06
  7.022224e-02    6.580179e-06
  7.052117e-02    6.553227e-06
  7.082010e-02    6.537191e-06
  7.111903e-02    6.546420e-06
  7.141796e-02    6.451062e-06
  7.171689e-02    6.412896e-06
  7.201582e-02    6.326284e-06
  7.231475e-02    6.493498e-06
  7.261368e-02    6.571457e-06
  7.291261e-02    6.518324e-06
  7.321154e-02    6.465683e-06
  7.351047e-02    6.404628e-06
  7.380940e-02    6.584494e-06
  7.410833e-02    6.531882e-06
  7.440726e-02    6.471048e-06
  7.470619e-02    6.444125e-06
  7.500512e-02    6.552293e-06
  7.530405e-02    6.637817e-06
  7.560299e-02    6.530041e-06
  7.590192e-02    6.496549e-06
  7.620085e-02    6.513886e-06
  7.649978e-02    6.540991e-06
  7.679871e-02    6.622951e-06
  7.709764e-02    6.447831e-06
  7.739657e-02    6.518554e-06
  7.769550e-02    6.505003e-06
  7.799443e-02    6.607172e-06
  7.829336e-02    6.568903e-06
  7.859229e-02    6.397911e-06
  7.889122e-02    6.560917e-06
  7.919015e-02    6.457029e-06
  7.948908e-02    6.381496e-06
  7.978801e-02    6.400614e-06
  8.008694e-02    6.404842e-06
  8.038587e-02    6.263838e-06
  8.068480e-02    6.390679e-06
  8.098373e-02    6.517540e-06
  8.128266e-02    6.430954e-06
  8.158159e-02    6.343694e-06
  8.188052e-02    6.294265e-06
  8.217945e-02    6.318759e-06
  8.247838e-02    6.287659e-06
  8.277731e-02    6.307704e-06
  8.307624e-02    6.291621e-06
  8.337518e-02    6.284567e-06
  8.367411e-02    6.145960e-06
  8.397304e-02    6.074370e-06
  8.427197e-02    6.362715e-06
  8.457090e-02    6.441176e-06
  8.486983e-02    6.243280e-06
  8.516876e-02    6.192134e-06
  8.546769e-02    6.292412e-06
  8.576662e-02    6.118873e-06
  8.606555e-02    5.913737e-06
  8.636448e-02    5.946467e-06
  8.666341e-02    6.165968e-06
  8.696234e-02    6.349444e-06
  8.726127e-02    6.416571e-06
  8.756020e-02    6.250969e-06
  8.785913e-02    6.083730e-06
  8.815806e-02    5.971831e-06
  8.845699e-02    5.952095e-06
  8.875592e-02    5.944025e-06
  8.905485e-02    6.019170e-06
  8.935378e-02    6.084401e-06
  8.965271e-02    6.104330e-06
  8.995164e-02    6.101827e-06
  9.025057e-02    6.161328e-06
  9.054950e-02    6.242971e-06
  9.084843e-02    6.197477e-06
  9.114737e-02    6.032204e-06
  9.144630e-02    5.864965e-06
  9.174523e-02    5.931144e-06
  9.204416e-02    6.109885e-06
  9.234309e-02    5.975576e-06
  9.264202e-02    5.969458e-06
  9.294095e-02    5.974136e-06
  9.323988e-02    5.833389e-06
  9.353881e-02    5.876047e-06
  9.383774e-02    5.946822e-06
  9.413667e-02    5.917100e-06
  9.443560e-02    5.831839e-06
  9.473453e-02    5.882107e-06
  9.503346e-02    5.995674e-06
  9.533239e-02    5.859920e-06
  9.563132e-02    5.684597e-06
  9.593025e-02    5.749270e-06
  9.622918e-02    5.913088e-06
  9.652811e-02    5.982339e-06
  9.682704e-02    5.988993e-06
  9.712597e-02    5.929595e-06
  9.742490e-02    5.905442e-06
  9.772383e-02    5.924899e-06
  9.802276e-02    5.880112e-06
  9.832169e-02    5.749426e-06
  9.862062e-02    5.759887e-06
  9.891956e-02    5.866146e-06
  9.921849e-02    5.848103e-06
  9.951742e-02    5.925540e-06
  9.981635e-02    5.912786e-06
  1.001153e-01    5.776861e-06
  1.004142e-01    5.683629e-06
  1.007131e-01    5.530980e-06
  1.010121e-01    5.679809e-06
  1.013110e-01    5.724459e-06
  1.016099e-01    5.660023e-06
  1.019089e-01    5.661556e-06
  1.022078e-01    5.700624e-06
  1.025067e-01    5.626419e-06
  1.028057e-01    5.670410e-06
  1.031046e-01    5.640544e-06
  1.034035e-01    5.679178e-06
  1.037024e-01    5.732143e-06
  1.040014e-01    5.640052e-06
  1.043003e-01    5.631281e-06
  1.045992e-01    5.689750e-06
  1.048982e-01    5.764936e-06
  1.051971e-01    5.707773e-06
  1.054960e-01    5.480164e-06
  1.057950e-01    5.530657e-06
  1.060939e-01    5.437982e-06
  1.063928e-01    5.424756e-06
  1.066917e-01    5.539549e-06
  1.069907e-01    5.649092e-06
  1.072896e-01    5.745131e-06
  1.075885e-01    5.707765e-06
  1.078875e-01    5.621156e-06
  1.081864e-01    5.670547e-06
  1.084853e-01    5.644441e-06
  1.087843e-01    5.548739e-06
  1.090832e-01    5.496292e-06
  1.093821e-01    5.611052e-06
  1.096810e-01    5.572262e-06
  1.099800e-01    5.361695e-06
  1.102789e-01    5.546306e-06
  1.105778e-01    5.642513e-06
  1.108768e-01    5.699219e-06
  1.111757e-01    5.459287e-06
  1.114746e-01    5.342094e-06
  1.117736e-01    5.421135e-06
  1.120725e-01    5.536175e-06
  1.123714e-01    5.402726e-06
  1.126704e-01    5.192308e-06
  1.129693e-01    5.196258e-06
  1.132682e-01    5.360147e-06
  1.135671e-01    5.220070e-06
  1.138661e-01    5.100848e-06
  1.141650e-01    5.252272e-06
  1.144639e-01    5.014173e-06
  1.147629e-01    4.915226e-06
  1.150618e-01    5.461529e-06
  1.153607e-01    5.356015e-06
  1.156597e-01    5.250713e-06
  1.159586e-01    5.152820e-06
  1.162575e-01    4.984036e-06
  1.165564e-01    5.055562e-06
  1.168554e-01    5.155520e-06
  1.171543e-01    5.062827e-06
  1.174532e-01    5.128139e-06
  1.177522e-01    5.143632e-06
  1.180511e-01    5.116949e-06
  1.183500e-01    5.140470e-06
  1.186490e-01    5.258928e-06
  1.189479e-01    5.637007e-06
  1.192468e-01    5.590543e-06
  1.195458e-01    5.308802e-06
  1.198447e-01    5.144107e-06
  1.201436e-01    4.976684e-06
  1.204425e-01    5.275564e-06
  1.207415e-01    5.182705e-06
  1.210404e-01    5.202733e-06
  1.213393e-01    0.000000e+00
  1.216383e-01    0.000000e+00
  1.219372e-01    0.000000e+00
  1.222361e-01    0.000000e+00
  1.225351e-01    0.000000e+00
  1.228340e-01    0.000000e+00
  1.231329e-01    0.000000e+00
  1.234318e-01    0.000000e+00
  1.237308e-01    0.000000e+00
  1.240297e-01    0.000000e+00
  1.243286e-01    0.000000e+00
  1.246276e-01    0.000000e+00
  1.249265e-01    0.000000e+00
  1.252254e-01    0.000000e+00
  1.255244e-01    0.000000e+00
  1.258233e-01    0.000000e+00
  1.261222e-01    0.000000e+00
  1.264212e-01    0.000000e+00
  1.267201e-01    0.000000e+00
  1.270190e-01    0.000000e+00
  1.273179e-01    0.000000e+00
  1.276169e-01    0.000000e+00
  1.279158e-01    0.000000e+00
  1.282147e-01    0.000000e+00
  1.285137e-01    0.000000e+00
  1.288126e-01    0.000000e+00
  1.291115e-01    0.000000e+00
  1.294105e-01    0.000000e+00
  1.297094e-01    0.000000e+00
  1.300083e-01    0.000000e+00
  1.303072e-01    0.000000e+00
  1.306062e-01    0.000000e+00
  1.309051e-01    0.000000e+00
  1.312040e-01    0.000000e+00
  1.315030e-01    0.000000e+00
  1.318019e-01    0.000000e+00
  1.321008e-01    0.000000e+00
  1.323998e-01    0.000000e+00
  1.326987e-01    0.000000e+00
  1.329976e-01    0.000000e+00
  1.332965e-01    0.000000e+00
  1.335955e-01    0.000000e+00
  1.338944e-01    0.000000e+00
  1.341933e-01    0.000000e+00
  1.344923e-01    0.000000e+00
  1.347912e-01    0.000000e+00
  1.350901e-01    0.000000e+00
  1.353891e-01    0.000000e+00
  1.356880e-01    0.000000e+00
  1.359869e-01    0.000000e+00
  1.362859e-01    0.000000e+00
  1.365848e-01    0.000000e+00
  1.368837e-01    0.000000e+00
  1.371826e-01    0.000000e+00
  1.374816e-01    0.000000e+00
  1.377805e-01    0.000000e+00
  1.380794e-01    0.000000e+00
  1.383784e-01    0.000000e+00
  1.386773e-01    0.000000e+00
  1.389762e-01    0.000000e+00
  1.392752e-01    0.000000e+00
  1.395741e-01    0.000000e+00
  1.398730e-01    0.000000e+00
  1.401719e-01    0.000000e+00
  1.404709e-01    0.000000e+00
  1.407698e-01    0.000000e+00
  1.410687e-01    0.000000e+00
  1.413677e-01    0.000000e+00
  1.416666e-01    0.000000e+00
  1.419655e-01    0.000000e+00
  1.422645e-01    0.000000e+00
  1.425634e-01    0.000000e+00
  1.428623e-01    0.000000e+00
  1.431613e-01    0.000000e+00
  1.434602e-01    0.000000e+00
  1.437591e-01    0.000000e+00
  1.440580e-01    0.000000e+00
  1.443570e-01    0.000000e+00
  1.446559e-01    0.000000e+00
  1.449548e-01    0.000000e+00
  1.452538e-01    0.000000e+00
  1.455527e-01    0.000000e+00
  1.458516e-01    0.000000e+00
  1.461506e-01    0.000000e+00
  1.464495e-01    0.000000e+00
  1.467484e-01    0.000000e+00
  1.470473e-01    0.000000e+00
  1.473463e-01    0.000000e+00
  1.476452e-01    0.000000e+00
  1.479441e-01    0.000000e+00
  1.482431e-01    0.000000e+00
  1.485420e-01    0.000000e+00
  1.488409e-01    0.000000e+00
  1.491399e-01    0.000000e+00
  1.494388e-01    0.000000e+00
  1.497377e-01    0.000000e+00
  1.500367e-01    0.000000e+00
  1.503356e-01    0.000000e+00
  1.506345e-01    0.000000e+00
  1.509334e-01    0.000000e+00
  1.512324e-01    0.000000e+00
  1.515313e-01    0.000000e+00
  1.518302e-01    0.000000e+00
  1.521292e-01    0.000000e+00
  1.524281e-01    0.000000e+00
  1.527270e-01    0.000000e+00
  1.530260e-01    0.000000e+00
  1.533249e-01    0.000000e+00
  1.536238e-01    0.000000e+00
