# == pyFAI calibration ==
# Distance Sample to Detector: 2.266 m
# PONI: 5.659e-02, 4.293e-02 m
# Rotations: 0.000000 0.000000 0.000000 rad
# 
# == Fit2d calibration ==
# Distance Sample-beamCenter: 2266.000 mm
# Center: x=249.594, y=329.012 pix
# Tilt: 0.000 deg  TiltPlanRot: 0.000 deg
# 
# Detector Pilatus 300k	 PixelSize= 1.720e-04, 1.720e-04 m
#    Detector has a mask: True 
#    Detector has a dark current: False 
#    detector has a flat field: False 
# 
# Wavelength: 1.27818e-10 m
# Mask applied: user provided
# Dark current applied: False
# Flat field applied: False
# Polarization factor: None
# Normalization factor: 30014564.799999997
# --> F127_73.798_NaCl_34.216_limonene_67.760mgml_2_r1d.csv
#        q_A^-1             I 
  4.457554e-03    1.719403e-03
  4.756484e-03    1.364179e-03
  5.055415e-03    9.910171e-04
  5.354345e-03    7.190091e-04
  5.653276e-03    5.716952e-04
  5.952206e-03    9.414301e-04
  6.251136e-03    8.490162e-04
  6.550067e-03    7.263097e-04
  6.848997e-03    6.104314e-04
  7.147927e-03    5.138079e-04
  7.446858e-03    4.378220e-04
  7.745788e-03    3.754638e-04
  8.044719e-03    3.238388e-04
  8.343649e-03    2.828528e-04
  8.642579e-03    2.474627e-04
  8.941510e-03    2.178212e-04
  9.240440e-03    1.930391e-04
  9.539371e-03    1.714764e-04
  9.838301e-03    1.524942e-04
  1.013723e-02    1.368047e-04
  1.043616e-02    1.231266e-04
  1.073509e-02    1.107160e-04
  1.103402e-02    1.002768e-04
  1.133295e-02    9.091283e-05
  1.163188e-02    8.280325e-05
  1.193081e-02    7.573572e-05
  1.222974e-02    6.931895e-05
  1.252867e-02    6.354081e-05
  1.282760e-02    5.845603e-05
  1.312654e-02    5.407419e-05
  1.342547e-02    4.999183e-05
  1.372440e-02    4.633553e-05
  1.402333e-02    4.295068e-05
  1.432226e-02    3.988489e-05
  1.462119e-02    3.725271e-05
  1.492012e-02    3.487710e-05
  1.521905e-02    3.253445e-05
  1.551798e-02    3.053587e-05
  1.581691e-02    2.872533e-05
  1.611584e-02    2.703567e-05
  1.641477e-02    2.547876e-05
  1.671370e-02    2.413421e-05
  1.701263e-02    2.290742e-05
  1.731156e-02    2.169388e-05
  1.761049e-02    2.054307e-05
  1.790942e-02    1.954357e-05
  1.820835e-02    1.859296e-05
  1.850728e-02    1.772059e-05
  1.880621e-02    1.699707e-05
  1.910514e-02    1.625347e-05
  1.940407e-02    1.554402e-05
  1.970300e-02    1.494934e-05
  2.000193e-02    1.441416e-05
  2.030086e-02    1.384895e-05
  2.059979e-02    1.330446e-05
  2.089873e-02    1.286188e-05
  2.119766e-02    1.242451e-05
  2.149659e-02    1.198521e-05
  2.179552e-02    1.165502e-05
  2.209445e-02    1.132261e-05
  2.239338e-02    1.100039e-05
  2.269231e-02    1.063173e-05
  2.299124e-02    1.030663e-05
  2.329017e-02    1.005308e-05
  2.358910e-02    9.825330e-06
  2.388803e-02    9.576520e-06
  2.418696e-02    9.294403e-06
  2.448589e-02    9.126427e-06
  2.478482e-02    8.922862e-06
  2.508375e-02    8.739969e-06
  2.538268e-02    8.596345e-06
  2.568161e-02    8.417370e-06
  2.598054e-02    8.255117e-06
  2.627947e-02    8.102894e-06
  2.657840e-02    7.952516e-06
  2.687733e-02    7.809109e-06
  2.717626e-02    7.680432e-06
  2.747519e-02    7.574890e-06
  2.777412e-02    7.485209e-06
  2.807305e-02    7.377876e-06
  2.837198e-02    7.238401e-06
  2.867092e-02    7.135290e-06
  2.896985e-02    7.069943e-06
  2.926878e-02    6.964821e-06
  2.956771e-02    6.880111e-06
  2.986664e-02    6.800798e-06
  3.016557e-02    6.719105e-06
  3.046450e-02    6.655564e-06
  3.076343e-02    6.610578e-06
  3.106236e-02    6.545140e-06
  3.136129e-02    6.455460e-06
  3.166022e-02    6.396595e-06
  3.195915e-02    6.317081e-06
  3.225808e-02    6.258157e-06
  3.255701e-02    6.214229e-06
  3.285594e-02    6.152750e-06
  3.315487e-02    6.095740e-06
  3.345380e-02    6.056112e-06
  3.375273e-02    6.005828e-06
  3.405166e-02    5.961774e-06
  3.435059e-02    5.902516e-06
  3.464952e-02    5.838625e-06
  3.494845e-02    5.778049e-06
  3.524738e-02    5.739557e-06
  3.554631e-02    5.698229e-06
  3.584524e-02    5.658134e-06
  3.614417e-02    5.617136e-06
  3.644310e-02    5.584224e-06
  3.674204e-02    5.552097e-06
  3.704097e-02    5.489154e-06
  3.733990e-02    5.447612e-06
  3.763883e-02    5.425245e-06
  3.793776e-02    5.397066e-06
  3.823669e-02    5.351556e-06
  3.853562e-02    5.324679e-06
  3.883455e-02    5.329557e-06
  3.913348e-02    5.313073e-06
  3.943241e-02    5.257100e-06
  3.973134e-02    5.228176e-06
  4.003027e-02    5.179724e-06
  4.032920e-02    5.174335e-06
  4.062813e-02    5.171946e-06
  4.092706e-02    5.134130e-06
  4.122599e-02    5.119780e-06
  4.152492e-02    5.093211e-06
  4.182385e-02    5.071279e-06
  4.212278e-02    5.084318e-06
  4.242171e-02    5.076080e-06
  4.272064e-02    5.061058e-06
  4.301957e-02    5.052969e-06
  4.331850e-02    5.025205e-06
  4.361743e-02    5.022179e-06
  4.391636e-02    5.000906e-06
  4.421529e-02    4.986348e-06
  4.451423e-02    4.984103e-06
  4.481316e-02    4.967869e-06
  4.511209e-02    4.963625e-06
  4.541102e-02    4.958172e-06
  4.570995e-02    4.948347e-06
  4.600888e-02    4.941863e-06
  4.630781e-02    4.936674e-06
  4.660674e-02    4.920315e-06
  4.690567e-02    4.927613e-06
  4.720460e-02    4.942105e-06
  4.750353e-02    4.968071e-06
  4.780246e-02    4.953487e-06
  4.810139e-02    4.943602e-06
  4.840032e-02    4.924440e-06
  4.869925e-02    4.932996e-06
  4.899818e-02    4.922200e-06
  4.929711e-02    4.898058e-06
  4.959604e-02    4.898252e-06
  4.989497e-02    4.913060e-06
  5.019390e-02    4.921733e-06
  5.049283e-02    4.939755e-06
  5.079176e-02    4.951445e-06
  5.109069e-02    4.961294e-06
  5.138962e-02    4.974952e-06
  5.168855e-02    5.017315e-06
  5.198748e-02    5.066634e-06
  5.228642e-02    5.034589e-06
  5.258535e-02    4.964405e-06
  5.288428e-02    4.935978e-06
  5.318321e-02    4.931106e-06
  5.348214e-02    4.936789e-06
  5.378107e-02    4.935884e-06
  5.408000e-02    4.933440e-06
  5.437893e-02    4.944999e-06
  5.467786e-02    4.949293e-06
  5.497679e-02    4.943648e-06
  5.527572e-02    4.952668e-06
  5.557465e-02    4.968235e-06
  5.587358e-02    4.974994e-06
  5.617251e-02    4.973275e-06
  5.647144e-02    4.971639e-06
  5.677037e-02    4.968755e-06
  5.706930e-02    4.979194e-06
  5.736823e-02    4.992771e-06
  5.766716e-02    4.995658e-06
  5.796609e-02    5.015436e-06
  5.826502e-02    5.020090e-06
  5.856395e-02    5.020211e-06
  5.886288e-02    5.027624e-06
  5.916181e-02    5.025493e-06
  5.946074e-02    5.038745e-06
  5.975967e-02    5.058831e-06
  6.005861e-02    5.068709e-06
  6.035754e-02    5.078097e-06
  6.065647e-02    5.097722e-06
  6.095540e-02    5.116061e-06
  6.125433e-02    5.170321e-06
  6.155326e-02    5.188745e-06
  6.185219e-02    5.154513e-06
  6.215112e-02    5.135796e-06
  6.245005e-02    5.128847e-06
  6.274898e-02    5.138353e-06
  6.304791e-02    5.143739e-06
  6.334684e-02    5.144266e-06
  6.364577e-02    5.164225e-06
  6.394470e-02    5.175606e-06
  6.424363e-02    5.172560e-06
  6.454256e-02    5.181141e-06
  6.484149e-02    5.200541e-06
  6.514042e-02    5.206451e-06
  6.543935e-02    5.212961e-06
  6.573828e-02    5.221410e-06
  6.603721e-02    5.229169e-06
  6.633614e-02    5.243571e-06
  6.663507e-02    5.244227e-06
  6.693400e-02    5.244143e-06
  6.723293e-02    5.278966e-06
  6.753186e-02    5.281523e-06
  6.783080e-02    5.278583e-06
  6.812973e-02    5.302117e-06
  6.842866e-02    5.307548e-06
  6.872759e-02    5.301995e-06
  6.902652e-02    5.313312e-06
  6.932545e-02    5.308245e-06
  6.962438e-02    5.328410e-06
  6.992331e-02    5.349767e-06
  7.022224e-02    5.356519e-06
  7.052117e-02    5.357598e-06
  7.082010e-02    5.355473e-06
  7.111903e-02    5.363568e-06
  7.141796e-02    5.390550e-06
  7.171689e-02    5.394182e-06
  7.201582e-02    5.397935e-06
  7.231475e-02    5.382799e-06
  7.261368e-02    5.390036e-06
  7.291261e-02    5.413300e-06
  7.321154e-02    5.427102e-06
  7.351047e-02    5.434993e-06
  7.380940e-02    5.438920e-06
  7.410833e-02    5.435330e-06
  7.440726e-02    5.437797e-06
  7.470619e-02    5.435650e-06
  7.500512e-02    5.435720e-06
  7.530405e-02    5.443467e-06
  7.560299e-02    5.439880e-06
  7.590192e-02    5.429357e-06
  7.620085e-02    5.459739e-06
  7.649978e-02    5.457739e-06
  7.679871e-02    5.448526e-06
  7.709764e-02    5.442090e-06
  7.739657e-02    5.457606e-06
  7.769550e-02    5.461357e-06
  7.799443e-02    5.452096e-06
  7.829336e-02    5.442407e-06
  7.859229e-02    5.442871e-06
  7.889122e-02    5.439156e-06
  7.919015e-02    5.434439e-06
  7.948908e-02    5.451141e-06
  7.978801e-02    5.446210e-06
  8.008694e-02    5.431024e-06
  8.038587e-02    5.426262e-06
  8.068480e-02    5.434357e-06
  8.098373e-02    5.426929e-06
  8.128266e-02    5.424490e-06
  8.158159e-02    5.430883e-06
  8.188052e-02    5.434441e-06
  8.217945e-02    5.428717e-06
  8.247838e-02    5.411198e-06
  8.277731e-02    5.399840e-06
  8.307624e-02    5.393432e-06
  8.337518e-02    5.384275e-06
  8.367411e-02    5.406757e-06
  8.397304e-02    5.406097e-06
  8.427197e-02    5.373160e-06
  8.457090e-02    5.353364e-06
  8.486983e-02    5.369271e-06
  8.516876e-02    5.367961e-06
  8.546769e-02    5.346075e-06
  8.576662e-02    5.336436e-06
  8.606555e-02    5.348922e-06
  8.636448e-02    5.338017e-06
  8.666341e-02    5.323830e-06
  8.696234e-02    5.307986e-06
  8.726127e-02    5.300572e-06
  8.756020e-02    5.305885e-06
  8.785913e-02    5.291538e-06
  8.815806e-02    5.282217e-06
  8.845699e-02    5.276585e-06
  8.875592e-02    5.259800e-06
  8.905485e-02    5.260748e-06
  8.935378e-02    5.248975e-06
  8.965271e-02    5.241660e-06
  8.995164e-02    5.235589e-06
  9.025057e-02    5.236144e-06
  9.054950e-02    5.211956e-06
  9.084843e-02    5.180118e-06
  9.114737e-02    5.174707e-06
  9.144630e-02    5.173963e-06
  9.174523e-02    5.167155e-06
  9.204416e-02    5.168352e-06
  9.234309e-02    5.154480e-06
  9.264202e-02    5.147599e-06
  9.294095e-02    5.143059e-06
  9.323988e-02    5.130510e-06
  9.353881e-02    5.141502e-06
  9.383774e-02    5.110654e-06
  9.413667e-02    5.082874e-06
  9.443560e-02    5.091505e-06
  9.473453e-02    5.095009e-06
  9.503346e-02    5.089100e-06
  9.533239e-02    5.073685e-06
  9.563132e-02    5.059426e-06
  9.593025e-02    5.066052e-06
  9.622918e-02    5.064999e-06
  9.652811e-02    5.064447e-06
  9.682704e-02    5.063056e-06
  9.712597e-02    5.061885e-06
  9.742490e-02    5.048806e-06
  9.772383e-02    5.021641e-06
  9.802276e-02    5.009587e-06
  9.832169e-02    4.990015e-06
  9.862062e-02    4.967058e-06
  9.891956e-02    4.954751e-06
  9.921849e-02    4.945357e-06
  9.951742e-02    4.927354e-06
  9.981635e-02    4.908612e-06
  1.001153e-01    4.904730e-06
  1.004142e-01    4.896160e-06
  1.007131e-01    4.899370e-06
  1.010121e-01    4.886606e-06
  1.013110e-01    4.874237e-06
  1.016099e-01    4.871385e-06
  1.019089e-01    4.855040e-06
  1.022078e-01    4.842077e-06
  1.025067e-01    4.834112e-06
  1.028057e-01    4.827728e-06
  1.031046e-01    4.828181e-06
  1.034035e-01    4.833621e-06
  1.037024e-01    4.819999e-06
  1.040014e-01    4.789640e-06
  1.043003e-01    4.782718e-06
  1.045992e-01    4.769833e-06
  1.048982e-01    4.759408e-06
  1.051971e-01    4.751788e-06
  1.054960e-01    4.745503e-06
  1.057950e-01    4.721729e-06
  1.060939e-01    4.703639e-06
  1.063928e-01    4.702417e-06
  1.066917e-01    4.708213e-06
  1.069907e-01    4.705732e-06
  1.072896e-01    4.673178e-06
  1.075885e-01    4.659535e-06
  1.078875e-01    4.655155e-06
  1.081864e-01    4.639839e-06
  1.084853e-01    4.631689e-06
  1.087843e-01    4.639760e-06
  1.090832e-01    4.640492e-06
  1.093821e-01    4.628479e-06
  1.096810e-01    4.611895e-06
  1.099800e-01    4.590110e-06
  1.102789e-01    4.562216e-06
  1.105778e-01    4.541424e-06
  1.108768e-01    4.533182e-06
  1.111757e-01    4.527765e-06
  1.114746e-01    4.502698e-06
  1.117736e-01    4.494025e-06
  1.120725e-01    4.491661e-06
  1.123714e-01    4.483669e-06
  1.126704e-01    4.479031e-06
  1.129693e-01    4.468739e-06
  1.132682e-01    4.417871e-06
  1.135671e-01    4.415394e-06
  1.138661e-01    4.428409e-06
  1.141650e-01    4.426676e-06
  1.144639e-01    4.425104e-06
  1.147629e-01    4.428571e-06
  1.150618e-01    4.413728e-06
  1.153607e-01    4.406304e-06
  1.156597e-01    4.383765e-06
  1.159586e-01    4.398249e-06
  1.162575e-01    4.406933e-06
  1.165564e-01    4.389922e-06
  1.168554e-01    4.386305e-06
  1.171543e-01    4.371783e-06
  1.174532e-01    4.380807e-06
  1.177522e-01    4.347821e-06
  1.180511e-01    4.356587e-06
  1.183500e-01    4.370311e-06
  1.186490e-01    4.341520e-06
  1.189479e-01    4.345057e-06
  1.192468e-01    4.360417e-06
  1.195458e-01    4.358829e-06
  1.198447e-01    4.334484e-06
  1.201436e-01    4.285547e-06
  1.204425e-01    4.171575e-06
  1.207415e-01    4.203704e-06
  1.210404e-01    4.035028e-06
  1.213393e-01    0.000000e+00
  1.216383e-01    0.000000e+00
  1.219372e-01    0.000000e+00
  1.222361e-01    0.000000e+00
  1.225351e-01    0.000000e+00
  1.228340e-01    0.000000e+00
  1.231329e-01    0.000000e+00
  1.234318e-01    0.000000e+00
  1.237308e-01    0.000000e+00
  1.240297e-01    0.000000e+00
  1.243286e-01    0.000000e+00
  1.246276e-01    0.000000e+00
  1.249265e-01    0.000000e+00
  1.252254e-01    0.000000e+00
  1.255244e-01    0.000000e+00
  1.258233e-01    0.000000e+00
  1.261222e-01    0.000000e+00
  1.264212e-01    0.000000e+00
  1.267201e-01    0.000000e+00
  1.270190e-01    0.000000e+00
  1.273179e-01    0.000000e+00
  1.276169e-01    0.000000e+00
  1.279158e-01    0.000000e+00
  1.282147e-01    0.000000e+00
  1.285137e-01    0.000000e+00
  1.288126e-01    0.000000e+00
  1.291115e-01    0.000000e+00
  1.294105e-01    0.000000e+00
  1.297094e-01    0.000000e+00
  1.300083e-01    0.000000e+00
  1.303072e-01    0.000000e+00
  1.306062e-01    0.000000e+00
  1.309051e-01    0.000000e+00
  1.312040e-01    0.000000e+00
  1.315030e-01    0.000000e+00
  1.318019e-01    0.000000e+00
  1.321008e-01    0.000000e+00
  1.323998e-01    0.000000e+00
  1.326987e-01    0.000000e+00
  1.329976e-01    0.000000e+00
  1.332965e-01    0.000000e+00
  1.335955e-01    0.000000e+00
  1.338944e-01    0.000000e+00
  1.341933e-01    0.000000e+00
  1.344923e-01    0.000000e+00
  1.347912e-01    0.000000e+00
  1.350901e-01    0.000000e+00
  1.353891e-01    0.000000e+00
  1.356880e-01    0.000000e+00
  1.359869e-01    0.000000e+00
  1.362859e-01    0.000000e+00
  1.365848e-01    0.000000e+00
  1.368837e-01    0.000000e+00
  1.371826e-01    0.000000e+00
  1.374816e-01    0.000000e+00
  1.377805e-01    0.000000e+00
  1.380794e-01    0.000000e+00
  1.383784e-01    0.000000e+00
  1.386773e-01    0.000000e+00
  1.389762e-01    0.000000e+00
  1.392752e-01    0.000000e+00
  1.395741e-01    0.000000e+00
  1.398730e-01    0.000000e+00
  1.401719e-01    0.000000e+00
  1.404709e-01    0.000000e+00
  1.407698e-01    0.000000e+00
  1.410687e-01    0.000000e+00
  1.413677e-01    0.000000e+00
  1.416666e-01    0.000000e+00
  1.419655e-01    0.000000e+00
  1.422645e-01    0.000000e+00
  1.425634e-01    0.000000e+00
  1.428623e-01    0.000000e+00
  1.431613e-01    0.000000e+00
  1.434602e-01    0.000000e+00
  1.437591e-01    0.000000e+00
  1.440580e-01    0.000000e+00
  1.443570e-01    0.000000e+00
  1.446559e-01    0.000000e+00
  1.449548e-01    0.000000e+00
  1.452538e-01    0.000000e+00
  1.455527e-01    0.000000e+00
  1.458516e-01    0.000000e+00
  1.461506e-01    0.000000e+00
  1.464495e-01    0.000000e+00
  1.467484e-01    0.000000e+00
  1.470473e-01    0.000000e+00
  1.473463e-01    0.000000e+00
  1.476452e-01    0.000000e+00
  1.479441e-01    0.000000e+00
  1.482431e-01    0.000000e+00
  1.485420e-01    0.000000e+00
  1.488409e-01    0.000000e+00
  1.491399e-01    0.000000e+00
  1.494388e-01    0.000000e+00
  1.497377e-01    0.000000e+00
  1.500367e-01    0.000000e+00
  1.503356e-01    0.000000e+00
  1.506345e-01    0.000000e+00
  1.509334e-01    0.000000e+00
  1.512324e-01    0.000000e+00
  1.515313e-01    0.000000e+00
  1.518302e-01    0.000000e+00
  1.521292e-01    0.000000e+00
  1.524281e-01    0.000000e+00
  1.527270e-01    0.000000e+00
  1.530260e-01    0.000000e+00
  1.533249e-01    0.000000e+00
  1.536238e-01    0.000000e+00
