# == pyFAI calibration ==
# Distance Sample to Detector: 2.266 m
# PONI: 5.659e-02, 4.293e-02 m
# Rotations: 0.000000 0.000000 0.000000 rad
# 
# == Fit2d calibration ==
# Distance Sample-beamCenter: 2266.000 mm
# Center: x=249.594, y=329.012 pix
# Tilt: 0.000 deg  TiltPlanRot: 0.000 deg
# 
# Detector Pilatus 300k	 PixelSize= 1.720e-04, 1.720e-04 m
#    Detector has a mask: True 
#    Detector has a dark current: False 
#    detector has a flat field: False 
# 
# Wavelength: 1.27818e-10 m
# Mask applied: user provided
# Dark current applied: False
# Flat field applied: False
# Polarization factor: None
# Normalization factor: 13449765.8
# --> F127_96.098_hexanes_105.707_EtOH_261.993_NaCl_100.000mgml_0_r1d.csv
#        q_A^-1             I 
  4.457554e-03    7.147401e-04
  4.756484e-03    6.015961e-04
  5.055415e-03    4.735992e-04
  5.354345e-03    3.685198e-04
  5.653276e-03    3.066707e-04
  5.952206e-03    6.289878e-04
  6.251136e-03    5.854890e-04
  6.550067e-03    5.120360e-04
  6.848997e-03    4.365033e-04
  7.147927e-03    3.678659e-04
  7.446858e-03    3.129763e-04
  7.745788e-03    2.668753e-04
  8.044719e-03    2.288769e-04
  8.343649e-03    1.990752e-04
  8.642579e-03    1.739483e-04
  8.941510e-03    1.526346e-04
  9.240440e-03    1.347123e-04
  9.539371e-03    1.192689e-04
  9.838301e-03    1.061349e-04
  1.013723e-02    9.484101e-05
  1.043616e-02    8.515169e-05
  1.073509e-02    7.609070e-05
  1.103402e-02    6.849205e-05
  1.133295e-02    6.213832e-05
  1.163188e-02    5.675521e-05
  1.193081e-02    5.181365e-05
  1.222974e-02    4.728136e-05
  1.252867e-02    4.345519e-05
  1.282760e-02    4.004986e-05
  1.312654e-02    3.689937e-05
  1.342547e-02    3.432568e-05
  1.372440e-02    3.182669e-05
  1.402333e-02    2.952029e-05
  1.432226e-02    2.746219e-05
  1.462119e-02    2.564713e-05
  1.492012e-02    2.403884e-05
  1.521905e-02    2.254972e-05
  1.551798e-02    2.122433e-05
  1.581691e-02    1.983376e-05
  1.611584e-02    1.879721e-05
  1.641477e-02    1.768817e-05
  1.671370e-02    1.670614e-05
  1.701263e-02    1.586675e-05
  1.731156e-02    1.504806e-05
  1.761049e-02    1.436885e-05
  1.790942e-02    1.369044e-05
  1.820835e-02    1.306342e-05
  1.850728e-02    1.246286e-05
  1.880621e-02    1.198271e-05
  1.910514e-02    1.150139e-05
  1.940407e-02    1.096314e-05
  1.970300e-02    1.060448e-05
  2.000193e-02    1.021090e-05
  2.030086e-02    9.814473e-06
  2.059979e-02    9.503157e-06
  2.089873e-02    9.181010e-06
  2.119766e-02    8.860956e-06
  2.149659e-02    8.653637e-06
  2.179552e-02    8.377809e-06
  2.209445e-02    8.132364e-06
  2.239338e-02    8.004095e-06
  2.269231e-02    7.763722e-06
  2.299124e-02    7.534995e-06
  2.329017e-02    7.334579e-06
  2.358910e-02    7.162274e-06
  2.388803e-02    6.984347e-06
  2.418696e-02    6.792405e-06
  2.448589e-02    6.673768e-06
  2.478482e-02    6.567735e-06
  2.508375e-02    6.384917e-06
  2.538268e-02    6.311168e-06
  2.568161e-02    6.232538e-06
  2.598054e-02    6.159244e-06
  2.627947e-02    6.020725e-06
  2.657840e-02    5.900656e-06
  2.687733e-02    5.855214e-06
  2.717626e-02    5.774917e-06
  2.747519e-02    5.677703e-06
  2.777412e-02    5.615626e-06
  2.807305e-02    5.577857e-06
  2.837198e-02    5.496963e-06
  2.867092e-02    5.411980e-06
  2.896985e-02    5.358957e-06
  2.926878e-02    5.312345e-06
  2.956771e-02    5.277551e-06
  2.986664e-02    5.241875e-06
  3.016557e-02    5.169631e-06
  3.046450e-02    5.144741e-06
  3.076343e-02    5.098897e-06
  3.106236e-02    5.054302e-06
  3.136129e-02    5.054853e-06
  3.166022e-02    5.034232e-06
  3.195915e-02    4.968367e-06
  3.225808e-02    4.926379e-06
  3.255701e-02    4.957204e-06
  3.285594e-02    4.892506e-06
  3.315487e-02    4.841799e-06
  3.345380e-02    4.825356e-06
  3.375273e-02    4.835572e-06
  3.405166e-02    4.816934e-06
  3.435059e-02    4.806142e-06
  3.464952e-02    4.761857e-06
  3.494845e-02    4.742136e-06
  3.524738e-02    4.763316e-06
  3.554631e-02    4.736861e-06
  3.584524e-02    4.725248e-06
  3.614417e-02    4.709351e-06
  3.644310e-02    4.684388e-06
  3.674204e-02    4.710817e-06
  3.704097e-02    4.728691e-06
  3.733990e-02    4.699166e-06
  3.763883e-02    4.661083e-06
  3.793776e-02    4.662515e-06
  3.823669e-02    4.679607e-06
  3.853562e-02    4.673908e-06
  3.883455e-02    4.626879e-06
  3.913348e-02    4.608441e-06
  3.943241e-02    4.547529e-06
  3.973134e-02    4.528370e-06
  4.003027e-02    4.551730e-06
  4.032920e-02    4.563762e-06
  4.062813e-02    4.549570e-06
  4.092706e-02    4.538839e-06
  4.122599e-02    4.532216e-06
  4.152492e-02    4.500831e-06
  4.182385e-02    4.476435e-06
  4.212278e-02    4.493713e-06
  4.242171e-02    4.491111e-06
  4.272064e-02    4.473842e-06
  4.301957e-02    4.437763e-06
  4.331850e-02    4.420414e-06
  4.361743e-02    4.412762e-06
  4.391636e-02    4.407353e-06
  4.421529e-02    4.372469e-06
  4.451423e-02    4.369793e-06
  4.481316e-02    4.339509e-06
  4.511209e-02    4.295029e-06
  4.541102e-02    4.268984e-06
  4.570995e-02    4.270747e-06
  4.600888e-02    4.262706e-06
  4.630781e-02    4.243937e-06
  4.660674e-02    4.221059e-06
  4.690567e-02    4.195567e-06
  4.720460e-02    4.189144e-06
  4.750353e-02    4.202546e-06
  4.780246e-02    4.153916e-06
  4.810139e-02    4.152137e-06
  4.840032e-02    4.152690e-06
  4.869925e-02    4.125362e-06
  4.899818e-02    4.097881e-06
  4.929711e-02    4.079953e-06
  4.959604e-02    4.061578e-06
  4.989497e-02    4.076031e-06
  5.019390e-02    4.077337e-06
  5.049283e-02    4.066135e-06
  5.079176e-02    4.029143e-06
  5.109069e-02    4.019608e-06
  5.138962e-02    4.042003e-06
  5.168855e-02    4.070712e-06
  5.198748e-02    4.109885e-06
  5.228642e-02    4.085683e-06
  5.258535e-02    4.010672e-06
  5.288428e-02    4.000859e-06
  5.318321e-02    4.018177e-06
  5.348214e-02    3.984007e-06
  5.378107e-02    3.970699e-06
  5.408000e-02    3.968149e-06
  5.437893e-02    3.932875e-06
  5.467786e-02    3.929755e-06
  5.497679e-02    3.955893e-06
  5.527572e-02    3.946946e-06
  5.557465e-02    3.939270e-06
  5.587358e-02    3.928715e-06
  5.617251e-02    3.936838e-06
  5.647144e-02    3.935062e-06
  5.677037e-02    3.914143e-06
  5.706930e-02    3.902722e-06
  5.736823e-02    3.899959e-06
  5.766716e-02    3.906391e-06
  5.796609e-02    3.888249e-06
  5.826502e-02    3.904865e-06
  5.856395e-02    3.919159e-06
  5.886288e-02    3.926712e-06
  5.916181e-02    3.897848e-06
  5.946074e-02    3.900048e-06
  5.975967e-02    3.905182e-06
  6.005861e-02    3.892830e-06
  6.035754e-02    3.912387e-06
  6.065647e-02    3.909749e-06
  6.095540e-02    3.914914e-06
  6.125433e-02    3.948694e-06
  6.155326e-02    3.970683e-06
  6.185219e-02    3.940370e-06
  6.215112e-02    3.935203e-06
  6.245005e-02    3.947372e-06
  6.274898e-02    3.936875e-06
  6.304791e-02    3.926588e-06
  6.334684e-02    3.912466e-06
  6.364577e-02    3.916294e-06
  6.394470e-02    3.941342e-06
  6.424363e-02    3.929167e-06
  6.454256e-02    3.920736e-06
  6.484149e-02    3.928491e-06
  6.514042e-02    3.938309e-06
  6.543935e-02    3.936306e-06
  6.573828e-02    3.927089e-06
  6.603721e-02    3.917478e-06
  6.633614e-02    3.929540e-06
  6.663507e-02    3.940676e-06
  6.693400e-02    3.939431e-06
  6.723293e-02    3.931531e-06
  6.753186e-02    3.934201e-06
  6.783080e-02    3.955002e-06
  6.812973e-02    3.959920e-06
  6.842866e-02    3.938561e-06
  6.872759e-02    3.917698e-06
  6.902652e-02    3.934912e-06
  6.932545e-02    3.961218e-06
  6.962438e-02    3.954131e-06
  6.992331e-02    3.953879e-06
  7.022224e-02    3.959546e-06
  7.052117e-02    3.942902e-06
  7.082010e-02    3.933973e-06
  7.111903e-02    3.934833e-06
  7.141796e-02    3.922039e-06
  7.171689e-02    3.919681e-06
  7.201582e-02    3.920615e-06
  7.231475e-02    3.935596e-06
  7.261368e-02    3.934537e-06
  7.291261e-02    3.936522e-06
  7.321154e-02    3.943813e-06
  7.351047e-02    3.938631e-06
  7.380940e-02    3.910129e-06
  7.410833e-02    3.908505e-06
  7.440726e-02    3.928227e-06
  7.470619e-02    3.938153e-06
  7.500512e-02    3.908242e-06
  7.530405e-02    3.902585e-06
  7.560299e-02    3.921427e-06
  7.590192e-02    3.906067e-06
  7.620085e-02    3.915884e-06
  7.649978e-02    3.904145e-06
  7.679871e-02    3.891136e-06
  7.709764e-02    3.896413e-06
  7.739657e-02    3.896425e-06
  7.769550e-02    3.896680e-06
  7.799443e-02    3.894348e-06
  7.829336e-02    3.895781e-06
  7.859229e-02    3.880503e-06
  7.889122e-02    3.849825e-06
  7.919015e-02    3.874464e-06
  7.948908e-02    3.887088e-06
  7.978801e-02    3.883838e-06
  8.008694e-02    3.858758e-06
  8.038587e-02    3.850478e-06
  8.068480e-02    3.862887e-06
  8.098373e-02    3.862152e-06
  8.128266e-02    3.845670e-06
  8.158159e-02    3.820438e-06
  8.188052e-02    3.823794e-06
  8.217945e-02    3.824796e-06
  8.247838e-02    3.832463e-06
  8.277731e-02    3.838781e-06
  8.307624e-02    3.836400e-06
  8.337518e-02    3.820883e-06
  8.367411e-02    3.812078e-06
  8.397304e-02    3.813081e-06
  8.427197e-02    3.786298e-06
  8.457090e-02    3.762169e-06
  8.486983e-02    3.760616e-06
  8.516876e-02    3.772744e-06
  8.546769e-02    3.770861e-06
  8.576662e-02    3.748759e-06
  8.606555e-02    3.729721e-06
  8.636448e-02    3.740224e-06
  8.666341e-02    3.744542e-06
  8.696234e-02    3.748037e-06
  8.726127e-02    3.722616e-06
  8.756020e-02    3.716359e-06
  8.785913e-02    3.733135e-06
  8.815806e-02    3.716614e-06
  8.845699e-02    3.705684e-06
  8.875592e-02    3.699849e-06
  8.905485e-02    3.705263e-06
  8.935378e-02    3.686685e-06
  8.965271e-02    3.680551e-06
  8.995164e-02    3.693885e-06
  9.025057e-02    3.690076e-06
  9.054950e-02    3.662917e-06
  9.084843e-02    3.678252e-06
  9.114737e-02    3.679003e-06
  9.144630e-02    3.663135e-06
  9.174523e-02    3.649900e-06
  9.204416e-02    3.644971e-06
  9.234309e-02    3.626156e-06
  9.264202e-02    3.614298e-06
  9.294095e-02    3.607024e-06
  9.323988e-02    3.600838e-06
  9.353881e-02    3.590013e-06
  9.383774e-02    3.588257e-06
  9.413667e-02    3.599023e-06
  9.443560e-02    3.600700e-06
  9.473453e-02    3.604256e-06
  9.503346e-02    3.581593e-06
  9.533239e-02    3.572820e-06
  9.563132e-02    3.577779e-06
  9.593025e-02    3.572317e-06
  9.622918e-02    3.567598e-06
  9.652811e-02    3.579364e-06
  9.682704e-02    3.591419e-06
  9.712597e-02    3.601436e-06
  9.742490e-02    3.582234e-06
  9.772383e-02    3.562441e-06
  9.802276e-02    3.540582e-06
  9.832169e-02    3.549271e-06
  9.862062e-02    3.550826e-06
  9.891956e-02    3.525675e-06
  9.921849e-02    3.525195e-06
  9.951742e-02    3.510738e-06
  9.981635e-02    3.473880e-06
  1.001153e-01    3.460956e-06
  1.004142e-01    3.464609e-06
  1.007131e-01    3.473521e-06
  1.010121e-01    3.469684e-06
  1.013110e-01    3.468580e-06
  1.016099e-01    3.470093e-06
  1.019089e-01    3.456980e-06
  1.022078e-01    3.429737e-06
  1.025067e-01    3.417830e-06
  1.028057e-01    3.408785e-06
  1.031046e-01    3.416760e-06
  1.034035e-01    3.422773e-06
  1.037024e-01    3.412410e-06
  1.040014e-01    3.407692e-06
  1.043003e-01    3.420353e-06
  1.045992e-01    3.403773e-06
  1.048982e-01    3.389071e-06
  1.051971e-01    3.383215e-06
  1.054960e-01    3.377382e-06
  1.057950e-01    3.374916e-06
  1.060939e-01    3.377075e-06
  1.063928e-01    3.373557e-06
  1.066917e-01    3.342677e-06
  1.069907e-01    3.322411e-06
  1.072896e-01    3.328081e-06
  1.075885e-01    3.310925e-06
  1.078875e-01    3.299441e-06
  1.081864e-01    3.298862e-06
  1.084853e-01    3.308814e-06
  1.087843e-01    3.337749e-06
  1.090832e-01    3.350470e-06
  1.093821e-01    3.305556e-06
  1.096810e-01    3.282992e-06
  1.099800e-01    3.267435e-06
  1.102789e-01    3.262012e-06
  1.105778e-01    3.269766e-06
  1.108768e-01    3.236448e-06
  1.111757e-01    3.202944e-06
  1.114746e-01    3.183393e-06
  1.117736e-01    3.192764e-06
  1.120725e-01    3.193117e-06
  1.123714e-01    3.145159e-06
  1.126704e-01    3.119045e-06
  1.129693e-01    3.126913e-06
  1.132682e-01    3.107817e-06
  1.135671e-01    3.108863e-06
  1.138661e-01    3.125278e-06
  1.141650e-01    3.104240e-06
  1.144639e-01    3.079733e-06
  1.147629e-01    3.086018e-06
  1.150618e-01    3.104655e-06
  1.153607e-01    3.112224e-06
  1.156597e-01    3.102554e-06
  1.159586e-01    3.107072e-06
  1.162575e-01    3.109451e-06
  1.165564e-01    3.101688e-06
  1.168554e-01    3.047568e-06
  1.171543e-01    3.039098e-06
  1.174532e-01    3.013169e-06
  1.177522e-01    2.975175e-06
  1.180511e-01    2.928128e-06
  1.183500e-01    2.941397e-06
  1.186490e-01    2.917443e-06
  1.189479e-01    2.922047e-06
  1.192468e-01    2.954630e-06
  1.195458e-01    2.913849e-06
  1.198447e-01    2.889094e-06
  1.201436e-01    2.887477e-06
  1.204425e-01    2.847208e-06
  1.207415e-01    2.763703e-06
  1.210404e-01    2.753469e-06
  1.213393e-01    0.000000e+00
  1.216383e-01    0.000000e+00
  1.219372e-01    0.000000e+00
  1.222361e-01    0.000000e+00
  1.225351e-01    0.000000e+00
  1.228340e-01    0.000000e+00
  1.231329e-01    0.000000e+00
  1.234318e-01    0.000000e+00
  1.237308e-01    0.000000e+00
  1.240297e-01    0.000000e+00
  1.243286e-01    0.000000e+00
  1.246276e-01    0.000000e+00
  1.249265e-01    0.000000e+00
  1.252254e-01    0.000000e+00
  1.255244e-01    0.000000e+00
  1.258233e-01    0.000000e+00
  1.261222e-01    0.000000e+00
  1.264212e-01    0.000000e+00
  1.267201e-01    0.000000e+00
  1.270190e-01    0.000000e+00
  1.273179e-01    0.000000e+00
  1.276169e-01    0.000000e+00
  1.279158e-01    0.000000e+00
  1.282147e-01    0.000000e+00
  1.285137e-01    0.000000e+00
  1.288126e-01    0.000000e+00
  1.291115e-01    0.000000e+00
  1.294105e-01    0.000000e+00
  1.297094e-01    0.000000e+00
  1.300083e-01    0.000000e+00
  1.303072e-01    0.000000e+00
  1.306062e-01    0.000000e+00
  1.309051e-01    0.000000e+00
  1.312040e-01    0.000000e+00
  1.315030e-01    0.000000e+00
  1.318019e-01    0.000000e+00
  1.321008e-01    0.000000e+00
  1.323998e-01    0.000000e+00
  1.326987e-01    0.000000e+00
  1.329976e-01    0.000000e+00
  1.332965e-01    0.000000e+00
  1.335955e-01    0.000000e+00
  1.338944e-01    0.000000e+00
  1.341933e-01    0.000000e+00
  1.344923e-01    0.000000e+00
  1.347912e-01    0.000000e+00
  1.350901e-01    0.000000e+00
  1.353891e-01    0.000000e+00
  1.356880e-01    0.000000e+00
  1.359869e-01    0.000000e+00
  1.362859e-01    0.000000e+00
  1.365848e-01    0.000000e+00
  1.368837e-01    0.000000e+00
  1.371826e-01    0.000000e+00
  1.374816e-01    0.000000e+00
  1.377805e-01    0.000000e+00
  1.380794e-01    0.000000e+00
  1.383784e-01    0.000000e+00
  1.386773e-01    0.000000e+00
  1.389762e-01    0.000000e+00
  1.392752e-01    0.000000e+00
  1.395741e-01    0.000000e+00
  1.398730e-01    0.000000e+00
  1.401719e-01    0.000000e+00
  1.404709e-01    0.000000e+00
  1.407698e-01    0.000000e+00
  1.410687e-01    0.000000e+00
  1.413677e-01    0.000000e+00
  1.416666e-01    0.000000e+00
  1.419655e-01    0.000000e+00
  1.422645e-01    0.000000e+00
  1.425634e-01    0.000000e+00
  1.428623e-01    0.000000e+00
  1.431613e-01    0.000000e+00
  1.434602e-01    0.000000e+00
  1.437591e-01    0.000000e+00
  1.440580e-01    0.000000e+00
  1.443570e-01    0.000000e+00
  1.446559e-01    0.000000e+00
  1.449548e-01    0.000000e+00
  1.452538e-01    0.000000e+00
  1.455527e-01    0.000000e+00
  1.458516e-01    0.000000e+00
  1.461506e-01    0.000000e+00
  1.464495e-01    0.000000e+00
  1.467484e-01    0.000000e+00
  1.470473e-01    0.000000e+00
  1.473463e-01    0.000000e+00
  1.476452e-01    0.000000e+00
  1.479441e-01    0.000000e+00
  1.482431e-01    0.000000e+00
  1.485420e-01    0.000000e+00
  1.488409e-01    0.000000e+00
  1.491399e-01    0.000000e+00
  1.494388e-01    0.000000e+00
  1.497377e-01    0.000000e+00
  1.500367e-01    0.000000e+00
  1.503356e-01    0.000000e+00
  1.506345e-01    0.000000e+00
  1.509334e-01    0.000000e+00
  1.512324e-01    0.000000e+00
  1.515313e-01    0.000000e+00
  1.518302e-01    0.000000e+00
  1.521292e-01    0.000000e+00
  1.524281e-01    0.000000e+00
  1.527270e-01    0.000000e+00
  1.530260e-01    0.000000e+00
  1.533249e-01    0.000000e+00
  1.536238e-01    0.000000e+00
