# == pyFAI calibration ==
# Distance Sample to Detector: 2.266 m
# PONI: 5.659e-02, 4.293e-02 m
# Rotations: 0.000000 0.000000 0.000000 rad
# 
# == Fit2d calibration ==
# Distance Sample-beamCenter: 2266.000 mm
# Center: x=249.594, y=329.012 pix
# Tilt: 0.000 deg  TiltPlanRot: 0.000 deg
# 
# Detector Pilatus 300k	 PixelSize= 1.720e-04, 1.720e-04 m
#    Detector has a mask: True 
#    Detector has a dark current: False 
#    detector has a flat field: False 
# 
# Wavelength: 1.27818e-10 m
# Mask applied: user provided
# Dark current applied: False
# Flat field applied: False
# Polarization factor: None
# Normalization factor: 32534996.6
# --> F127_75.877_NaCl_83.465_limonene_257.983mgml_2_r1d.csv
#        q_A^-1             I 
  4.457554e-03    1.693704e-03
  4.756484e-03    1.361438e-03
  5.055415e-03    1.008526e-03
  5.354345e-03    7.438435e-04
  5.653276e-03    5.996700e-04
  5.952206e-03    9.891491e-04
  6.251136e-03    8.858592e-04
  6.550067e-03    7.539517e-04
  6.848997e-03    6.313173e-04
  7.147927e-03    5.313086e-04
  7.446858e-03    4.533763e-04
  7.745788e-03    3.891872e-04
  8.044719e-03    3.365274e-04
  8.343649e-03    2.941767e-04
  8.642579e-03    2.575697e-04
  8.941510e-03    2.270698e-04
  9.240440e-03    2.012840e-04
  9.539371e-03    1.788222e-04
  9.838301e-03    1.593198e-04
  1.013723e-02    1.429632e-04
  1.043616e-02    1.289525e-04
  1.073509e-02    1.159284e-04
  1.103402e-02    1.049899e-04
  1.133295e-02    9.524598e-05
  1.163188e-02    8.680925e-05
  1.193081e-02    7.943670e-05
  1.222974e-02    7.275234e-05
  1.252867e-02    6.681136e-05
  1.282760e-02    6.139074e-05
  1.312654e-02    5.662201e-05
  1.342547e-02    5.232948e-05
  1.372440e-02    4.843437e-05
  1.402333e-02    4.496508e-05
  1.432226e-02    4.186034e-05
  1.462119e-02    3.899325e-05
  1.492012e-02    3.649119e-05
  1.521905e-02    3.411451e-05
  1.551798e-02    3.201713e-05
  1.581691e-02    3.004164e-05
  1.611584e-02    2.830799e-05
  1.641477e-02    2.673341e-05
  1.671370e-02    2.526689e-05
  1.701263e-02    2.383920e-05
  1.731156e-02    2.260151e-05
  1.761049e-02    2.148297e-05
  1.790942e-02    2.039303e-05
  1.820835e-02    1.942306e-05
  1.850728e-02    1.856169e-05
  1.880621e-02    1.771841e-05
  1.910514e-02    1.691368e-05
  1.940407e-02    1.619068e-05
  1.970300e-02    1.552790e-05
  2.000193e-02    1.492469e-05
  2.030086e-02    1.436766e-05
  2.059979e-02    1.383720e-05
  2.089873e-02    1.335670e-05
  2.119766e-02    1.288907e-05
  2.149659e-02    1.241173e-05
  2.179552e-02    1.203486e-05
  2.209445e-02    1.167308e-05
  2.239338e-02    1.130027e-05
  2.269231e-02    1.095071e-05
  2.299124e-02    1.064140e-05
  2.329017e-02    1.034544e-05
  2.358910e-02    1.006787e-05
  2.388803e-02    9.836863e-06
  2.418696e-02    9.590647e-06
  2.448589e-02    9.345700e-06
  2.478482e-02    9.150379e-06
  2.508375e-02    8.929252e-06
  2.538268e-02    8.780012e-06
  2.568161e-02    8.630585e-06
  2.598054e-02    8.454677e-06
  2.627947e-02    8.279250e-06
  2.657840e-02    8.142761e-06
  2.687733e-02    8.003692e-06
  2.717626e-02    7.887348e-06
  2.747519e-02    7.757116e-06
  2.777412e-02    7.611560e-06
  2.807305e-02    7.517938e-06
  2.837198e-02    7.447934e-06
  2.867092e-02    7.348398e-06
  2.896985e-02    7.236653e-06
  2.926878e-02    7.120922e-06
  2.956771e-02    7.021247e-06
  2.986664e-02    6.909272e-06
  3.016557e-02    6.834230e-06
  3.046450e-02    6.796645e-06
  3.076343e-02    6.705099e-06
  3.106236e-02    6.623810e-06
  3.136129e-02    6.581235e-06
  3.166022e-02    6.508453e-06
  3.195915e-02    6.446550e-06
  3.225808e-02    6.389785e-06
  3.255701e-02    6.336112e-06
  3.285594e-02    6.287910e-06
  3.315487e-02    6.223961e-06
  3.345380e-02    6.163783e-06
  3.375273e-02    6.105266e-06
  3.405166e-02    6.041641e-06
  3.435059e-02    6.002146e-06
  3.464952e-02    5.933813e-06
  3.494845e-02    5.883724e-06
  3.524738e-02    5.834519e-06
  3.554631e-02    5.825544e-06
  3.584524e-02    5.769928e-06
  3.614417e-02    5.717104e-06
  3.644310e-02    5.695679e-06
  3.674204e-02    5.693655e-06
  3.704097e-02    5.630989e-06
  3.733990e-02    5.583313e-06
  3.763883e-02    5.548169e-06
  3.793776e-02    5.501855e-06
  3.823669e-02    5.464086e-06
  3.853562e-02    5.430064e-06
  3.883455e-02    5.412116e-06
  3.913348e-02    5.388625e-06
  3.943241e-02    5.369120e-06
  3.973134e-02    5.354920e-06
  4.003027e-02    5.318540e-06
  4.032920e-02    5.272066e-06
  4.062813e-02    5.254954e-06
  4.092706e-02    5.235872e-06
  4.122599e-02    5.216074e-06
  4.152492e-02    5.215312e-06
  4.182385e-02    5.186926e-06
  4.212278e-02    5.154468e-06
  4.242171e-02    5.160507e-06
  4.272064e-02    5.142022e-06
  4.301957e-02    5.122625e-06
  4.331850e-02    5.114834e-06
  4.361743e-02    5.093737e-06
  4.391636e-02    5.077099e-06
  4.421529e-02    5.084160e-06
  4.451423e-02    5.085724e-06
  4.481316e-02    5.084290e-06
  4.511209e-02    5.081040e-06
  4.541102e-02    5.066746e-06
  4.570995e-02    5.038854e-06
  4.600888e-02    5.038227e-06
  4.630781e-02    5.045472e-06
  4.660674e-02    5.030497e-06
  4.690567e-02    5.019117e-06
  4.720460e-02    5.027107e-06
  4.750353e-02    5.037482e-06
  4.780246e-02    5.031005e-06
  4.810139e-02    5.031217e-06
  4.840032e-02    5.040108e-06
  4.869925e-02    5.033526e-06
  4.899818e-02    5.017349e-06
  4.929711e-02    5.005332e-06
  4.959604e-02    5.015351e-06
  4.989497e-02    4.990462e-06
  5.019390e-02    5.005984e-06
  5.049283e-02    5.020121e-06
  5.079176e-02    5.023203e-06
  5.109069e-02    5.040206e-06
  5.138962e-02    5.068250e-06
  5.168855e-02    5.112293e-06
  5.198748e-02    5.167777e-06
  5.228642e-02    5.136222e-06
  5.258535e-02    5.050932e-06
  5.288428e-02    5.018590e-06
  5.318321e-02    5.033066e-06
  5.348214e-02    5.033736e-06
  5.378107e-02    5.025676e-06
  5.408000e-02    5.026164e-06
  5.437893e-02    5.039735e-06
  5.467786e-02    5.046757e-06
  5.497679e-02    5.039884e-06
  5.527572e-02    5.042282e-06
  5.557465e-02    5.061292e-06
  5.587358e-02    5.064997e-06
  5.617251e-02    5.056221e-06
  5.647144e-02    5.066491e-06
  5.677037e-02    5.086162e-06
  5.706930e-02    5.070128e-06
  5.736823e-02    5.090732e-06
  5.766716e-02    5.078431e-06
  5.796609e-02    5.074951e-06
  5.826502e-02    5.089284e-06
  5.856395e-02    5.097262e-06
  5.886288e-02    5.120122e-06
  5.916181e-02    5.121989e-06
  5.946074e-02    5.126823e-06
  5.975967e-02    5.135492e-06
  6.005861e-02    5.143209e-06
  6.035754e-02    5.174803e-06
  6.065647e-02    5.190359e-06
  6.095540e-02    5.214622e-06
  6.125433e-02    5.247221e-06
  6.155326e-02    5.238838e-06
  6.185219e-02    5.226385e-06
  6.215112e-02    5.204644e-06
  6.245005e-02    5.225629e-06
  6.274898e-02    5.242233e-06
  6.304791e-02    5.238456e-06
  6.334684e-02    5.244600e-06
  6.364577e-02    5.256864e-06
  6.394470e-02    5.264039e-06
  6.424363e-02    5.270293e-06
  6.454256e-02    5.290218e-06
  6.484149e-02    5.316635e-06
  6.514042e-02    5.301031e-06
  6.543935e-02    5.310450e-06
  6.573828e-02    5.323777e-06
  6.603721e-02    5.317754e-06
  6.633614e-02    5.342157e-06
  6.663507e-02    5.355428e-06
  6.693400e-02    5.346898e-06
  6.723293e-02    5.344527e-06
  6.753186e-02    5.355567e-06
  6.783080e-02    5.374204e-06
  6.812973e-02    5.393937e-06
  6.842866e-02    5.396974e-06
  6.872759e-02    5.408781e-06
  6.902652e-02    5.404422e-06
  6.932545e-02    5.400768e-06
  6.962438e-02    5.412692e-06
  6.992331e-02    5.434546e-06
  7.022224e-02    5.439492e-06
  7.052117e-02    5.445976e-06
  7.082010e-02    5.472622e-06
  7.111903e-02    5.460584e-06
  7.141796e-02    5.449314e-06
  7.171689e-02    5.466868e-06
  7.201582e-02    5.471074e-06
  7.231475e-02    5.476307e-06
  7.261368e-02    5.491712e-06
  7.291261e-02    5.509849e-06
  7.321154e-02    5.503322e-06
  7.351047e-02    5.518967e-06
  7.380940e-02    5.510190e-06
  7.410833e-02    5.508185e-06
  7.440726e-02    5.511656e-06
  7.470619e-02    5.521772e-06
  7.500512e-02    5.524596e-06
  7.530405e-02    5.530458e-06
  7.560299e-02    5.537899e-06
  7.590192e-02    5.531990e-06
  7.620085e-02    5.537710e-06
  7.649978e-02    5.540513e-06
  7.679871e-02    5.554620e-06
  7.709764e-02    5.546225e-06
  7.739657e-02    5.542428e-06
  7.769550e-02    5.551983e-06
  7.799443e-02    5.546335e-06
  7.829336e-02    5.532032e-06
  7.859229e-02    5.526255e-06
  7.889122e-02    5.539208e-06
  7.919015e-02    5.547052e-06
  7.948908e-02    5.542437e-06
  7.978801e-02    5.540867e-06
  8.008694e-02    5.516040e-06
  8.038587e-02    5.499507e-06
  8.068480e-02    5.510625e-06
  8.098373e-02    5.525195e-06
  8.128266e-02    5.512084e-06
  8.158159e-02    5.500298e-06
  8.188052e-02    5.496931e-06
  8.217945e-02    5.501282e-06
  8.247838e-02    5.501288e-06
  8.277731e-02    5.485777e-06
  8.307624e-02    5.477995e-06
  8.337518e-02    5.470936e-06
  8.367411e-02    5.444679e-06
  8.397304e-02    5.456694e-06
  8.427197e-02    5.454254e-06
  8.457090e-02    5.441226e-06
  8.486983e-02    5.433656e-06
  8.516876e-02    5.430453e-06
  8.546769e-02    5.422010e-06
  8.576662e-02    5.423269e-06
  8.606555e-02    5.421288e-06
  8.636448e-02    5.410292e-06
  8.666341e-02    5.417917e-06
  8.696234e-02    5.410279e-06
  8.726127e-02    5.387643e-06
  8.756020e-02    5.377794e-06
  8.785913e-02    5.372705e-06
  8.815806e-02    5.357769e-06
  8.845699e-02    5.350766e-06
  8.875592e-02    5.338644e-06
  8.905485e-02    5.342400e-06
  8.935378e-02    5.327558e-06
  8.965271e-02    5.329296e-06
  8.995164e-02    5.318154e-06
  9.025057e-02    5.294021e-06
  9.054950e-02    5.290962e-06
  9.084843e-02    5.286118e-06
  9.114737e-02    5.274935e-06
  9.144630e-02    5.260126e-06
  9.174523e-02    5.253753e-06
  9.204416e-02    5.255281e-06
  9.234309e-02    5.241838e-06
  9.264202e-02    5.247495e-06
  9.294095e-02    5.237393e-06
  9.323988e-02    5.210245e-06
  9.353881e-02    5.217024e-06
  9.383774e-02    5.201442e-06
  9.413667e-02    5.184196e-06
  9.443560e-02    5.168590e-06
  9.473453e-02    5.165230e-06
  9.503346e-02    5.153428e-06
  9.533239e-02    5.147074e-06
  9.563132e-02    5.151164e-06
  9.593025e-02    5.146623e-06
  9.622918e-02    5.153360e-06
  9.652811e-02    5.148857e-06
  9.682704e-02    5.138980e-06
  9.712597e-02    5.135543e-06
  9.742490e-02    5.122620e-06
  9.772383e-02    5.104804e-06
  9.802276e-02    5.090031e-06
  9.832169e-02    5.060601e-06
  9.862062e-02    5.027341e-06
  9.891956e-02    5.024408e-06
  9.921849e-02    5.024342e-06
  9.951742e-02    5.001026e-06
  9.981635e-02    4.995197e-06
  1.001153e-01    4.997887e-06
  1.004142e-01    4.995367e-06
  1.007131e-01    4.984418e-06
  1.010121e-01    4.963671e-06
  1.013110e-01    4.960631e-06
  1.016099e-01    4.970265e-06
  1.019089e-01    4.954004e-06
  1.022078e-01    4.919732e-06
  1.025067e-01    4.894972e-06
  1.028057e-01    4.907139e-06
  1.031046e-01    4.908639e-06
  1.034035e-01    4.889999e-06
  1.037024e-01    4.866669e-06
  1.040014e-01    4.859847e-06
  1.043003e-01    4.847321e-06
  1.045992e-01    4.834708e-06
  1.048982e-01    4.827357e-06
  1.051971e-01    4.828446e-06
  1.054960e-01    4.799241e-06
  1.057950e-01    4.801110e-06
  1.060939e-01    4.800655e-06
  1.063928e-01    4.785740e-06
  1.066917e-01    4.758566e-06
  1.069907e-01    4.756800e-06
  1.072896e-01    4.764405e-06
  1.075885e-01    4.745144e-06
  1.078875e-01    4.730439e-06
  1.081864e-01    4.720793e-06
  1.084853e-01    4.725193e-06
  1.087843e-01    4.723588e-06
  1.090832e-01    4.712911e-06
  1.093821e-01    4.707280e-06
  1.096810e-01    4.684733e-06
  1.099800e-01    4.650492e-06
  1.102789e-01    4.629080e-06
  1.105778e-01    4.628445e-06
  1.108768e-01    4.605050e-06
  1.111757e-01    4.574262e-06
  1.114746e-01    4.550885e-06
  1.117736e-01    4.565073e-06
  1.120725e-01    4.555991e-06
  1.123714e-01    4.567305e-06
  1.126704e-01    4.571014e-06
  1.129693e-01    4.535064e-06
  1.132682e-01    4.492516e-06
  1.135671e-01    4.476664e-06
  1.138661e-01    4.473449e-06
  1.141650e-01    4.492937e-06
  1.144639e-01    4.485032e-06
  1.147629e-01    4.510921e-06
  1.150618e-01    4.501361e-06
  1.153607e-01    4.497699e-06
  1.156597e-01    4.482770e-06
  1.159586e-01    4.468379e-06
  1.162575e-01    4.459594e-06
  1.165564e-01    4.435869e-06
  1.168554e-01    4.415959e-06
  1.171543e-01    4.457667e-06
  1.174532e-01    4.451457e-06
  1.177522e-01    4.408570e-06
  1.180511e-01    4.413727e-06
  1.183500e-01    4.459556e-06
  1.186490e-01    4.497413e-06
  1.189479e-01    4.451786e-06
  1.192468e-01    4.413940e-06
  1.195458e-01    4.399147e-06
  1.198447e-01    4.369672e-06
  1.201436e-01    4.413609e-06
  1.204425e-01    4.404727e-06
  1.207415e-01    4.281761e-06
  1.210404e-01    4.337721e-06
  1.213393e-01    0.000000e+00
  1.216383e-01    0.000000e+00
  1.219372e-01    0.000000e+00
  1.222361e-01    0.000000e+00
  1.225351e-01    0.000000e+00
  1.228340e-01    0.000000e+00
  1.231329e-01    0.000000e+00
  1.234318e-01    0.000000e+00
  1.237308e-01    0.000000e+00
  1.240297e-01    0.000000e+00
  1.243286e-01    0.000000e+00
  1.246276e-01    0.000000e+00
  1.249265e-01    0.000000e+00
  1.252254e-01    0.000000e+00
  1.255244e-01    0.000000e+00
  1.258233e-01    0.000000e+00
  1.261222e-01    0.000000e+00
  1.264212e-01    0.000000e+00
  1.267201e-01    0.000000e+00
  1.270190e-01    0.000000e+00
  1.273179e-01    0.000000e+00
  1.276169e-01    0.000000e+00
  1.279158e-01    0.000000e+00
  1.282147e-01    0.000000e+00
  1.285137e-01    0.000000e+00
  1.288126e-01    0.000000e+00
  1.291115e-01    0.000000e+00
  1.294105e-01    0.000000e+00
  1.297094e-01    0.000000e+00
  1.300083e-01    0.000000e+00
  1.303072e-01    0.000000e+00
  1.306062e-01    0.000000e+00
  1.309051e-01    0.000000e+00
  1.312040e-01    0.000000e+00
  1.315030e-01    0.000000e+00
  1.318019e-01    0.000000e+00
  1.321008e-01    0.000000e+00
  1.323998e-01    0.000000e+00
  1.326987e-01    0.000000e+00
  1.329976e-01    0.000000e+00
  1.332965e-01    0.000000e+00
  1.335955e-01    0.000000e+00
  1.338944e-01    0.000000e+00
  1.341933e-01    0.000000e+00
  1.344923e-01    0.000000e+00
  1.347912e-01    0.000000e+00
  1.350901e-01    0.000000e+00
  1.353891e-01    0.000000e+00
  1.356880e-01    0.000000e+00
  1.359869e-01    0.000000e+00
  1.362859e-01    0.000000e+00
  1.365848e-01    0.000000e+00
  1.368837e-01    0.000000e+00
  1.371826e-01    0.000000e+00
  1.374816e-01    0.000000e+00
  1.377805e-01    0.000000e+00
  1.380794e-01    0.000000e+00
  1.383784e-01    0.000000e+00
  1.386773e-01    0.000000e+00
  1.389762e-01    0.000000e+00
  1.392752e-01    0.000000e+00
  1.395741e-01    0.000000e+00
  1.398730e-01    0.000000e+00
  1.401719e-01    0.000000e+00
  1.404709e-01    0.000000e+00
  1.407698e-01    0.000000e+00
  1.410687e-01    0.000000e+00
  1.413677e-01    0.000000e+00
  1.416666e-01    0.000000e+00
  1.419655e-01    0.000000e+00
  1.422645e-01    0.000000e+00
  1.425634e-01    0.000000e+00
  1.428623e-01    0.000000e+00
  1.431613e-01    0.000000e+00
  1.434602e-01    0.000000e+00
  1.437591e-01    0.000000e+00
  1.440580e-01    0.000000e+00
  1.443570e-01    0.000000e+00
  1.446559e-01    0.000000e+00
  1.449548e-01    0.000000e+00
  1.452538e-01    0.000000e+00
  1.455527e-01    0.000000e+00
  1.458516e-01    0.000000e+00
  1.461506e-01    0.000000e+00
  1.464495e-01    0.000000e+00
  1.467484e-01    0.000000e+00
  1.470473e-01    0.000000e+00
  1.473463e-01    0.000000e+00
  1.476452e-01    0.000000e+00
  1.479441e-01    0.000000e+00
  1.482431e-01    0.000000e+00
  1.485420e-01    0.000000e+00
  1.488409e-01    0.000000e+00
  1.491399e-01    0.000000e+00
  1.494388e-01    0.000000e+00
  1.497377e-01    0.000000e+00
  1.500367e-01    0.000000e+00
  1.503356e-01    0.000000e+00
  1.506345e-01    0.000000e+00
  1.509334e-01    0.000000e+00
  1.512324e-01    0.000000e+00
  1.515313e-01    0.000000e+00
  1.518302e-01    0.000000e+00
  1.521292e-01    0.000000e+00
  1.524281e-01    0.000000e+00
  1.527270e-01    0.000000e+00
  1.530260e-01    0.000000e+00
  1.533249e-01    0.000000e+00
  1.536238e-01    0.000000e+00
