# == pyFAI calibration ==
# Distance Sample to Detector: 2.266 m
# PONI: 5.659e-02, 4.293e-02 m
# Rotations: 0.000000 0.000000 0.000000 rad
# 
# == Fit2d calibration ==
# Distance Sample-beamCenter: 2266.000 mm
# Center: x=249.594, y=329.012 pix
# Tilt: 0.000 deg  TiltPlanRot: 0.000 deg
# 
# Detector Pilatus 300k	 PixelSize= 1.720e-04, 1.720e-04 m
#    Detector has a mask: True 
#    Detector has a dark current: False 
#    detector has a flat field: False 
# 
# Wavelength: 1.27818e-10 m
# Mask applied: user provided
# Dark current applied: False
# Flat field applied: False
# Polarization factor: None
# Normalization factor: 24521852.800000004
# --> F127_116.144_hexanes_79.189_EtOH_34.907_NaCl_100.000mgml_0_r1d.csv
#        q_A^-1             I 
  4.457554e-03    1.418235e-03
  4.756484e-03    1.126164e-03
  5.055415e-03    8.122283e-04
  5.354345e-03    5.804519e-04
  5.653276e-03    4.547587e-04
  5.952206e-03    7.655509e-04
  6.251136e-03    6.941686e-04
  6.550067e-03    5.988562e-04
  6.848997e-03    5.063987e-04
  7.147927e-03    4.267342e-04
  7.446858e-03    3.642669e-04
  7.745788e-03    3.117865e-04
  8.044719e-03    2.683011e-04
  8.343649e-03    2.340756e-04
  8.642579e-03    2.047895e-04
  8.941510e-03    1.800327e-04
  9.240440e-03    1.593193e-04
  9.539371e-03    1.414269e-04
  9.838301e-03    1.262391e-04
  1.013723e-02    1.131364e-04
  1.043616e-02    1.017417e-04
  1.073509e-02    9.150205e-05
  1.103402e-02    8.290519e-05
  1.133295e-02    7.512194e-05
  1.163188e-02    6.852700e-05
  1.193081e-02    6.253990e-05
  1.222974e-02    5.739770e-05
  1.252867e-02    5.286811e-05
  1.282760e-02    4.865849e-05
  1.312654e-02    4.486315e-05
  1.342547e-02    4.151927e-05
  1.372440e-02    3.843879e-05
  1.402333e-02    3.577090e-05
  1.432226e-02    3.339552e-05
  1.462119e-02    3.119206e-05
  1.492012e-02    2.913199e-05
  1.521905e-02    2.725054e-05
  1.551798e-02    2.555878e-05
  1.581691e-02    2.405253e-05
  1.611584e-02    2.272956e-05
  1.641477e-02    2.145258e-05
  1.671370e-02    2.032461e-05
  1.701263e-02    1.923086e-05
  1.731156e-02    1.826329e-05
  1.761049e-02    1.734116e-05
  1.790942e-02    1.653327e-05
  1.820835e-02    1.577773e-05
  1.850728e-02    1.509761e-05
  1.880621e-02    1.441093e-05
  1.910514e-02    1.381031e-05
  1.940407e-02    1.325092e-05
  1.970300e-02    1.269652e-05
  2.000193e-02    1.219519e-05
  2.030086e-02    1.175479e-05
  2.059979e-02    1.137700e-05
  2.089873e-02    1.101693e-05
  2.119766e-02    1.067442e-05
  2.149659e-02    1.031501e-05
  2.179552e-02    1.001896e-05
  2.209445e-02    9.750055e-06
  2.239338e-02    9.466245e-06
  2.269231e-02    9.205437e-06
  2.299124e-02    8.952726e-06
  2.329017e-02    8.727235e-06
  2.358910e-02    8.535654e-06
  2.388803e-02    8.300842e-06
  2.418696e-02    8.111825e-06
  2.448589e-02    7.950696e-06
  2.478482e-02    7.756003e-06
  2.508375e-02    7.618388e-06
  2.538268e-02    7.507970e-06
  2.568161e-02    7.368257e-06
  2.598054e-02    7.203703e-06
  2.627947e-02    7.075683e-06
  2.657840e-02    6.940090e-06
  2.687733e-02    6.820088e-06
  2.717626e-02    6.706942e-06
  2.747519e-02    6.633175e-06
  2.777412e-02    6.540629e-06
  2.807305e-02    6.447212e-06
  2.837198e-02    6.353842e-06
  2.867092e-02    6.249851e-06
  2.896985e-02    6.165239e-06
  2.926878e-02    6.084164e-06
  2.956771e-02    6.029557e-06
  2.986664e-02    5.957841e-06
  3.016557e-02    5.902607e-06
  3.046450e-02    5.826136e-06
  3.076343e-02    5.767354e-06
  3.106236e-02    5.723861e-06
  3.136129e-02    5.670749e-06
  3.166022e-02    5.610905e-06
  3.195915e-02    5.554533e-06
  3.225808e-02    5.517702e-06
  3.255701e-02    5.483169e-06
  3.285594e-02    5.431643e-06
  3.315487e-02    5.388316e-06
  3.345380e-02    5.323027e-06
  3.375273e-02    5.256080e-06
  3.405166e-02    5.194844e-06
  3.435059e-02    5.154195e-06
  3.464952e-02    5.155659e-06
  3.494845e-02    5.132778e-06
  3.524738e-02    5.063530e-06
  3.554631e-02    5.011259e-06
  3.584524e-02    4.963097e-06
  3.614417e-02    4.940360e-06
  3.644310e-02    4.918811e-06
  3.674204e-02    4.894049e-06
  3.704097e-02    4.846569e-06
  3.733990e-02    4.809773e-06
  3.763883e-02    4.786469e-06
  3.793776e-02    4.757218e-06
  3.823669e-02    4.720900e-06
  3.853562e-02    4.681178e-06
  3.883455e-02    4.660957e-06
  3.913348e-02    4.635492e-06
  3.943241e-02    4.606387e-06
  3.973134e-02    4.595944e-06
  4.003027e-02    4.569218e-06
  4.032920e-02    4.518088e-06
  4.062813e-02    4.511681e-06
  4.092706e-02    4.504510e-06
  4.122599e-02    4.481196e-06
  4.152492e-02    4.467540e-06
  4.182385e-02    4.469411e-06
  4.212278e-02    4.456373e-06
  4.242171e-02    4.426151e-06
  4.272064e-02    4.405159e-06
  4.301957e-02    4.386283e-06
  4.331850e-02    4.370097e-06
  4.361743e-02    4.378228e-06
  4.391636e-02    4.379069e-06
  4.421529e-02    4.370963e-06
  4.451423e-02    4.376061e-06
  4.481316e-02    4.366806e-06
  4.511209e-02    4.336236e-06
  4.541102e-02    4.338735e-06
  4.570995e-02    4.343356e-06
  4.600888e-02    4.345512e-06
  4.630781e-02    4.340356e-06
  4.660674e-02    4.320115e-06
  4.690567e-02    4.310299e-06
  4.720460e-02    4.292637e-06
  4.750353e-02    4.288044e-06
  4.780246e-02    4.314571e-06
  4.810139e-02    4.316064e-06
  4.840032e-02    4.319248e-06
  4.869925e-02    4.314005e-06
  4.899818e-02    4.288020e-06
  4.929711e-02    4.289928e-06
  4.959604e-02    4.305450e-06
  4.989497e-02    4.277036e-06
  5.019390e-02    4.283086e-06
  5.049283e-02    4.279685e-06
  5.079176e-02    4.275820e-06
  5.109069e-02    4.289896e-06
  5.138962e-02    4.296181e-06
  5.168855e-02    4.337508e-06
  5.198748e-02    4.407259e-06
  5.228642e-02    4.386108e-06
  5.258535e-02    4.311346e-06
  5.288428e-02    4.274425e-06
  5.318321e-02    4.270077e-06
  5.348214e-02    4.264143e-06
  5.378107e-02    4.255432e-06
  5.408000e-02    4.258223e-06
  5.437893e-02    4.273769e-06
  5.467786e-02    4.267337e-06
  5.497679e-02    4.257682e-06
  5.527572e-02    4.261884e-06
  5.557465e-02    4.269943e-06
  5.587358e-02    4.262643e-06
  5.617251e-02    4.259832e-06
  5.647144e-02    4.253020e-06
  5.677037e-02    4.270540e-06
  5.706930e-02    4.293237e-06
  5.736823e-02    4.271337e-06
  5.766716e-02    4.276989e-06
  5.796609e-02    4.280105e-06
  5.826502e-02    4.266098e-06
  5.856395e-02    4.275521e-06
  5.886288e-02    4.284450e-06
  5.916181e-02    4.303125e-06
  5.946074e-02    4.306419e-06
  5.975967e-02    4.319209e-06
  6.005861e-02    4.311337e-06
  6.035754e-02    4.313406e-06
  6.065647e-02    4.335273e-06
  6.095540e-02    4.361450e-06
  6.125433e-02    4.394953e-06
  6.155326e-02    4.406523e-06
  6.185219e-02    4.368331e-06
  6.215112e-02    4.351386e-06
  6.245005e-02    4.347777e-06
  6.274898e-02    4.348773e-06
  6.304791e-02    4.349019e-06
  6.334684e-02    4.366873e-06
  6.364577e-02    4.377845e-06
  6.394470e-02    4.365260e-06
  6.424363e-02    4.364686e-06
  6.454256e-02    4.365626e-06
  6.484149e-02    4.387268e-06
  6.514042e-02    4.387092e-06
  6.543935e-02    4.388588e-06
  6.573828e-02    4.397472e-06
  6.603721e-02    4.393612e-06
  6.633614e-02    4.392286e-06
  6.663507e-02    4.394575e-06
  6.693400e-02    4.409850e-06
  6.723293e-02    4.395833e-06
  6.753186e-02    4.405343e-06
  6.783080e-02    4.412344e-06
  6.812973e-02    4.426326e-06
  6.842866e-02    4.448440e-06
  6.872759e-02    4.439301e-06
  6.902652e-02    4.451425e-06
  6.932545e-02    4.454776e-06
  6.962438e-02    4.461254e-06
  6.992331e-02    4.466774e-06
  7.022224e-02    4.477397e-06
  7.052117e-02    4.460320e-06
  7.082010e-02    4.462608e-06
  7.111903e-02    4.466639e-06
  7.141796e-02    4.469057e-06
  7.171689e-02    4.482918e-06
  7.201582e-02    4.470121e-06
  7.231475e-02    4.449827e-06
  7.261368e-02    4.472850e-06
  7.291261e-02    4.485537e-06
  7.321154e-02    4.484467e-06
  7.351047e-02    4.484846e-06
  7.380940e-02    4.483265e-06
  7.410833e-02    4.481200e-06
  7.440726e-02    4.466233e-06
  7.470619e-02    4.470990e-06
  7.500512e-02    4.476604e-06
  7.530405e-02    4.485570e-06
  7.560299e-02    4.468432e-06
  7.590192e-02    4.480139e-06
  7.620085e-02    4.492299e-06
  7.649978e-02    4.490906e-06
  7.679871e-02    4.492504e-06
  7.709764e-02    4.487589e-06
  7.739657e-02    4.466644e-06
  7.769550e-02    4.474570e-06
  7.799443e-02    4.474277e-06
  7.829336e-02    4.474747e-06
  7.859229e-02    4.467963e-06
  7.889122e-02    4.448605e-06
  7.919015e-02    4.448687e-06
  7.948908e-02    4.451954e-06
  7.978801e-02    4.457736e-06
  8.008694e-02    4.449115e-06
  8.038587e-02    4.436342e-06
  8.068480e-02    4.441536e-06
  8.098373e-02    4.453983e-06
  8.128266e-02    4.453958e-06
  8.158159e-02    4.414470e-06
  8.188052e-02    4.400527e-06
  8.217945e-02    4.407994e-06
  8.247838e-02    4.399938e-06
  8.277731e-02    4.396120e-06
  8.307624e-02    4.395479e-06
  8.337518e-02    4.397242e-06
  8.367411e-02    4.397626e-06
  8.397304e-02    4.382990e-06
  8.427197e-02    4.389625e-06
  8.457090e-02    4.387902e-06
  8.486983e-02    4.373694e-06
  8.516876e-02    4.351297e-06
  8.546769e-02    4.353288e-06
  8.576662e-02    4.353242e-06
  8.606555e-02    4.359183e-06
  8.636448e-02    4.341874e-06
  8.666341e-02    4.323716e-06
  8.696234e-02    4.321008e-06
  8.726127e-02    4.305705e-06
  8.756020e-02    4.307154e-06
  8.785913e-02    4.305220e-06
  8.815806e-02    4.300888e-06
  8.845699e-02    4.301670e-06
  8.875592e-02    4.299234e-06
  8.905485e-02    4.287517e-06
  8.935378e-02    4.284887e-06
  8.965271e-02    4.271107e-06
  8.995164e-02    4.247202e-06
  9.025057e-02    4.237510e-06
  9.054950e-02    4.238617e-06
  9.084843e-02    4.238348e-06
  9.114737e-02    4.223307e-06
  9.144630e-02    4.219933e-06
  9.174523e-02    4.224618e-06
  9.204416e-02    4.220860e-06
  9.234309e-02    4.187200e-06
  9.264202e-02    4.179823e-06
  9.294095e-02    4.163987e-06
  9.323988e-02    4.164534e-06
  9.353881e-02    4.166519e-06
  9.383774e-02    4.170083e-06
  9.413667e-02    4.157711e-06
  9.443560e-02    4.146381e-06
  9.473453e-02    4.138327e-06
  9.503346e-02    4.128528e-06
  9.533239e-02    4.134717e-06
  9.563132e-02    4.134829e-06
  9.593025e-02    4.124732e-06
  9.622918e-02    4.120752e-06
  9.652811e-02    4.120729e-06
  9.682704e-02    4.131240e-06
  9.712597e-02    4.128209e-06
  9.742490e-02    4.122913e-06
  9.772383e-02    4.098772e-06
  9.802276e-02    4.078325e-06
  9.832169e-02    4.076082e-06
  9.862062e-02    4.051438e-06
  9.891956e-02    4.041262e-06
  9.921849e-02    4.034988e-06
  9.951742e-02    4.024750e-06
  9.981635e-02    4.016974e-06
  1.001153e-01    4.016365e-06
  1.004142e-01    4.017394e-06
  1.007131e-01    4.006366e-06
  1.010121e-01    3.984032e-06
  1.013110e-01    3.972811e-06
  1.016099e-01    3.965451e-06
  1.019089e-01    3.960553e-06
  1.022078e-01    3.945700e-06
  1.025067e-01    3.945738e-06
  1.028057e-01    3.951221e-06
  1.031046e-01    3.932103e-06
  1.034035e-01    3.937719e-06
  1.037024e-01    3.935013e-06
  1.040014e-01    3.918662e-06
  1.043003e-01    3.907300e-06
  1.045992e-01    3.910337e-06
  1.048982e-01    3.905225e-06
  1.051971e-01    3.879968e-06
  1.054960e-01    3.857733e-06
  1.057950e-01    3.865554e-06
  1.060939e-01    3.859703e-06
  1.063928e-01    3.836609e-06
  1.066917e-01    3.842501e-06
  1.069907e-01    3.829203e-06
  1.072896e-01    3.818521e-06
  1.075885e-01    3.833404e-06
  1.078875e-01    3.846616e-06
  1.081864e-01    3.834026e-06
  1.084853e-01    3.840056e-06
  1.087843e-01    3.820919e-06
  1.090832e-01    3.817749e-06
  1.093821e-01    3.808191e-06
  1.096810e-01    3.791654e-06
  1.099800e-01    3.782693e-06
  1.102789e-01    3.775478e-06
  1.105778e-01    3.764593e-06
  1.108768e-01    3.743188e-06
  1.111757e-01    3.715918e-06
  1.114746e-01    3.712502e-06
  1.117736e-01    3.710732e-06
  1.120725e-01    3.696865e-06
  1.123714e-01    3.666407e-06
  1.126704e-01    3.645318e-06
  1.129693e-01    3.649393e-06
  1.132682e-01    3.627646e-06
  1.135671e-01    3.619572e-06
  1.138661e-01    3.609942e-06
  1.141650e-01    3.592916e-06
  1.144639e-01    3.601555e-06
  1.147629e-01    3.623147e-06
  1.150618e-01    3.607658e-06
  1.153607e-01    3.612656e-06
  1.156597e-01    3.620312e-06
  1.159586e-01    3.604642e-06
  1.162575e-01    3.579371e-06
  1.165564e-01    3.549593e-06
  1.168554e-01    3.565613e-06
  1.171543e-01    3.549139e-06
  1.174532e-01    3.514794e-06
  1.177522e-01    3.535361e-06
  1.180511e-01    3.567209e-06
  1.183500e-01    3.580239e-06
  1.186490e-01    3.568274e-06
  1.189479e-01    3.546505e-06
  1.192468e-01    3.555092e-06
  1.195458e-01    3.541296e-06
  1.198447e-01    3.471085e-06
  1.201436e-01    3.426896e-06
  1.204425e-01    3.503929e-06
  1.207415e-01    3.390224e-06
  1.210404e-01    3.265352e-06
  1.213393e-01    0.000000e+00
  1.216383e-01    0.000000e+00
  1.219372e-01    0.000000e+00
  1.222361e-01    0.000000e+00
  1.225351e-01    0.000000e+00
  1.228340e-01    0.000000e+00
  1.231329e-01    0.000000e+00
  1.234318e-01    0.000000e+00
  1.237308e-01    0.000000e+00
  1.240297e-01    0.000000e+00
  1.243286e-01    0.000000e+00
  1.246276e-01    0.000000e+00
  1.249265e-01    0.000000e+00
  1.252254e-01    0.000000e+00
  1.255244e-01    0.000000e+00
  1.258233e-01    0.000000e+00
  1.261222e-01    0.000000e+00
  1.264212e-01    0.000000e+00
  1.267201e-01    0.000000e+00
  1.270190e-01    0.000000e+00
  1.273179e-01    0.000000e+00
  1.276169e-01    0.000000e+00
  1.279158e-01    0.000000e+00
  1.282147e-01    0.000000e+00
  1.285137e-01    0.000000e+00
  1.288126e-01    0.000000e+00
  1.291115e-01    0.000000e+00
  1.294105e-01    0.000000e+00
  1.297094e-01    0.000000e+00
  1.300083e-01    0.000000e+00
  1.303072e-01    0.000000e+00
  1.306062e-01    0.000000e+00
  1.309051e-01    0.000000e+00
  1.312040e-01    0.000000e+00
  1.315030e-01    0.000000e+00
  1.318019e-01    0.000000e+00
  1.321008e-01    0.000000e+00
  1.323998e-01    0.000000e+00
  1.326987e-01    0.000000e+00
  1.329976e-01    0.000000e+00
  1.332965e-01    0.000000e+00
  1.335955e-01    0.000000e+00
  1.338944e-01    0.000000e+00
  1.341933e-01    0.000000e+00
  1.344923e-01    0.000000e+00
  1.347912e-01    0.000000e+00
  1.350901e-01    0.000000e+00
  1.353891e-01    0.000000e+00
  1.356880e-01    0.000000e+00
  1.359869e-01    0.000000e+00
  1.362859e-01    0.000000e+00
  1.365848e-01    0.000000e+00
  1.368837e-01    0.000000e+00
  1.371826e-01    0.000000e+00
  1.374816e-01    0.000000e+00
  1.377805e-01    0.000000e+00
  1.380794e-01    0.000000e+00
  1.383784e-01    0.000000e+00
  1.386773e-01    0.000000e+00
  1.389762e-01    0.000000e+00
  1.392752e-01    0.000000e+00
  1.395741e-01    0.000000e+00
  1.398730e-01    0.000000e+00
  1.401719e-01    0.000000e+00
  1.404709e-01    0.000000e+00
  1.407698e-01    0.000000e+00
  1.410687e-01    0.000000e+00
  1.413677e-01    0.000000e+00
  1.416666e-01    0.000000e+00
  1.419655e-01    0.000000e+00
  1.422645e-01    0.000000e+00
  1.425634e-01    0.000000e+00
  1.428623e-01    0.000000e+00
  1.431613e-01    0.000000e+00
  1.434602e-01    0.000000e+00
  1.437591e-01    0.000000e+00
  1.440580e-01    0.000000e+00
  1.443570e-01    0.000000e+00
  1.446559e-01    0.000000e+00
  1.449548e-01    0.000000e+00
  1.452538e-01    0.000000e+00
  1.455527e-01    0.000000e+00
  1.458516e-01    0.000000e+00
  1.461506e-01    0.000000e+00
  1.464495e-01    0.000000e+00
  1.467484e-01    0.000000e+00
  1.470473e-01    0.000000e+00
  1.473463e-01    0.000000e+00
  1.476452e-01    0.000000e+00
  1.479441e-01    0.000000e+00
  1.482431e-01    0.000000e+00
  1.485420e-01    0.000000e+00
  1.488409e-01    0.000000e+00
  1.491399e-01    0.000000e+00
  1.494388e-01    0.000000e+00
  1.497377e-01    0.000000e+00
  1.500367e-01    0.000000e+00
  1.503356e-01    0.000000e+00
  1.506345e-01    0.000000e+00
  1.509334e-01    0.000000e+00
  1.512324e-01    0.000000e+00
  1.515313e-01    0.000000e+00
  1.518302e-01    0.000000e+00
  1.521292e-01    0.000000e+00
  1.524281e-01    0.000000e+00
  1.527270e-01    0.000000e+00
  1.530260e-01    0.000000e+00
  1.533249e-01    0.000000e+00
  1.536238e-01    0.000000e+00
