# == pyFAI calibration ==
# Distance Sample to Detector: 2.266 m
# PONI: 5.659e-02, 4.293e-02 m
# Rotations: 0.000000 0.000000 0.000000 rad
# 
# == Fit2d calibration ==
# Distance Sample-beamCenter: 2266.000 mm
# Center: x=249.594, y=329.012 pix
# Tilt: 0.000 deg  TiltPlanRot: 0.000 deg
# 
# Detector Pilatus 300k	 PixelSize= 1.720e-04, 1.720e-04 m
#    Detector has a mask: True 
#    Detector has a dark current: False 
#    detector has a flat field: False 
# 
# Wavelength: 1.27818e-10 m
# Mask applied: user provided
# Dark current applied: False
# Flat field applied: False
# Polarization factor: None
# Normalization factor: 23581452.6
# --> F127_80.266_NaCl_37.214_limonene_0.000mgml_1_r1d.csv
#        q_A^-1             I 
  4.457554e-03    6.272392e-04
  4.756484e-03    4.941828e-04
  5.055415e-03    3.539364e-04
  5.354345e-03    2.500535e-04
  5.653276e-03    1.950961e-04
  5.952206e-03    3.060932e-04
  6.251136e-03    2.771191e-04
  6.550067e-03    2.391954e-04
  6.848997e-03    2.034805e-04
  7.147927e-03    1.725358e-04
  7.446858e-03    1.479343e-04
  7.745788e-03    1.280638e-04
  8.044719e-03    1.114737e-04
  8.343649e-03    9.802882e-05
  8.642579e-03    8.664214e-05
  8.941510e-03    7.719500e-05
  9.240440e-03    6.894821e-05
  9.539371e-03    6.188991e-05
  9.838301e-03    5.587071e-05
  1.013723e-02    5.070755e-05
  1.043616e-02    4.629470e-05
  1.073509e-02    4.222733e-05
  1.103402e-02    3.888903e-05
  1.133295e-02    3.587535e-05
  1.163188e-02    3.320877e-05
  1.193081e-02    3.098537e-05
  1.222974e-02    2.894036e-05
  1.252867e-02    2.707648e-05
  1.282760e-02    2.536992e-05
  1.312654e-02    2.387206e-05
  1.342547e-02    2.263918e-05
  1.372440e-02    2.141242e-05
  1.402333e-02    2.029165e-05
  1.432226e-02    1.927786e-05
  1.462119e-02    1.843210e-05
  1.492012e-02    1.770532e-05
  1.521905e-02    1.700072e-05
  1.551798e-02    1.628297e-05
  1.581691e-02    1.559472e-05
  1.611584e-02    1.505453e-05
  1.641477e-02    1.452423e-05
  1.671370e-02    1.407458e-05
  1.701263e-02    1.364750e-05
  1.731156e-02    1.319609e-05
  1.761049e-02    1.281858e-05
  1.790942e-02    1.246257e-05
  1.820835e-02    1.213125e-05
  1.850728e-02    1.185623e-05
  1.880621e-02    1.155642e-05
  1.910514e-02    1.121923e-05
  1.940407e-02    1.096750e-05
  1.970300e-02    1.069323e-05
  2.000193e-02    1.047543e-05
  2.030086e-02    1.021571e-05
  2.059979e-02    9.919553e-06
  2.089873e-02    9.750303e-06
  2.119766e-02    9.563285e-06
  2.149659e-02    9.316528e-06
  2.179552e-02    9.062975e-06
  2.209445e-02    8.886046e-06
  2.239338e-02    8.680979e-06
  2.269231e-02    8.495418e-06
  2.299124e-02    8.310571e-06
  2.329017e-02    8.079902e-06
  2.358910e-02    7.873890e-06
  2.388803e-02    7.683182e-06
  2.418696e-02    7.525361e-06
  2.448589e-02    7.320908e-06
  2.478482e-02    7.120831e-06
  2.508375e-02    6.945540e-06
  2.538268e-02    6.781559e-06
  2.568161e-02    6.610976e-06
  2.598054e-02    6.429314e-06
  2.627947e-02    6.274584e-06
  2.657840e-02    6.128863e-06
  2.687733e-02    5.968453e-06
  2.717626e-02    5.779277e-06
  2.747519e-02    5.633855e-06
  2.777412e-02    5.479244e-06
  2.807305e-02    5.375823e-06
  2.837198e-02    5.209995e-06
  2.867092e-02    5.051242e-06
  2.896985e-02    4.924177e-06
  2.926878e-02    4.791194e-06
  2.956771e-02    4.657884e-06
  2.986664e-02    4.532490e-06
  3.016557e-02    4.436847e-06
  3.046450e-02    4.320120e-06
  3.076343e-02    4.216674e-06
  3.106236e-02    4.126879e-06
  3.136129e-02    4.024645e-06
  3.166022e-02    3.935277e-06
  3.195915e-02    3.841521e-06
  3.225808e-02    3.748702e-06
  3.255701e-02    3.648037e-06
  3.285594e-02    3.581237e-06
  3.315487e-02    3.514713e-06
  3.345380e-02    3.464680e-06
  3.375273e-02    3.385255e-06
  3.405166e-02    3.315739e-06
  3.435059e-02    3.256166e-06
  3.464952e-02    3.184793e-06
  3.494845e-02    3.139190e-06
  3.524738e-02    3.093552e-06
  3.554631e-02    3.020587e-06
  3.584524e-02    2.977526e-06
  3.614417e-02    2.939106e-06
  3.644310e-02    2.911789e-06
  3.674204e-02    2.859536e-06
  3.704097e-02    2.835825e-06
  3.733990e-02    2.824726e-06
  3.763883e-02    2.771427e-06
  3.793776e-02    2.717193e-06
  3.823669e-02    2.713185e-06
  3.853562e-02    2.709810e-06
  3.883455e-02    2.660222e-06
  3.913348e-02    2.644815e-06
  3.943241e-02    2.627649e-06
  3.973134e-02    2.611239e-06
  4.003027e-02    2.591495e-06
  4.032920e-02    2.567028e-06
  4.062813e-02    2.544313e-06
  4.092706e-02    2.526014e-06
  4.122599e-02    2.525960e-06
  4.152492e-02    2.527951e-06
  4.182385e-02    2.505318e-06
  4.212278e-02    2.499167e-06
  4.242171e-02    2.498076e-06
  4.272064e-02    2.488780e-06
  4.301957e-02    2.482906e-06
  4.331850e-02    2.476446e-06
  4.361743e-02    2.472091e-06
  4.391636e-02    2.452823e-06
  4.421529e-02    2.440361e-06
  4.451423e-02    2.447452e-06
  4.481316e-02    2.449015e-06
  4.511209e-02    2.428116e-06
  4.541102e-02    2.434044e-06
  4.570995e-02    2.438375e-06
  4.600888e-02    2.433830e-06
  4.630781e-02    2.419913e-06
  4.660674e-02    2.426696e-06
  4.690567e-02    2.439292e-06
  4.720460e-02    2.439019e-06
  4.750353e-02    2.435257e-06
  4.780246e-02    2.449584e-06
  4.810139e-02    2.454140e-06
  4.840032e-02    2.431942e-06
  4.869925e-02    2.424601e-06
  4.899818e-02    2.416035e-06
  4.929711e-02    2.421790e-06
  4.959604e-02    2.428903e-06
  4.989497e-02    2.446795e-06
  5.019390e-02    2.454299e-06
  5.049283e-02    2.456023e-06
  5.079176e-02    2.458369e-06
  5.109069e-02    2.463062e-06
  5.138962e-02    2.484186e-06
  5.168855e-02    2.504846e-06
  5.198748e-02    2.522699e-06
  5.228642e-02    2.511626e-06
  5.258535e-02    2.476676e-06
  5.288428e-02    2.463271e-06
  5.318321e-02    2.473483e-06
  5.348214e-02    2.476039e-06
  5.378107e-02    2.477862e-06
  5.408000e-02    2.479064e-06
  5.437893e-02    2.492962e-06
  5.467786e-02    2.494118e-06
  5.497679e-02    2.479621e-06
  5.527572e-02    2.484793e-06
  5.557465e-02    2.495381e-06
  5.587358e-02    2.481130e-06
  5.617251e-02    2.471859e-06
  5.647144e-02    2.471520e-06
  5.677037e-02    2.488974e-06
  5.706930e-02    2.503892e-06
  5.736823e-02    2.509590e-06
  5.766716e-02    2.505711e-06
  5.796609e-02    2.505565e-06
  5.826502e-02    2.510030e-06
  5.856395e-02    2.496938e-06
  5.886288e-02    2.485543e-06
  5.916181e-02    2.480991e-06
  5.946074e-02    2.498214e-06
  5.975967e-02    2.493892e-06
  6.005861e-02    2.500714e-06
  6.035754e-02    2.506852e-06
  6.065647e-02    2.513661e-06
  6.095540e-02    2.523606e-06
  6.125433e-02    2.536848e-06
  6.155326e-02    2.542936e-06
  6.185219e-02    2.533575e-06
  6.215112e-02    2.521021e-06
  6.245005e-02    2.514628e-06
  6.274898e-02    2.512105e-06
  6.304791e-02    2.517620e-06
  6.334684e-02    2.515826e-06
  6.364577e-02    2.522176e-06
  6.394470e-02    2.529515e-06
  6.424363e-02    2.523896e-06
  6.454256e-02    2.512419e-06
  6.484149e-02    2.514581e-06
  6.514042e-02    2.516673e-06
  6.543935e-02    2.519828e-06
  6.573828e-02    2.520058e-06
  6.603721e-02    2.523029e-06
  6.633614e-02    2.522121e-06
  6.663507e-02    2.527674e-06
  6.693400e-02    2.527751e-06
  6.723293e-02    2.528676e-06
  6.753186e-02    2.519276e-06
  6.783080e-02    2.508102e-06
  6.812973e-02    2.517819e-06
  6.842866e-02    2.507030e-06
  6.872759e-02    2.517860e-06
  6.902652e-02    2.519048e-06
  6.932545e-02    2.524140e-06
  6.962438e-02    2.526290e-06
  6.992331e-02    2.512653e-06
  7.022224e-02    2.516510e-06
  7.052117e-02    2.517235e-06
  7.082010e-02    2.512816e-06
  7.111903e-02    2.521168e-06
  7.141796e-02    2.529028e-06
  7.171689e-02    2.531201e-06
  7.201582e-02    2.530472e-06
  7.231475e-02    2.522329e-06
  7.261368e-02    2.514617e-06
  7.291261e-02    2.514241e-06
  7.321154e-02    2.512556e-06
  7.351047e-02    2.530378e-06
  7.380940e-02    2.529047e-06
  7.410833e-02    2.518691e-06
  7.440726e-02    2.510767e-06
  7.470619e-02    2.507451e-06
  7.500512e-02    2.522656e-06
  7.530405e-02    2.516711e-06
  7.560299e-02    2.502185e-06
  7.590192e-02    2.507435e-06
  7.620085e-02    2.517604e-06
  7.649978e-02    2.511672e-06
  7.679871e-02    2.495321e-06
  7.709764e-02    2.493743e-06
  7.739657e-02    2.509977e-06
  7.769550e-02    2.508799e-06
  7.799443e-02    2.501787e-06
  7.829336e-02    2.498459e-06
  7.859229e-02    2.495413e-06
  7.889122e-02    2.490109e-06
  7.919015e-02    2.505499e-06
  7.948908e-02    2.512126e-06
  7.978801e-02    2.495940e-06
  8.008694e-02    2.484148e-06
  8.038587e-02    2.480580e-06
  8.068480e-02    2.481107e-06
  8.098373e-02    2.481210e-06
  8.128266e-02    2.474587e-06
  8.158159e-02    2.477532e-06
  8.188052e-02    2.473146e-06
  8.217945e-02    2.480374e-06
  8.247838e-02    2.471810e-06
  8.277731e-02    2.465993e-06
  8.307624e-02    2.468187e-06
  8.337518e-02    2.464300e-06
  8.367411e-02    2.446943e-06
  8.397304e-02    2.439446e-06
  8.427197e-02    2.448939e-06
  8.457090e-02    2.443069e-06
  8.486983e-02    2.445791e-06
  8.516876e-02    2.439856e-06
  8.546769e-02    2.450065e-06
  8.576662e-02    2.439234e-06
  8.606555e-02    2.433505e-06
  8.636448e-02    2.439946e-06
  8.666341e-02    2.429019e-06
  8.696234e-02    2.424737e-06
  8.726127e-02    2.408432e-06
  8.756020e-02    2.409246e-06
  8.785913e-02    2.403533e-06
  8.815806e-02    2.404827e-06
  8.845699e-02    2.404797e-06
  8.875592e-02    2.396073e-06
  8.905485e-02    2.399152e-06
  8.935378e-02    2.406068e-06
  8.965271e-02    2.398824e-06
  8.995164e-02    2.386904e-06
  9.025057e-02    2.381576e-06
  9.054950e-02    2.393224e-06
  9.084843e-02    2.388445e-06
  9.114737e-02    2.390829e-06
  9.144630e-02    2.385337e-06
  9.174523e-02    2.383421e-06
  9.204416e-02    2.367995e-06
  9.234309e-02    2.366583e-06
  9.264202e-02    2.361264e-06
  9.294095e-02    2.349632e-06
  9.323988e-02    2.360187e-06
  9.353881e-02    2.364075e-06
  9.383774e-02    2.356212e-06
  9.413667e-02    2.348705e-06
  9.443560e-02    2.343219e-06
  9.473453e-02    2.348234e-06
  9.503346e-02    2.348312e-06
  9.533239e-02    2.350816e-06
  9.563132e-02    2.350193e-06
  9.593025e-02    2.344360e-06
  9.622918e-02    2.344544e-06
  9.652811e-02    2.351109e-06
  9.682704e-02    2.348543e-06
  9.712597e-02    2.346621e-06
  9.742490e-02    2.335707e-06
  9.772383e-02    2.334138e-06
  9.802276e-02    2.331940e-06
  9.832169e-02    2.316598e-06
  9.862062e-02    2.318543e-06
  9.891956e-02    2.320477e-06
  9.921849e-02    2.315050e-06
  9.951742e-02    2.312443e-06
  9.981635e-02    2.303343e-06
  1.001153e-01    2.299647e-06
  1.004142e-01    2.301002e-06
  1.007131e-01    2.297907e-06
  1.010121e-01    2.294454e-06
  1.013110e-01    2.296119e-06
  1.016099e-01    2.293369e-06
  1.019089e-01    2.285978e-06
  1.022078e-01    2.272627e-06
  1.025067e-01    2.270041e-06
  1.028057e-01    2.281520e-06
  1.031046e-01    2.286183e-06
  1.034035e-01    2.279623e-06
  1.037024e-01    2.267788e-06
  1.040014e-01    2.274076e-06
  1.043003e-01    2.270086e-06
  1.045992e-01    2.258036e-06
  1.048982e-01    2.261227e-06
  1.051971e-01    2.263952e-06
  1.054960e-01    2.245617e-06
  1.057950e-01    2.238448e-06
  1.060939e-01    2.257988e-06
  1.063928e-01    2.255085e-06
  1.066917e-01    2.246100e-06
  1.069907e-01    2.238994e-06
  1.072896e-01    2.238867e-06
  1.075885e-01    2.239154e-06
  1.078875e-01    2.229919e-06
  1.081864e-01    2.231511e-06
  1.084853e-01    2.242004e-06
  1.087843e-01    2.243749e-06
  1.090832e-01    2.223556e-06
  1.093821e-01    2.219833e-06
  1.096810e-01    2.212674e-06
  1.099800e-01    2.203350e-06
  1.102789e-01    2.201861e-06
  1.105778e-01    2.196931e-06
  1.108768e-01    2.191816e-06
  1.111757e-01    2.180802e-06
  1.114746e-01    2.168617e-06
  1.117736e-01    2.164094e-06
  1.120725e-01    2.173473e-06
  1.123714e-01    2.152404e-06
  1.126704e-01    2.130797e-06
  1.129693e-01    2.122802e-06
  1.132682e-01    2.103172e-06
  1.135671e-01    2.079789e-06
  1.138661e-01    2.084131e-06
  1.141650e-01    2.080750e-06
  1.144639e-01    2.076677e-06
  1.147629e-01    2.081938e-06
  1.150618e-01    2.080902e-06
  1.153607e-01    2.078546e-06
  1.156597e-01    2.068025e-06
  1.159586e-01    2.053642e-06
  1.162575e-01    2.042395e-06
  1.165564e-01    2.041609e-06
  1.168554e-01    2.059668e-06
  1.171543e-01    2.063984e-06
  1.174532e-01    2.038580e-06
  1.177522e-01    2.056721e-06
  1.180511e-01    2.070833e-06
  1.183500e-01    2.058620e-06
  1.186490e-01    2.046863e-06
  1.189479e-01    2.053140e-06
  1.192468e-01    2.052553e-06
  1.195458e-01    2.031060e-06
  1.198447e-01    2.033391e-06
  1.201436e-01    2.048760e-06
  1.204425e-01    1.963115e-06
  1.207415e-01    1.983592e-06
  1.210404e-01    2.122231e-06
  1.213393e-01    0.000000e+00
  1.216383e-01    0.000000e+00
  1.219372e-01    0.000000e+00
  1.222361e-01    0.000000e+00
  1.225351e-01    0.000000e+00
  1.228340e-01    0.000000e+00
  1.231329e-01    0.000000e+00
  1.234318e-01    0.000000e+00
  1.237308e-01    0.000000e+00
  1.240297e-01    0.000000e+00
  1.243286e-01    0.000000e+00
  1.246276e-01    0.000000e+00
  1.249265e-01    0.000000e+00
  1.252254e-01    0.000000e+00
  1.255244e-01    0.000000e+00
  1.258233e-01    0.000000e+00
  1.261222e-01    0.000000e+00
  1.264212e-01    0.000000e+00
  1.267201e-01    0.000000e+00
  1.270190e-01    0.000000e+00
  1.273179e-01    0.000000e+00
  1.276169e-01    0.000000e+00
  1.279158e-01    0.000000e+00
  1.282147e-01    0.000000e+00
  1.285137e-01    0.000000e+00
  1.288126e-01    0.000000e+00
  1.291115e-01    0.000000e+00
  1.294105e-01    0.000000e+00
  1.297094e-01    0.000000e+00
  1.300083e-01    0.000000e+00
  1.303072e-01    0.000000e+00
  1.306062e-01    0.000000e+00
  1.309051e-01    0.000000e+00
  1.312040e-01    0.000000e+00
  1.315030e-01    0.000000e+00
  1.318019e-01    0.000000e+00
  1.321008e-01    0.000000e+00
  1.323998e-01    0.000000e+00
  1.326987e-01    0.000000e+00
  1.329976e-01    0.000000e+00
  1.332965e-01    0.000000e+00
  1.335955e-01    0.000000e+00
  1.338944e-01    0.000000e+00
  1.341933e-01    0.000000e+00
  1.344923e-01    0.000000e+00
  1.347912e-01    0.000000e+00
  1.350901e-01    0.000000e+00
  1.353891e-01    0.000000e+00
  1.356880e-01    0.000000e+00
  1.359869e-01    0.000000e+00
  1.362859e-01    0.000000e+00
  1.365848e-01    0.000000e+00
  1.368837e-01    0.000000e+00
  1.371826e-01    0.000000e+00
  1.374816e-01    0.000000e+00
  1.377805e-01    0.000000e+00
  1.380794e-01    0.000000e+00
  1.383784e-01    0.000000e+00
  1.386773e-01    0.000000e+00
  1.389762e-01    0.000000e+00
  1.392752e-01    0.000000e+00
  1.395741e-01    0.000000e+00
  1.398730e-01    0.000000e+00
  1.401719e-01    0.000000e+00
  1.404709e-01    0.000000e+00
  1.407698e-01    0.000000e+00
  1.410687e-01    0.000000e+00
  1.413677e-01    0.000000e+00
  1.416666e-01    0.000000e+00
  1.419655e-01    0.000000e+00
  1.422645e-01    0.000000e+00
  1.425634e-01    0.000000e+00
  1.428623e-01    0.000000e+00
  1.431613e-01    0.000000e+00
  1.434602e-01    0.000000e+00
  1.437591e-01    0.000000e+00
  1.440580e-01    0.000000e+00
  1.443570e-01    0.000000e+00
  1.446559e-01    0.000000e+00
  1.449548e-01    0.000000e+00
  1.452538e-01    0.000000e+00
  1.455527e-01    0.000000e+00
  1.458516e-01    0.000000e+00
  1.461506e-01    0.000000e+00
  1.464495e-01    0.000000e+00
  1.467484e-01    0.000000e+00
  1.470473e-01    0.000000e+00
  1.473463e-01    0.000000e+00
  1.476452e-01    0.000000e+00
  1.479441e-01    0.000000e+00
  1.482431e-01    0.000000e+00
  1.485420e-01    0.000000e+00
  1.488409e-01    0.000000e+00
  1.491399e-01    0.000000e+00
  1.494388e-01    0.000000e+00
  1.497377e-01    0.000000e+00
  1.500367e-01    0.000000e+00
  1.503356e-01    0.000000e+00
  1.506345e-01    0.000000e+00
  1.509334e-01    0.000000e+00
  1.512324e-01    0.000000e+00
  1.515313e-01    0.000000e+00
  1.518302e-01    0.000000e+00
  1.521292e-01    0.000000e+00
  1.524281e-01    0.000000e+00
  1.527270e-01    0.000000e+00
  1.530260e-01    0.000000e+00
  1.533249e-01    0.000000e+00
  1.536238e-01    0.000000e+00
