# == pyFAI calibration ==
# Distance Sample to Detector: 2.266 m
# PONI: 5.659e-02, 4.293e-02 m
# Rotations: 0.000000 0.000000 0.000000 rad
# 
# == Fit2d calibration ==
# Distance Sample-beamCenter: 2266.000 mm
# Center: x=249.594, y=329.012 pix
# Tilt: 0.000 deg  TiltPlanRot: 0.000 deg
# 
# Detector Pilatus 300k	 PixelSize= 1.720e-04, 1.720e-04 m
#    Detector has a mask: True 
#    Detector has a dark current: False 
#    detector has a flat field: False 
# 
# Wavelength: 1.27818e-10 m
# Mask applied: user provided
# Dark current applied: False
# Flat field applied: False
# Polarization factor: None
# Normalization factor: 12713406.8
# --> F127_96.849_NaCl_106.533_limonene_96.849mgml_0_r1d.csv
#        q_A^-1             I 
  4.457554e-03    2.767032e-04
  4.756484e-03    2.149874e-04
  5.055415e-03    1.510278e-04
  5.354345e-03    1.027602e-04
  5.653276e-03    7.555698e-05
  5.952206e-03    1.150590e-04
  6.251136e-03    1.051463e-04
  6.550067e-03    9.221411e-05
  6.848997e-03    7.913548e-05
  7.147927e-03    6.692435e-05
  7.446858e-03    5.698021e-05
  7.745788e-03    4.901919e-05
  8.044719e-03    4.251415e-05
  8.343649e-03    3.695264e-05
  8.642579e-03    3.260771e-05
  8.941510e-03    2.884235e-05
  9.240440e-03    2.553337e-05
  9.539371e-03    2.272716e-05
  9.838301e-03    2.036063e-05
  1.013723e-02    1.832027e-05
  1.043616e-02    1.642910e-05
  1.073509e-02    1.481775e-05
  1.103402e-02    1.355676e-05
  1.133295e-02    1.238667e-05
  1.163188e-02    1.139030e-05
  1.193081e-02    1.051306e-05
  1.222974e-02    9.677688e-06
  1.252867e-02    8.925176e-06
  1.282760e-02    8.303623e-06
  1.312654e-02    7.709721e-06
  1.342547e-02    7.169688e-06
  1.372440e-02    6.615246e-06
  1.402333e-02    6.182513e-06
  1.432226e-02    5.862366e-06
  1.462119e-02    5.483588e-06
  1.492012e-02    5.188887e-06
  1.521905e-02    4.903443e-06
  1.551798e-02    4.634726e-06
  1.581691e-02    4.437979e-06
  1.611584e-02    4.225351e-06
  1.641477e-02    3.975146e-06
  1.671370e-02    3.785474e-06
  1.701263e-02    3.615735e-06
  1.731156e-02    3.482706e-06
  1.761049e-02    3.380061e-06
  1.790942e-02    3.265399e-06
  1.820835e-02    3.160996e-06
  1.850728e-02    3.043304e-06
  1.880621e-02    2.980431e-06
  1.910514e-02    2.919899e-06
  1.940407e-02    2.810143e-06
  1.970300e-02    2.744925e-06
  2.000193e-02    2.698624e-06
  2.030086e-02    2.672448e-06
  2.059979e-02    2.668443e-06
  2.089873e-02    2.676948e-06
  2.119766e-02    2.668979e-06
  2.149659e-02    2.685682e-06
  2.179552e-02    2.706553e-06
  2.209445e-02    2.724871e-06
  2.239338e-02    2.764253e-06
  2.269231e-02    2.768001e-06
  2.299124e-02    2.806755e-06
  2.329017e-02    2.852652e-06
  2.358910e-02    2.890660e-06
  2.388803e-02    2.941238e-06
  2.418696e-02    3.000180e-06
  2.448589e-02    3.047460e-06
  2.478482e-02    3.082610e-06
  2.508375e-02    3.113318e-06
  2.538268e-02    3.167890e-06
  2.568161e-02    3.204730e-06
  2.598054e-02    3.184149e-06
  2.627947e-02    3.197876e-06
  2.657840e-02    3.175012e-06
  2.687733e-02    3.145621e-06
  2.717626e-02    3.153114e-06
  2.747519e-02    3.122996e-06
  2.777412e-02    3.094535e-06
  2.807305e-02    3.088582e-06
  2.837198e-02    3.070865e-06
  2.867092e-02    3.027133e-06
  2.896985e-02    2.986422e-06
  2.926878e-02    2.966992e-06
  2.956771e-02    2.917903e-06
  2.986664e-02    2.868902e-06
  3.016557e-02    2.843010e-06
  3.046450e-02    2.798612e-06
  3.076343e-02    2.796852e-06
  3.106236e-02    2.755478e-06
  3.136129e-02    2.716591e-06
  3.166022e-02    2.711116e-06
  3.195915e-02    2.682755e-06
  3.225808e-02    2.676005e-06
  3.255701e-02    2.630247e-06
  3.285594e-02    2.597741e-06
  3.315487e-02    2.611006e-06
  3.345380e-02    2.624322e-06
  3.375273e-02    2.579684e-06
  3.405166e-02    2.557774e-06
  3.435059e-02    2.560341e-06
  3.464952e-02    2.547389e-06
  3.494845e-02    2.576062e-06
  3.524738e-02    2.552181e-06
  3.554631e-02    2.512343e-06
  3.584524e-02    2.512758e-06
  3.614417e-02    2.513400e-06
  3.644310e-02    2.504448e-06
  3.674204e-02    2.496930e-06
  3.704097e-02    2.496456e-06
  3.733990e-02    2.508599e-06
  3.763883e-02    2.514408e-06
  3.793776e-02    2.504903e-06
  3.823669e-02    2.514503e-06
  3.853562e-02    2.510604e-06
  3.883455e-02    2.545329e-06
  3.913348e-02    2.534643e-06
  3.943241e-02    2.531607e-06
  3.973134e-02    2.542112e-06
  4.003027e-02    2.545051e-06
  4.032920e-02    2.568985e-06
  4.062813e-02    2.567471e-06
  4.092706e-02    2.576482e-06
  4.122599e-02    2.595819e-06
  4.152492e-02    2.599385e-06
  4.182385e-02    2.608762e-06
  4.212278e-02    2.630168e-06
  4.242171e-02    2.656179e-06
  4.272064e-02    2.652953e-06
  4.301957e-02    2.652155e-06
  4.331850e-02    2.663421e-06
  4.361743e-02    2.689002e-06
  4.391636e-02    2.695528e-06
  4.421529e-02    2.687231e-06
  4.451423e-02    2.686457e-06
  4.481316e-02    2.690009e-06
  4.511209e-02    2.689833e-06
  4.541102e-02    2.695230e-06
  4.570995e-02    2.702626e-06
  4.600888e-02    2.692158e-06
  4.630781e-02    2.705064e-06
  4.660674e-02    2.690615e-06
  4.690567e-02    2.675656e-06
  4.720460e-02    2.663339e-06
  4.750353e-02    2.663547e-06
  4.780246e-02    2.622591e-06
  4.810139e-02    2.603124e-06
  4.840032e-02    2.581848e-06
  4.869925e-02    2.566282e-06
  4.899818e-02    2.555543e-06
  4.929711e-02    2.519947e-06
  4.959604e-02    2.502768e-06
  4.989497e-02    2.488610e-06
  5.019390e-02    2.462210e-06
  5.049283e-02    2.446608e-06
  5.079176e-02    2.430552e-06
  5.109069e-02    2.386018e-06
  5.138962e-02    2.355207e-06
  5.168855e-02    2.343021e-06
  5.198748e-02    2.335202e-06
  5.228642e-02    2.286584e-06
  5.258535e-02    2.222612e-06
  5.288428e-02    2.189777e-06
  5.318321e-02    2.170194e-06
  5.348214e-02    2.147210e-06
  5.378107e-02    2.117019e-06
  5.408000e-02    2.082647e-06
  5.437893e-02    2.065625e-06
  5.467786e-02    2.040000e-06
  5.497679e-02    2.011337e-06
  5.527572e-02    1.977373e-06
  5.557465e-02    1.963008e-06
  5.587358e-02    1.939619e-06
  5.617251e-02    1.902812e-06
  5.647144e-02    1.881691e-06
  5.677037e-02    1.848914e-06
  5.706930e-02    1.832561e-06
  5.736823e-02    1.785192e-06
  5.766716e-02    1.757663e-06
  5.796609e-02    1.755721e-06
  5.826502e-02    1.736937e-06
  5.856395e-02    1.706446e-06
  5.886288e-02    1.687138e-06
  5.916181e-02    1.682076e-06
  5.946074e-02    1.656875e-06
  5.975967e-02    1.635160e-06
  6.005861e-02    1.617519e-06
  6.035754e-02    1.583057e-06
  6.065647e-02    1.583691e-06
  6.095540e-02    1.581308e-06
  6.125433e-02    1.563208e-06
  6.155326e-02    1.555358e-06
  6.185219e-02    1.528744e-06
  6.215112e-02    1.509420e-06
  6.245005e-02    1.488232e-06
  6.274898e-02    1.461845e-06
  6.304791e-02    1.436039e-06
  6.334684e-02    1.435772e-06
  6.364577e-02    1.414839e-06
  6.394470e-02    1.403404e-06
  6.424363e-02    1.401915e-06
  6.454256e-02    1.383389e-06
  6.484149e-02    1.374722e-06
  6.514042e-02    1.381107e-06
  6.543935e-02    1.365239e-06
  6.573828e-02    1.346309e-06
  6.603721e-02    1.346363e-06
  6.633614e-02    1.322996e-06
  6.663507e-02    1.327974e-06
  6.693400e-02    1.317222e-06
  6.723293e-02    1.291020e-06
  6.753186e-02    1.292512e-06
  6.783080e-02    1.287992e-06
  6.812973e-02    1.272427e-06
  6.842866e-02    1.265043e-06
  6.872759e-02    1.255238e-06
  6.902652e-02    1.237755e-06
  6.932545e-02    1.236474e-06
  6.962438e-02    1.247874e-06
  6.992331e-02    1.241504e-06
  7.022224e-02    1.219031e-06
  7.052117e-02    1.202209e-06
  7.082010e-02    1.203503e-06
  7.111903e-02    1.197351e-06
  7.141796e-02    1.196570e-06
  7.171689e-02    1.192650e-06
  7.201582e-02    1.193635e-06
  7.231475e-02    1.181919e-06
  7.261368e-02    1.171946e-06
  7.291261e-02    1.172811e-06
  7.321154e-02    1.163343e-06
  7.351047e-02    1.153980e-06
  7.380940e-02    1.154682e-06
  7.410833e-02    1.139286e-06
  7.440726e-02    1.134091e-06
  7.470619e-02    1.136042e-06
  7.500512e-02    1.122545e-06
  7.530405e-02    1.114948e-06
  7.560299e-02    1.117871e-06
  7.590192e-02    1.106902e-06
  7.620085e-02    1.096779e-06
  7.649978e-02    1.094688e-06
  7.679871e-02    1.095275e-06
  7.709764e-02    1.093286e-06
  7.739657e-02    1.090237e-06
  7.769550e-02    1.084457e-06
  7.799443e-02    1.074856e-06
  7.829336e-02    1.066923e-06
  7.859229e-02    1.073657e-06
  7.889122e-02    1.070083e-06
  7.919015e-02    1.072126e-06
  7.948908e-02    1.064322e-06
  7.978801e-02    1.042480e-06
  8.008694e-02    1.045467e-06
  8.038587e-02    1.042711e-06
  8.068480e-02    1.046064e-06
  8.098373e-02    1.037443e-06
  8.128266e-02    1.031695e-06
  8.158159e-02    1.033568e-06
  8.188052e-02    1.038926e-06
  8.217945e-02    1.031157e-06
  8.247838e-02    1.029653e-06
  8.277731e-02    1.037021e-06
  8.307624e-02    1.024117e-06
  8.337518e-02    1.015957e-06
  8.367411e-02    1.015678e-06
  8.397304e-02    1.015392e-06
  8.427197e-02    1.010470e-06
  8.457090e-02    1.014627e-06
  8.486983e-02    1.009823e-06
  8.516876e-02    1.017678e-06
  8.546769e-02    1.018650e-06
  8.576662e-02    1.007151e-06
  8.606555e-02    1.003316e-06
  8.636448e-02    1.004486e-06
  8.666341e-02    9.917966e-07
  8.696234e-02    9.915725e-07
  8.726127e-02    9.996995e-07
  8.756020e-02    9.951212e-07
  8.785913e-02    9.968647e-07
  8.815806e-02    9.951902e-07
  8.845699e-02    9.996536e-07
  8.875592e-02    9.972802e-07
  8.905485e-02    9.910003e-07
  8.935378e-02    9.847024e-07
  8.965271e-02    9.776733e-07
  8.995164e-02    9.768050e-07
  9.025057e-02    9.833493e-07
  9.054950e-02    9.784692e-07
  9.084843e-02    9.755666e-07
  9.114737e-02    9.859506e-07
  9.144630e-02    9.863268e-07
  9.174523e-02    9.841827e-07
  9.204416e-02    9.742569e-07
  9.234309e-02    9.747179e-07
  9.264202e-02    9.707036e-07
  9.294095e-02    9.807038e-07
  9.323988e-02    9.839356e-07
  9.353881e-02    9.791480e-07
  9.383774e-02    9.818383e-07
  9.413667e-02    9.727800e-07
  9.443560e-02    9.695284e-07
  9.473453e-02    9.686401e-07
  9.503346e-02    9.720478e-07
  9.533239e-02    9.841337e-07
  9.563132e-02    9.746515e-07
  9.593025e-02    9.668699e-07
  9.622918e-02    9.690567e-07
  9.652811e-02    9.603419e-07
  9.682704e-02    9.735857e-07
  9.712597e-02    9.857400e-07
  9.742490e-02    9.779753e-07
  9.772383e-02    9.712082e-07
  9.802276e-02    9.704992e-07
  9.832169e-02    9.740360e-07
  9.862062e-02    9.693470e-07
  9.891956e-02    9.602965e-07
  9.921849e-02    9.647143e-07
  9.951742e-02    9.717074e-07
  9.981635e-02    9.686170e-07
  1.001153e-01    9.661354e-07
  1.004142e-01    9.600650e-07
  1.007131e-01    9.523587e-07
  1.010121e-01    9.644060e-07
  1.013110e-01    9.648206e-07
  1.016099e-01    9.597014e-07
  1.019089e-01    9.615010e-07
  1.022078e-01    9.581972e-07
  1.025067e-01    9.671417e-07
  1.028057e-01    9.634688e-07
  1.031046e-01    9.557995e-07
  1.034035e-01    9.582031e-07
  1.037024e-01    9.489580e-07
  1.040014e-01    9.470431e-07
  1.043003e-01    9.581310e-07
  1.045992e-01    9.569089e-07
  1.048982e-01    9.506633e-07
  1.051971e-01    9.321532e-07
  1.054960e-01    9.308706e-07
  1.057950e-01    9.475398e-07
  1.060939e-01    9.529351e-07
  1.063928e-01    9.561605e-07
  1.066917e-01    9.575091e-07
  1.069907e-01    9.524472e-07
  1.072896e-01    9.478134e-07
  1.075885e-01    9.472819e-07
  1.078875e-01    9.501429e-07
  1.081864e-01    9.468794e-07
  1.084853e-01    9.546990e-07
  1.087843e-01    9.624347e-07
  1.090832e-01    9.593898e-07
  1.093821e-01    9.519101e-07
  1.096810e-01    9.462025e-07
  1.099800e-01    9.456227e-07
  1.102789e-01    9.440056e-07
  1.105778e-01    9.453926e-07
  1.108768e-01    9.414811e-07
  1.111757e-01    9.371827e-07
  1.114746e-01    9.293892e-07
  1.117736e-01    9.192584e-07
  1.120725e-01    9.212297e-07
  1.123714e-01    9.247549e-07
  1.126704e-01    9.219876e-07
  1.129693e-01    9.181257e-07
  1.132682e-01    8.972578e-07
  1.135671e-01    8.776838e-07
  1.138661e-01    8.839348e-07
  1.141650e-01    8.895753e-07
  1.144639e-01    8.856407e-07
  1.147629e-01    8.680528e-07
  1.150618e-01    8.537758e-07
  1.153607e-01    8.473275e-07
  1.156597e-01    8.620528e-07
  1.159586e-01    8.720372e-07
  1.162575e-01    8.558740e-07
  1.165564e-01    8.593803e-07
  1.168554e-01    8.814341e-07
  1.171543e-01    8.724653e-07
  1.174532e-01    8.753190e-07
  1.177522e-01    8.785322e-07
  1.180511e-01    8.623119e-07
  1.183500e-01    8.603750e-07
  1.186490e-01    8.673560e-07
  1.189479e-01    8.650119e-07
  1.192468e-01    8.585316e-07
  1.195458e-01    8.536908e-07
  1.198447e-01    8.021278e-07
  1.201436e-01    7.956720e-07
  1.204425e-01    9.190567e-07
  1.207415e-01    8.220347e-07
  1.210404e-01    7.085554e-07
  1.213393e-01    0.000000e+00
  1.216383e-01    0.000000e+00
  1.219372e-01    0.000000e+00
  1.222361e-01    0.000000e+00
  1.225351e-01    0.000000e+00
  1.228340e-01    0.000000e+00
  1.231329e-01    0.000000e+00
  1.234318e-01    0.000000e+00
  1.237308e-01    0.000000e+00
  1.240297e-01    0.000000e+00
  1.243286e-01    0.000000e+00
  1.246276e-01    0.000000e+00
  1.249265e-01    0.000000e+00
  1.252254e-01    0.000000e+00
  1.255244e-01    0.000000e+00
  1.258233e-01    0.000000e+00
  1.261222e-01    0.000000e+00
  1.264212e-01    0.000000e+00
  1.267201e-01    0.000000e+00
  1.270190e-01    0.000000e+00
  1.273179e-01    0.000000e+00
  1.276169e-01    0.000000e+00
  1.279158e-01    0.000000e+00
  1.282147e-01    0.000000e+00
  1.285137e-01    0.000000e+00
  1.288126e-01    0.000000e+00
  1.291115e-01    0.000000e+00
  1.294105e-01    0.000000e+00
  1.297094e-01    0.000000e+00
  1.300083e-01    0.000000e+00
  1.303072e-01    0.000000e+00
  1.306062e-01    0.000000e+00
  1.309051e-01    0.000000e+00
  1.312040e-01    0.000000e+00
  1.315030e-01    0.000000e+00
  1.318019e-01    0.000000e+00
  1.321008e-01    0.000000e+00
  1.323998e-01    0.000000e+00
  1.326987e-01    0.000000e+00
  1.329976e-01    0.000000e+00
  1.332965e-01    0.000000e+00
  1.335955e-01    0.000000e+00
  1.338944e-01    0.000000e+00
  1.341933e-01    0.000000e+00
  1.344923e-01    0.000000e+00
  1.347912e-01    0.000000e+00
  1.350901e-01    0.000000e+00
  1.353891e-01    0.000000e+00
  1.356880e-01    0.000000e+00
  1.359869e-01    0.000000e+00
  1.362859e-01    0.000000e+00
  1.365848e-01    0.000000e+00
  1.368837e-01    0.000000e+00
  1.371826e-01    0.000000e+00
  1.374816e-01    0.000000e+00
  1.377805e-01    0.000000e+00
  1.380794e-01    0.000000e+00
  1.383784e-01    0.000000e+00
  1.386773e-01    0.000000e+00
  1.389762e-01    0.000000e+00
  1.392752e-01    0.000000e+00
  1.395741e-01    0.000000e+00
  1.398730e-01    0.000000e+00
  1.401719e-01    0.000000e+00
  1.404709e-01    0.000000e+00
  1.407698e-01    0.000000e+00
  1.410687e-01    0.000000e+00
  1.413677e-01    0.000000e+00
  1.416666e-01    0.000000e+00
  1.419655e-01    0.000000e+00
  1.422645e-01    0.000000e+00
  1.425634e-01    0.000000e+00
  1.428623e-01    0.000000e+00
  1.431613e-01    0.000000e+00
  1.434602e-01    0.000000e+00
  1.437591e-01    0.000000e+00
  1.440580e-01    0.000000e+00
  1.443570e-01    0.000000e+00
  1.446559e-01    0.000000e+00
  1.449548e-01    0.000000e+00
  1.452538e-01    0.000000e+00
  1.455527e-01    0.000000e+00
  1.458516e-01    0.000000e+00
  1.461506e-01    0.000000e+00
  1.464495e-01    0.000000e+00
  1.467484e-01    0.000000e+00
  1.470473e-01    0.000000e+00
  1.473463e-01    0.000000e+00
  1.476452e-01    0.000000e+00
  1.479441e-01    0.000000e+00
  1.482431e-01    0.000000e+00
  1.485420e-01    0.000000e+00
  1.488409e-01    0.000000e+00
  1.491399e-01    0.000000e+00
  1.494388e-01    0.000000e+00
  1.497377e-01    0.000000e+00
  1.500367e-01    0.000000e+00
  1.503356e-01    0.000000e+00
  1.506345e-01    0.000000e+00
  1.509334e-01    0.000000e+00
  1.512324e-01    0.000000e+00
  1.515313e-01    0.000000e+00
  1.518302e-01    0.000000e+00
  1.521292e-01    0.000000e+00
  1.524281e-01    0.000000e+00
  1.527270e-01    0.000000e+00
  1.530260e-01    0.000000e+00
  1.533249e-01    0.000000e+00
  1.536238e-01    0.000000e+00
