# == pyFAI calibration ==
# Distance Sample to Detector: 2.266 m
# PONI: 5.659e-02, 4.293e-02 m
# Rotations: 0.000000 0.000000 0.000000 rad
# 
# == Fit2d calibration ==
# Distance Sample-beamCenter: 2266.000 mm
# Center: x=249.594, y=329.012 pix
# Tilt: 0.000 deg  TiltPlanRot: 0.000 deg
# 
# Detector Pilatus 300k	 PixelSize= 1.720e-04, 1.720e-04 m
#    Detector has a mask: True 
#    Detector has a dark current: False 
#    detector has a flat field: False 
# 
# Wavelength: 1.27818e-10 m
# Mask applied: user provided
# Dark current applied: False
# Flat field applied: False
# Polarization factor: None
# Normalization factor: 1207562.4000000001
# --> F127_21.891_NaCl_19.702_limonene_0.000mgml_2_r1d.csv
#        q_A^-1             I 
  4.457554e-03    2.717962e-03
  4.756484e-03    2.098548e-03
  5.055415e-03    1.468008e-03
  5.354345e-03    1.007759e-03
  5.653276e-03    7.397229e-04
  5.952206e-03    1.041605e-03
  6.251136e-03    9.472362e-04
  6.550067e-03    8.323748e-04
  6.848997e-03    7.111811e-04
  7.147927e-03    6.036506e-04
  7.446858e-03    5.197159e-04
  7.745788e-03    4.518483e-04
  8.044719e-03    3.926333e-04
  8.343649e-03    3.428272e-04
  8.642579e-03    3.007067e-04
  8.941510e-03    2.674076e-04
  9.240440e-03    2.389629e-04
  9.539371e-03    2.131966e-04
  9.838301e-03    1.905282e-04
  1.013723e-02    1.734555e-04
  1.043616e-02    1.571625e-04
  1.073509e-02    1.430719e-04
  1.103402e-02    1.301166e-04
  1.133295e-02    1.194366e-04
  1.163188e-02    1.111054e-04
  1.193081e-02    1.027518e-04
  1.222974e-02    9.370357e-05
  1.252867e-02    8.661787e-05
  1.282760e-02    8.051137e-05
  1.312654e-02    7.571277e-05
  1.342547e-02    7.114704e-05
  1.372440e-02    6.690391e-05
  1.402333e-02    6.297144e-05
  1.432226e-02    5.928346e-05
  1.462119e-02    5.597374e-05
  1.492012e-02    5.284782e-05
  1.521905e-02    5.048879e-05
  1.551798e-02    4.748067e-05
  1.581691e-02    4.471789e-05
  1.611584e-02    4.285902e-05
  1.641477e-02    4.107677e-05
  1.671370e-02    3.899324e-05
  1.701263e-02    3.750734e-05
  1.731156e-02    3.622748e-05
  1.761049e-02    3.504394e-05
  1.790942e-02    3.338720e-05
  1.820835e-02    3.217130e-05
  1.850728e-02    3.086955e-05
  1.880621e-02    2.962927e-05
  1.910514e-02    2.873778e-05
  1.940407e-02    2.789300e-05
  1.970300e-02    2.677198e-05
  2.000193e-02    2.600985e-05
  2.030086e-02    2.566330e-05
  2.059979e-02    2.479954e-05
  2.089873e-02    2.387482e-05
  2.119766e-02    2.317615e-05
  2.149659e-02    2.246223e-05
  2.179552e-02    2.158037e-05
  2.209445e-02    2.088812e-05
  2.239338e-02    2.052556e-05
  2.269231e-02    1.992642e-05
  2.299124e-02    1.952868e-05
  2.329017e-02    1.900943e-05
  2.358910e-02    1.845750e-05
  2.388803e-02    1.819319e-05
  2.418696e-02    1.796292e-05
  2.448589e-02    1.732853e-05
  2.478482e-02    1.693353e-05
  2.508375e-02    1.671512e-05
  2.538268e-02    1.631207e-05
  2.568161e-02    1.576258e-05
  2.598054e-02    1.557085e-05
  2.627947e-02    1.510420e-05
  2.657840e-02    1.489330e-05
  2.687733e-02    1.472119e-05
  2.717626e-02    1.422819e-05
  2.747519e-02    1.393403e-05
  2.777412e-02    1.388795e-05
  2.807305e-02    1.342640e-05
  2.837198e-02    1.328230e-05
  2.867092e-02    1.303369e-05
  2.896985e-02    1.284969e-05
  2.926878e-02    1.277524e-05
  2.956771e-02    1.240506e-05
  2.986664e-02    1.202980e-05
  3.016557e-02    1.190454e-05
  3.046450e-02    1.176657e-05
  3.076343e-02    1.154671e-05
  3.106236e-02    1.125224e-05
  3.136129e-02    1.134180e-05
  3.166022e-02    1.123921e-05
  3.195915e-02    1.103235e-05
  3.225808e-02    1.087350e-05
  3.255701e-02    1.079215e-05
  3.285594e-02    1.052448e-05
  3.315487e-02    1.054810e-05
  3.345380e-02    1.022551e-05
  3.375273e-02    1.002135e-05
  3.405166e-02    9.985917e-06
  3.435059e-02    9.873005e-06
  3.464952e-02    9.563544e-06
  3.494845e-02    9.521918e-06
  3.524738e-02    9.549569e-06
  3.554631e-02    9.425903e-06
  3.584524e-02    9.304518e-06
  3.614417e-02    9.129375e-06
  3.644310e-02    9.123413e-06
  3.674204e-02    9.001796e-06
  3.704097e-02    8.846758e-06
  3.733990e-02    8.778690e-06
  3.763883e-02    8.537509e-06
  3.793776e-02    8.624231e-06
  3.823669e-02    8.575206e-06
  3.853562e-02    8.438808e-06
  3.883455e-02    8.352269e-06
  3.913348e-02    8.429973e-06
  3.943241e-02    8.406595e-06
  3.973134e-02    8.247902e-06
  4.003027e-02    8.158063e-06
  4.032920e-02    8.158233e-06
  4.062813e-02    8.120109e-06
  4.092706e-02    8.014379e-06
  4.122599e-02    8.065160e-06
  4.152492e-02    8.023618e-06
  4.182385e-02    7.983554e-06
  4.212278e-02    7.917683e-06
  4.242171e-02    7.770219e-06
  4.272064e-02    7.780352e-06
  4.301957e-02    7.752546e-06
  4.331850e-02    7.588234e-06
  4.361743e-02    7.707251e-06
  4.391636e-02    7.777181e-06
  4.421529e-02    7.767994e-06
  4.451423e-02    7.665623e-06
  4.481316e-02    7.601680e-06
  4.511209e-02    7.630398e-06
  4.541102e-02    7.783878e-06
  4.570995e-02    7.568283e-06
  4.600888e-02    7.451419e-06
  4.630781e-02    7.498611e-06
  4.660674e-02    7.498111e-06
  4.690567e-02    7.647677e-06
  4.720460e-02    7.556910e-06
  4.750353e-02    7.495272e-06
  4.780246e-02    7.419741e-06
  4.810139e-02    7.463925e-06
  4.840032e-02    7.521136e-06
  4.869925e-02    7.525423e-06
  4.899818e-02    7.462913e-06
  4.929711e-02    7.384174e-06
  4.959604e-02    7.413811e-06
  4.989497e-02    7.408091e-06
  5.019390e-02    7.418081e-06
  5.049283e-02    7.512032e-06
  5.079176e-02    7.503834e-06
  5.109069e-02    7.532538e-06
  5.138962e-02    7.590333e-06
  5.168855e-02    7.634345e-06
  5.198748e-02    7.797413e-06
  5.228642e-02    7.706158e-06
  5.258535e-02    7.582861e-06
  5.288428e-02    7.411842e-06
  5.318321e-02    7.422803e-06
  5.348214e-02    7.360734e-06
  5.378107e-02    7.236890e-06
  5.408000e-02    7.204879e-06
  5.437893e-02    7.348550e-06
  5.467786e-02    7.299053e-06
  5.497679e-02    7.289048e-06
  5.527572e-02    7.381185e-06
  5.557465e-02    7.395373e-06
  5.587358e-02    7.262879e-06
  5.617251e-02    7.277935e-06
  5.647144e-02    7.350165e-06
  5.677037e-02    7.375523e-06
  5.706930e-02    7.401699e-06
  5.736823e-02    7.399216e-06
  5.766716e-02    7.484866e-06
  5.796609e-02    7.383786e-06
  5.826502e-02    7.290923e-06
  5.856395e-02    7.336150e-06
  5.886288e-02    7.313922e-06
  5.916181e-02    7.303902e-06
  5.946074e-02    7.492487e-06
  5.975967e-02    7.515991e-06
  6.005861e-02    7.442881e-06
  6.035754e-02    7.449932e-06
  6.065647e-02    7.374703e-06
  6.095540e-02    7.453339e-06
  6.125433e-02    7.577428e-06
  6.155326e-02    7.580203e-06
  6.185219e-02    7.467458e-06
  6.215112e-02    7.362001e-06
  6.245005e-02    7.415056e-06
  6.274898e-02    7.399197e-06
  6.304791e-02    7.398555e-06
  6.334684e-02    7.369323e-06
  6.364577e-02    7.352495e-06
  6.394470e-02    7.402643e-06
  6.424363e-02    7.389720e-06
  6.454256e-02    7.406025e-06
  6.484149e-02    7.362641e-06
  6.514042e-02    7.380001e-06
  6.543935e-02    7.366592e-06
  6.573828e-02    7.459297e-06
  6.603721e-02    7.542015e-06
  6.633614e-02    7.412061e-06
  6.663507e-02    7.422147e-06
  6.693400e-02    7.459075e-06
  6.723293e-02    7.333234e-06
  6.753186e-02    7.334697e-06
  6.783080e-02    7.465989e-06
  6.812973e-02    7.381399e-06
  6.842866e-02    7.413436e-06
  6.872759e-02    7.415502e-06
  6.902652e-02    7.450062e-06
  6.932545e-02    7.460781e-06
  6.962438e-02    7.375427e-06
  6.992331e-02    7.423183e-06
  7.022224e-02    7.530991e-06
  7.052117e-02    7.490514e-06
  7.082010e-02    7.405859e-06
  7.111903e-02    7.461338e-06
  7.141796e-02    7.483553e-06
  7.171689e-02    7.397682e-06
  7.201582e-02    7.451887e-06
  7.231475e-02    7.497195e-06
  7.261368e-02    7.602026e-06
  7.291261e-02    7.461450e-06
  7.321154e-02    7.429078e-06
  7.351047e-02    7.567810e-06
  7.380940e-02    7.547686e-06
  7.410833e-02    7.497504e-06
  7.440726e-02    7.503044e-06
  7.470619e-02    7.508579e-06
  7.500512e-02    7.579729e-06
  7.530405e-02    7.569005e-06
  7.560299e-02    7.529105e-06
  7.590192e-02    7.492341e-06
  7.620085e-02    7.426323e-06
  7.649978e-02    7.494055e-06
  7.679871e-02    7.511522e-06
  7.709764e-02    7.470566e-06
  7.739657e-02    7.546348e-06
  7.769550e-02    7.467414e-06
  7.799443e-02    7.470198e-06
  7.829336e-02    7.466500e-06
  7.859229e-02    7.444430e-06
  7.889122e-02    7.373933e-06
  7.919015e-02    7.363824e-06
  7.948908e-02    7.454973e-06
  7.978801e-02    7.485206e-06
  8.008694e-02    7.446414e-06
  8.038587e-02    7.386464e-06
  8.068480e-02    7.399586e-06
  8.098373e-02    7.389137e-06
  8.128266e-02    7.402147e-06
  8.158159e-02    7.337182e-06
  8.188052e-02    7.377157e-06
  8.217945e-02    7.424593e-06
  8.247838e-02    7.428314e-06
  8.277731e-02    7.432463e-06
  8.307624e-02    7.381446e-06
  8.337518e-02    7.345124e-06
  8.367411e-02    7.327051e-06
  8.397304e-02    7.240708e-06
  8.427197e-02    7.313120e-06
  8.457090e-02    7.325491e-06
  8.486983e-02    7.243990e-06
  8.516876e-02    7.223878e-06
  8.546769e-02    7.143773e-06
  8.576662e-02    7.222414e-06
  8.606555e-02    7.261583e-06
  8.636448e-02    7.235043e-06
  8.666341e-02    7.194734e-06
  8.696234e-02    7.176164e-06
  8.726127e-02    7.242933e-06
  8.756020e-02    7.295533e-06
  8.785913e-02    7.226746e-06
  8.815806e-02    7.233104e-06
  8.845699e-02    7.252313e-06
  8.875592e-02    7.264194e-06
  8.905485e-02    7.304562e-06
  8.935378e-02    7.200545e-06
  8.965271e-02    7.122699e-06
  8.995164e-02    7.152514e-06
  9.025057e-02    7.041460e-06
  9.054950e-02    7.074625e-06
  9.084843e-02    7.091493e-06
  9.114737e-02    7.102266e-06
  9.144630e-02    7.205120e-06
  9.174523e-02    7.074112e-06
  9.204416e-02    7.034769e-06
  9.234309e-02    6.990535e-06
  9.264202e-02    6.927083e-06
  9.294095e-02    6.986857e-06
  9.323988e-02    6.986191e-06
  9.353881e-02    6.958883e-06
  9.383774e-02    6.975858e-06
  9.413667e-02    6.930365e-06
  9.443560e-02    6.998316e-06
  9.473453e-02    6.978599e-06
  9.503346e-02    6.930093e-06
  9.533239e-02    6.844652e-06
  9.563132e-02    6.950334e-06
  9.593025e-02    7.005788e-06
  9.622918e-02    6.950430e-06
  9.652811e-02    6.980266e-06
  9.682704e-02    7.061723e-06
  9.712597e-02    7.104776e-06
  9.742490e-02    7.035637e-06
  9.772383e-02    6.996941e-06
  9.802276e-02    7.056279e-06
  9.832169e-02    7.063564e-06
  9.862062e-02    6.989693e-06
  9.891956e-02    6.957362e-06
  9.921849e-02    6.924635e-06
  9.951742e-02    6.968423e-06
  9.981635e-02    6.948018e-06
  1.001153e-01    6.951261e-06
  1.004142e-01    6.805424e-06
  1.007131e-01    6.799800e-06
  1.010121e-01    6.808346e-06
  1.013110e-01    6.745461e-06
  1.016099e-01    6.781214e-06
  1.019089e-01    6.831700e-06
  1.022078e-01    6.850739e-06
  1.025067e-01    6.786327e-06
  1.028057e-01    6.798250e-06
  1.031046e-01    6.823456e-06
  1.034035e-01    6.875963e-06
  1.037024e-01    6.790657e-06
  1.040014e-01    6.737695e-06
  1.043003e-01    6.753281e-06
  1.045992e-01    6.759868e-06
  1.048982e-01    6.769279e-06
  1.051971e-01    6.764227e-06
  1.054960e-01    6.698482e-06
  1.057950e-01    6.612411e-06
  1.060939e-01    6.553547e-06
  1.063928e-01    6.629447e-06
  1.066917e-01    6.631824e-06
  1.069907e-01    6.559316e-06
  1.072896e-01    6.662870e-06
  1.075885e-01    6.689439e-06
  1.078875e-01    6.771371e-06
  1.081864e-01    6.709316e-06
  1.084853e-01    6.641729e-06
  1.087843e-01    6.709955e-06
  1.090832e-01    6.761895e-06
  1.093821e-01    6.662101e-06
  1.096810e-01    6.583597e-06
  1.099800e-01    6.645428e-06
  1.102789e-01    6.585124e-06
  1.105778e-01    6.575069e-06
  1.108768e-01    6.571751e-06
  1.111757e-01    6.488453e-06
  1.114746e-01    6.473487e-06
  1.117736e-01    6.457266e-06
  1.120725e-01    6.494992e-06
  1.123714e-01    6.389523e-06
  1.126704e-01    6.153190e-06
  1.129693e-01    6.201048e-06
  1.132682e-01    6.178961e-06
  1.135671e-01    6.019257e-06
  1.138661e-01    6.058736e-06
  1.141650e-01    6.111567e-06
  1.144639e-01    6.026707e-06
  1.147629e-01    5.941521e-06
  1.150618e-01    5.894650e-06
  1.153607e-01    5.926626e-06
  1.156597e-01    5.987328e-06
  1.159586e-01    6.006621e-06
  1.162575e-01    6.042485e-06
  1.165564e-01    5.973675e-06
  1.168554e-01    5.839008e-06
  1.171543e-01    5.831856e-06
  1.174532e-01    5.841079e-06
  1.177522e-01    6.044029e-06
  1.180511e-01    6.123161e-06
  1.183500e-01    6.164576e-06
  1.186490e-01    6.073048e-06
  1.189479e-01    5.867164e-06
  1.192468e-01    5.931271e-06
  1.195458e-01    6.004315e-06
  1.198447e-01    6.285295e-06
  1.201436e-01    6.456273e-06
  1.204425e-01    5.673715e-06
  1.207415e-01    5.548078e-06
  1.210404e-01    4.973188e-06
  1.213393e-01    0.000000e+00
  1.216383e-01    0.000000e+00
  1.219372e-01    0.000000e+00
  1.222361e-01    0.000000e+00
  1.225351e-01    0.000000e+00
  1.228340e-01    0.000000e+00
  1.231329e-01    0.000000e+00
  1.234318e-01    0.000000e+00
  1.237308e-01    0.000000e+00
  1.240297e-01    0.000000e+00
  1.243286e-01    0.000000e+00
  1.246276e-01    0.000000e+00
  1.249265e-01    0.000000e+00
  1.252254e-01    0.000000e+00
  1.255244e-01    0.000000e+00
  1.258233e-01    0.000000e+00
  1.261222e-01    0.000000e+00
  1.264212e-01    0.000000e+00
  1.267201e-01    0.000000e+00
  1.270190e-01    0.000000e+00
  1.273179e-01    0.000000e+00
  1.276169e-01    0.000000e+00
  1.279158e-01    0.000000e+00
  1.282147e-01    0.000000e+00
  1.285137e-01    0.000000e+00
  1.288126e-01    0.000000e+00
  1.291115e-01    0.000000e+00
  1.294105e-01    0.000000e+00
  1.297094e-01    0.000000e+00
  1.300083e-01    0.000000e+00
  1.303072e-01    0.000000e+00
  1.306062e-01    0.000000e+00
  1.309051e-01    0.000000e+00
  1.312040e-01    0.000000e+00
  1.315030e-01    0.000000e+00
  1.318019e-01    0.000000e+00
  1.321008e-01    0.000000e+00
  1.323998e-01    0.000000e+00
  1.326987e-01    0.000000e+00
  1.329976e-01    0.000000e+00
  1.332965e-01    0.000000e+00
  1.335955e-01    0.000000e+00
  1.338944e-01    0.000000e+00
  1.341933e-01    0.000000e+00
  1.344923e-01    0.000000e+00
  1.347912e-01    0.000000e+00
  1.350901e-01    0.000000e+00
  1.353891e-01    0.000000e+00
  1.356880e-01    0.000000e+00
  1.359869e-01    0.000000e+00
  1.362859e-01    0.000000e+00
  1.365848e-01    0.000000e+00
  1.368837e-01    0.000000e+00
  1.371826e-01    0.000000e+00
  1.374816e-01    0.000000e+00
  1.377805e-01    0.000000e+00
  1.380794e-01    0.000000e+00
  1.383784e-01    0.000000e+00
  1.386773e-01    0.000000e+00
  1.389762e-01    0.000000e+00
  1.392752e-01    0.000000e+00
  1.395741e-01    0.000000e+00
  1.398730e-01    0.000000e+00
  1.401719e-01    0.000000e+00
  1.404709e-01    0.000000e+00
  1.407698e-01    0.000000e+00
  1.410687e-01    0.000000e+00
  1.413677e-01    0.000000e+00
  1.416666e-01    0.000000e+00
  1.419655e-01    0.000000e+00
  1.422645e-01    0.000000e+00
  1.425634e-01    0.000000e+00
  1.428623e-01    0.000000e+00
  1.431613e-01    0.000000e+00
  1.434602e-01    0.000000e+00
  1.437591e-01    0.000000e+00
  1.440580e-01    0.000000e+00
  1.443570e-01    0.000000e+00
  1.446559e-01    0.000000e+00
  1.449548e-01    0.000000e+00
  1.452538e-01    0.000000e+00
  1.455527e-01    0.000000e+00
  1.458516e-01    0.000000e+00
  1.461506e-01    0.000000e+00
  1.464495e-01    0.000000e+00
  1.467484e-01    0.000000e+00
  1.470473e-01    0.000000e+00
  1.473463e-01    0.000000e+00
  1.476452e-01    0.000000e+00
  1.479441e-01    0.000000e+00
  1.482431e-01    0.000000e+00
  1.485420e-01    0.000000e+00
  1.488409e-01    0.000000e+00
  1.491399e-01    0.000000e+00
  1.494388e-01    0.000000e+00
  1.497377e-01    0.000000e+00
  1.500367e-01    0.000000e+00
  1.503356e-01    0.000000e+00
  1.506345e-01    0.000000e+00
  1.509334e-01    0.000000e+00
  1.512324e-01    0.000000e+00
  1.515313e-01    0.000000e+00
  1.518302e-01    0.000000e+00
  1.521292e-01    0.000000e+00
  1.524281e-01    0.000000e+00
  1.527270e-01    0.000000e+00
  1.530260e-01    0.000000e+00
  1.533249e-01    0.000000e+00
  1.536238e-01    0.000000e+00
