# == pyFAI calibration ==
# Distance Sample to Detector: 2.266 m
# PONI: 5.659e-02, 4.293e-02 m
# Rotations: 0.000000 0.000000 0.000000 rad
# 
# == Fit2d calibration ==
# Distance Sample-beamCenter: 2266.000 mm
# Center: x=249.594, y=329.012 pix
# Tilt: 0.000 deg  TiltPlanRot: 0.000 deg
# 
# Detector Pilatus 300k	 PixelSize= 1.720e-04, 1.720e-04 m
#    Detector has a mask: True 
#    Detector has a dark current: False 
#    detector has a flat field: False 
# 
# Wavelength: 1.27818e-10 m
# Mask applied: user provided
# Dark current applied: False
# Flat field applied: False
# Polarization factor: None
# Normalization factor: 4728023.600000001
# --> F127_115.224_hexanes_57.612_NaCl_17.333mgml_2_r1d.csv
#        q_A^-1             I 
  4.457554e-03    1.859092e-03
  4.756484e-03    1.454227e-03
  5.055415e-03    1.030956e-03
  5.354345e-03    7.164378e-04
  5.653276e-03    5.435832e-04
  5.952206e-03    8.815535e-04
  6.251136e-03    8.051861e-04
  6.550067e-03    7.009682e-04
  6.848997e-03    5.964251e-04
  7.147927e-03    5.051562e-04
  7.446858e-03    4.308006e-04
  7.745788e-03    3.686552e-04
  8.044719e-03    3.167682e-04
  8.343649e-03    2.765923e-04
  8.642579e-03    2.415630e-04
  8.941510e-03    2.123334e-04
  9.240440e-03    1.880628e-04
  9.539371e-03    1.667851e-04
  9.838301e-03    1.481117e-04
  1.013723e-02    1.325649e-04
  1.043616e-02    1.195081e-04
  1.073509e-02    1.073137e-04
  1.103402e-02    9.702141e-05
  1.133295e-02    8.759010e-05
  1.163188e-02    7.947215e-05
  1.193081e-02    7.283394e-05
  1.222974e-02    6.680076e-05
  1.252867e-02    6.136997e-05
  1.282760e-02    5.639929e-05
  1.312654e-02    5.206781e-05
  1.342547e-02    4.793650e-05
  1.372440e-02    4.455611e-05
  1.402333e-02    4.140510e-05
  1.432226e-02    3.841304e-05
  1.462119e-02    3.586587e-05
  1.492012e-02    3.362945e-05
  1.521905e-02    3.137870e-05
  1.551798e-02    2.924013e-05
  1.581691e-02    2.744282e-05
  1.611584e-02    2.595979e-05
  1.641477e-02    2.465958e-05
  1.671370e-02    2.323864e-05
  1.701263e-02    2.185181e-05
  1.731156e-02    2.090498e-05
  1.761049e-02    1.978411e-05
  1.790942e-02    1.881960e-05
  1.820835e-02    1.787926e-05
  1.850728e-02    1.713113e-05
  1.880621e-02    1.632220e-05
  1.910514e-02    1.561646e-05
  1.940407e-02    1.489540e-05
  1.970300e-02    1.424999e-05
  2.000193e-02    1.384123e-05
  2.030086e-02    1.339529e-05
  2.059979e-02    1.291853e-05
  2.089873e-02    1.245988e-05
  2.119766e-02    1.197141e-05
  2.149659e-02    1.159040e-05
  2.179552e-02    1.125652e-05
  2.209445e-02    1.092482e-05
  2.239338e-02    1.057393e-05
  2.269231e-02    1.035083e-05
  2.299124e-02    1.009505e-05
  2.329017e-02    9.817229e-06
  2.358910e-02    9.478548e-06
  2.388803e-02    9.227831e-06
  2.418696e-02    8.965991e-06
  2.448589e-02    8.877804e-06
  2.478482e-02    8.712757e-06
  2.508375e-02    8.544785e-06
  2.538268e-02    8.342409e-06
  2.568161e-02    8.135314e-06
  2.598054e-02    8.060285e-06
  2.627947e-02    7.951162e-06
  2.657840e-02    7.875151e-06
  2.687733e-02    7.743341e-06
  2.717626e-02    7.597888e-06
  2.747519e-02    7.482275e-06
  2.777412e-02    7.381876e-06
  2.807305e-02    7.238059e-06
  2.837198e-02    7.145465e-06
  2.867092e-02    7.052468e-06
  2.896985e-02    6.976925e-06
  2.926878e-02    6.930135e-06
  2.956771e-02    6.862660e-06
  2.986664e-02    6.735470e-06
  3.016557e-02    6.684452e-06
  3.046450e-02    6.660974e-06
  3.076343e-02    6.533929e-06
  3.106236e-02    6.450931e-06
  3.136129e-02    6.404663e-06
  3.166022e-02    6.375923e-06
  3.195915e-02    6.347007e-06
  3.225808e-02    6.289109e-06
  3.255701e-02    6.257712e-06
  3.285594e-02    6.123429e-06
  3.315487e-02    6.056294e-06
  3.345380e-02    6.047479e-06
  3.375273e-02    5.967964e-06
  3.405166e-02    5.903530e-06
  3.435059e-02    5.789259e-06
  3.464952e-02    5.764065e-06
  3.494845e-02    5.739915e-06
  3.524738e-02    5.666485e-06
  3.554631e-02    5.570265e-06
  3.584524e-02    5.514623e-06
  3.614417e-02    5.527743e-06
  3.644310e-02    5.473143e-06
  3.674204e-02    5.341330e-06
  3.704097e-02    5.320749e-06
  3.733990e-02    5.298519e-06
  3.763883e-02    5.279822e-06
  3.793776e-02    5.221315e-06
  3.823669e-02    5.102611e-06
  3.853562e-02    5.075645e-06
  3.883455e-02    5.055413e-06
  3.913348e-02    5.049120e-06
  3.943241e-02    5.045554e-06
  3.973134e-02    4.999227e-06
  4.003027e-02    4.948939e-06
  4.032920e-02    4.924563e-06
  4.062813e-02    4.876302e-06
  4.092706e-02    4.854792e-06
  4.122599e-02    4.865568e-06
  4.152492e-02    4.858851e-06
  4.182385e-02    4.897055e-06
  4.212278e-02    4.843127e-06
  4.242171e-02    4.780555e-06
  4.272064e-02    4.760663e-06
  4.301957e-02    4.709209e-06
  4.331850e-02    4.729522e-06
  4.361743e-02    4.713966e-06
  4.391636e-02    4.688246e-06
  4.421529e-02    4.668730e-06
  4.451423e-02    4.704701e-06
  4.481316e-02    4.724518e-06
  4.511209e-02    4.686189e-06
  4.541102e-02    4.642117e-06
  4.570995e-02    4.641784e-06
  4.600888e-02    4.580378e-06
  4.630781e-02    4.608390e-06
  4.660674e-02    4.619233e-06
  4.690567e-02    4.599171e-06
  4.720460e-02    4.631319e-06
  4.750353e-02    4.651537e-06
  4.780246e-02    4.629390e-06
  4.810139e-02    4.644412e-06
  4.840032e-02    4.674015e-06
  4.869925e-02    4.631277e-06
  4.899818e-02    4.604084e-06
  4.929711e-02    4.573388e-06
  4.959604e-02    4.548553e-06
  4.989497e-02    4.615416e-06
  5.019390e-02    4.608812e-06
  5.049283e-02    4.589600e-06
  5.079176e-02    4.597753e-06
  5.109069e-02    4.624510e-06
  5.138962e-02    4.696539e-06
  5.168855e-02    4.809303e-06
  5.198748e-02    4.906840e-06
  5.228642e-02    4.805111e-06
  5.258535e-02    4.633482e-06
  5.288428e-02    4.608111e-06
  5.318321e-02    4.589774e-06
  5.348214e-02    4.543939e-06
  5.378107e-02    4.544480e-06
  5.408000e-02    4.565612e-06
  5.437893e-02    4.557520e-06
  5.467786e-02    4.540142e-06
  5.497679e-02    4.555627e-06
  5.527572e-02    4.544776e-06
  5.557465e-02    4.514440e-06
  5.587358e-02    4.537423e-06
  5.617251e-02    4.548257e-06
  5.647144e-02    4.557835e-06
  5.677037e-02    4.536055e-06
  5.706930e-02    4.499484e-06
  5.736823e-02    4.532682e-06
  5.766716e-02    4.559746e-06
  5.796609e-02    4.539796e-06
  5.826502e-02    4.525972e-06
  5.856395e-02    4.567535e-06
  5.886288e-02    4.594873e-06
  5.916181e-02    4.547137e-06
  5.946074e-02    4.576148e-06
  5.975967e-02    4.623007e-06
  6.005861e-02    4.600734e-06
  6.035754e-02    4.643215e-06
  6.065647e-02    4.672475e-06
  6.095540e-02    4.693338e-06
  6.125433e-02    4.769594e-06
  6.155326e-02    4.852495e-06
  6.185219e-02    4.755376e-06
  6.215112e-02    4.652663e-06
  6.245005e-02    4.598410e-06
  6.274898e-02    4.631451e-06
  6.304791e-02    4.669642e-06
  6.334684e-02    4.686495e-06
  6.364577e-02    4.686788e-06
  6.394470e-02    4.682429e-06
  6.424363e-02    4.714596e-06
  6.454256e-02    4.700093e-06
  6.484149e-02    4.677375e-06
  6.514042e-02    4.666773e-06
  6.543935e-02    4.684191e-06
  6.573828e-02    4.680151e-06
  6.603721e-02    4.706902e-06
  6.633614e-02    4.720190e-06
  6.663507e-02    4.732296e-06
  6.693400e-02    4.758995e-06
  6.723293e-02    4.766418e-06
  6.753186e-02    4.722514e-06
  6.783080e-02    4.748073e-06
  6.812973e-02    4.787760e-06
  6.842866e-02    4.785100e-06
  6.872759e-02    4.797001e-06
  6.902652e-02    4.778247e-06
  6.932545e-02    4.785110e-06
  6.962438e-02    4.815249e-06
  6.992331e-02    4.823436e-06
  7.022224e-02    4.800105e-06
  7.052117e-02    4.791409e-06
  7.082010e-02    4.828293e-06
  7.111903e-02    4.871313e-06
  7.141796e-02    4.833903e-06
  7.171689e-02    4.853324e-06
  7.201582e-02    4.872252e-06
  7.231475e-02    4.850921e-06
  7.261368e-02    4.843861e-06
  7.291261e-02    4.866890e-06
  7.321154e-02    4.867957e-06
  7.351047e-02    4.902599e-06
  7.380940e-02    4.860948e-06
  7.410833e-02    4.857038e-06
  7.440726e-02    4.897043e-06
  7.470619e-02    4.880815e-06
  7.500512e-02    4.861906e-06
  7.530405e-02    4.878294e-06
  7.560299e-02    4.872599e-06
  7.590192e-02    4.885484e-06
  7.620085e-02    4.856740e-06
  7.649978e-02    4.812964e-06
  7.679871e-02    4.851309e-06
  7.709764e-02    4.870064e-06
  7.739657e-02    4.892785e-06
  7.769550e-02    4.895056e-06
  7.799443e-02    4.858213e-06
  7.829336e-02    4.847883e-06
  7.859229e-02    4.873095e-06
  7.889122e-02    4.865621e-06
  7.919015e-02    4.869907e-06
  7.948908e-02    4.875502e-06
  7.978801e-02    4.850121e-06
  8.008694e-02    4.815697e-06
  8.038587e-02    4.804408e-06
  8.068480e-02    4.814444e-06
  8.098373e-02    4.799275e-06
  8.128266e-02    4.793157e-06
  8.158159e-02    4.814202e-06
  8.188052e-02    4.831167e-06
  8.217945e-02    4.821019e-06
  8.247838e-02    4.774307e-06
  8.277731e-02    4.783510e-06
  8.307624e-02    4.798006e-06
  8.337518e-02    4.767893e-06
  8.367411e-02    4.773201e-06
  8.397304e-02    4.780687e-06
  8.427197e-02    4.758941e-06
  8.457090e-02    4.738608e-06
  8.486983e-02    4.774974e-06
  8.516876e-02    4.771787e-06
  8.546769e-02    4.758041e-06
  8.576662e-02    4.755078e-06
  8.606555e-02    4.723850e-06
  8.636448e-02    4.690299e-06
  8.666341e-02    4.710393e-06
  8.696234e-02    4.732012e-06
  8.726127e-02    4.744069e-06
  8.756020e-02    4.725872e-06
  8.785913e-02    4.672769e-06
  8.815806e-02    4.658519e-06
  8.845699e-02    4.650596e-06
  8.875592e-02    4.655612e-06
  8.905485e-02    4.634969e-06
  8.935378e-02    4.618116e-06
  8.965271e-02    4.617986e-06
  8.995164e-02    4.615532e-06
  9.025057e-02    4.619395e-06
  9.054950e-02    4.597357e-06
  9.084843e-02    4.573948e-06
  9.114737e-02    4.580058e-06
  9.144630e-02    4.593137e-06
  9.174523e-02    4.573987e-06
  9.204416e-02    4.544132e-06
  9.234309e-02    4.513493e-06
  9.264202e-02    4.492311e-06
  9.294095e-02    4.517831e-06
  9.323988e-02    4.550470e-06
  9.353881e-02    4.533733e-06
  9.383774e-02    4.493550e-06
  9.413667e-02    4.464941e-06
  9.443560e-02    4.447587e-06
  9.473453e-02    4.438739e-06
  9.503346e-02    4.450771e-06
  9.533239e-02    4.457016e-06
  9.563132e-02    4.443661e-06
  9.593025e-02    4.466713e-06
  9.622918e-02    4.499787e-06
  9.652811e-02    4.517046e-06
  9.682704e-02    4.518338e-06
  9.712597e-02    4.513414e-06
  9.742490e-02    4.512792e-06
  9.772383e-02    4.470462e-06
  9.802276e-02    4.441295e-06
  9.832169e-02    4.396616e-06
  9.862062e-02    4.381859e-06
  9.891956e-02    4.362567e-06
  9.921849e-02    4.349501e-06
  9.951742e-02    4.314830e-06
  9.981635e-02    4.309602e-06
  1.001153e-01    4.336574e-06
  1.004142e-01    4.313301e-06
  1.007131e-01    4.271172e-06
  1.010121e-01    4.261939e-06
  1.013110e-01    4.293827e-06
  1.016099e-01    4.288243e-06
  1.019089e-01    4.232075e-06
  1.022078e-01    4.213191e-06
  1.025067e-01    4.202090e-06
  1.028057e-01    4.204797e-06
  1.031046e-01    4.214950e-06
  1.034035e-01    4.214822e-06
  1.037024e-01    4.213827e-06
  1.040014e-01    4.175244e-06
  1.043003e-01    4.154441e-06
  1.045992e-01    4.151810e-06
  1.048982e-01    4.187625e-06
  1.051971e-01    4.212718e-06
  1.054960e-01    4.200441e-06
  1.057950e-01    4.186006e-06
  1.060939e-01    4.159307e-06
  1.063928e-01    4.168045e-06
  1.066917e-01    4.157334e-06
  1.069907e-01    4.157152e-06
  1.072896e-01    4.164186e-06
  1.075885e-01    4.140425e-06
  1.078875e-01    4.125902e-06
  1.081864e-01    4.137426e-06
  1.084853e-01    4.115569e-06
  1.087843e-01    4.140546e-06
  1.090832e-01    4.147501e-06
  1.093821e-01    4.116463e-06
  1.096810e-01    4.064520e-06
  1.099800e-01    4.028370e-06
  1.102789e-01    4.056829e-06
  1.105778e-01    4.096105e-06
  1.108768e-01    4.041153e-06
  1.111757e-01    3.991176e-06
  1.114746e-01    3.964928e-06
  1.117736e-01    3.958936e-06
  1.120725e-01    3.956825e-06
  1.123714e-01    3.980176e-06
  1.126704e-01    3.962781e-06
  1.129693e-01    3.970297e-06
  1.132682e-01    3.955829e-06
  1.135671e-01    3.924474e-06
  1.138661e-01    3.903568e-06
  1.141650e-01    3.912504e-06
  1.144639e-01    3.890867e-06
  1.147629e-01    3.908138e-06
  1.150618e-01    3.923318e-06
  1.153607e-01    3.869881e-06
  1.156597e-01    3.898418e-06
  1.159586e-01    3.883938e-06
  1.162575e-01    3.806492e-06
  1.165564e-01    3.765495e-06
  1.168554e-01    3.800251e-06
  1.171543e-01    3.862503e-06
  1.174532e-01    3.890597e-06
  1.177522e-01    3.858138e-06
  1.180511e-01    3.819685e-06
  1.183500e-01    3.762379e-06
  1.186490e-01    3.770754e-06
  1.189479e-01    3.887513e-06
  1.192468e-01    3.847827e-06
  1.195458e-01    3.810980e-06
  1.198447e-01    3.831165e-06
  1.201436e-01    3.708653e-06
  1.204425e-01    3.613398e-06
  1.207415e-01    3.872769e-06
  1.210404e-01    4.445626e-06
  1.213393e-01    0.000000e+00
  1.216383e-01    0.000000e+00
  1.219372e-01    0.000000e+00
  1.222361e-01    0.000000e+00
  1.225351e-01    0.000000e+00
  1.228340e-01    0.000000e+00
  1.231329e-01    0.000000e+00
  1.234318e-01    0.000000e+00
  1.237308e-01    0.000000e+00
  1.240297e-01    0.000000e+00
  1.243286e-01    0.000000e+00
  1.246276e-01    0.000000e+00
  1.249265e-01    0.000000e+00
  1.252254e-01    0.000000e+00
  1.255244e-01    0.000000e+00
  1.258233e-01    0.000000e+00
  1.261222e-01    0.000000e+00
  1.264212e-01    0.000000e+00
  1.267201e-01    0.000000e+00
  1.270190e-01    0.000000e+00
  1.273179e-01    0.000000e+00
  1.276169e-01    0.000000e+00
  1.279158e-01    0.000000e+00
  1.282147e-01    0.000000e+00
  1.285137e-01    0.000000e+00
  1.288126e-01    0.000000e+00
  1.291115e-01    0.000000e+00
  1.294105e-01    0.000000e+00
  1.297094e-01    0.000000e+00
  1.300083e-01    0.000000e+00
  1.303072e-01    0.000000e+00
  1.306062e-01    0.000000e+00
  1.309051e-01    0.000000e+00
  1.312040e-01    0.000000e+00
  1.315030e-01    0.000000e+00
  1.318019e-01    0.000000e+00
  1.321008e-01    0.000000e+00
  1.323998e-01    0.000000e+00
  1.326987e-01    0.000000e+00
  1.329976e-01    0.000000e+00
  1.332965e-01    0.000000e+00
  1.335955e-01    0.000000e+00
  1.338944e-01    0.000000e+00
  1.341933e-01    0.000000e+00
  1.344923e-01    0.000000e+00
  1.347912e-01    0.000000e+00
  1.350901e-01    0.000000e+00
  1.353891e-01    0.000000e+00
  1.356880e-01    0.000000e+00
  1.359869e-01    0.000000e+00
  1.362859e-01    0.000000e+00
  1.365848e-01    0.000000e+00
  1.368837e-01    0.000000e+00
  1.371826e-01    0.000000e+00
  1.374816e-01    0.000000e+00
  1.377805e-01    0.000000e+00
  1.380794e-01    0.000000e+00
  1.383784e-01    0.000000e+00
  1.386773e-01    0.000000e+00
  1.389762e-01    0.000000e+00
  1.392752e-01    0.000000e+00
  1.395741e-01    0.000000e+00
  1.398730e-01    0.000000e+00
  1.401719e-01    0.000000e+00
  1.404709e-01    0.000000e+00
  1.407698e-01    0.000000e+00
  1.410687e-01    0.000000e+00
  1.413677e-01    0.000000e+00
  1.416666e-01    0.000000e+00
  1.419655e-01    0.000000e+00
  1.422645e-01    0.000000e+00
  1.425634e-01    0.000000e+00
  1.428623e-01    0.000000e+00
  1.431613e-01    0.000000e+00
  1.434602e-01    0.000000e+00
  1.437591e-01    0.000000e+00
  1.440580e-01    0.000000e+00
  1.443570e-01    0.000000e+00
  1.446559e-01    0.000000e+00
  1.449548e-01    0.000000e+00
  1.452538e-01    0.000000e+00
  1.455527e-01    0.000000e+00
  1.458516e-01    0.000000e+00
  1.461506e-01    0.000000e+00
  1.464495e-01    0.000000e+00
  1.467484e-01    0.000000e+00
  1.470473e-01    0.000000e+00
  1.473463e-01    0.000000e+00
  1.476452e-01    0.000000e+00
  1.479441e-01    0.000000e+00
  1.482431e-01    0.000000e+00
  1.485420e-01    0.000000e+00
  1.488409e-01    0.000000e+00
  1.491399e-01    0.000000e+00
  1.494388e-01    0.000000e+00
  1.497377e-01    0.000000e+00
  1.500367e-01    0.000000e+00
  1.503356e-01    0.000000e+00
  1.506345e-01    0.000000e+00
  1.509334e-01    0.000000e+00
  1.512324e-01    0.000000e+00
  1.515313e-01    0.000000e+00
  1.518302e-01    0.000000e+00
  1.521292e-01    0.000000e+00
  1.524281e-01    0.000000e+00
  1.527270e-01    0.000000e+00
  1.530260e-01    0.000000e+00
  1.533249e-01    0.000000e+00
  1.536238e-01    0.000000e+00
