# == pyFAI calibration ==
# Distance Sample to Detector: 2.266 m
# PONI: 5.659e-02, 4.293e-02 m
# Rotations: 0.000000 0.000000 0.000000 rad
# 
# == Fit2d calibration ==
# Distance Sample-beamCenter: 2266.000 mm
# Center: x=249.594, y=329.012 pix
# Tilt: 0.000 deg  TiltPlanRot: 0.000 deg
# 
# Detector Pilatus 300k	 PixelSize= 1.720e-04, 1.720e-04 m
#    Detector has a mask: True 
#    Detector has a dark current: False 
#    detector has a flat field: False 
# 
# Wavelength: 1.27818e-10 m
# Mask applied: user provided
# Dark current applied: False
# Flat field applied: False
# Polarization factor: None
# Normalization factor: 3301915.6
# --> F127_136.144_NaCl_93.599_limonene_187.198mgml_1_r1d.csv
#        q_A^-1             I 
  4.457554e-03    3.836670e-03
  4.756484e-03    3.219192e-03
  5.055415e-03    2.526613e-03
  5.354345e-03    1.952280e-03
  5.653276e-03    1.632177e-03
  5.952206e-03    3.575287e-03
  6.251136e-03    3.317660e-03
  6.550067e-03    2.891165e-03
  6.848997e-03    2.452944e-03
  7.147927e-03    2.060311e-03
  7.446858e-03    1.747586e-03
  7.745788e-03    1.487082e-03
  8.044719e-03    1.275622e-03
  8.343649e-03    1.108530e-03
  8.642579e-03    9.670018e-04
  8.941510e-03    8.464546e-04
  9.240440e-03    7.483534e-04
  9.539371e-03    6.621143e-04
  9.838301e-03    5.877624e-04
  1.013723e-02    5.258581e-04
  1.043616e-02    4.711823e-04
  1.073509e-02    4.203081e-04
  1.103402e-02    3.789603e-04
  1.133295e-02    3.433936e-04
  1.163188e-02    3.137748e-04
  1.193081e-02    2.873488e-04
  1.222974e-02    2.634302e-04
  1.252867e-02    2.415945e-04
  1.282760e-02    2.227719e-04
  1.312654e-02    2.056312e-04
  1.342547e-02    1.906123e-04
  1.372440e-02    1.761186e-04
  1.402333e-02    1.640998e-04
  1.432226e-02    1.529985e-04
  1.462119e-02    1.430359e-04
  1.492012e-02    1.342487e-04
  1.521905e-02    1.257762e-04
  1.551798e-02    1.190919e-04
  1.581691e-02    1.123862e-04
  1.611584e-02    1.058882e-04
  1.641477e-02    1.002465e-04
  1.671370e-02    9.476245e-05
  1.701263e-02    9.022607e-05
  1.731156e-02    8.615526e-05
  1.761049e-02    8.235723e-05
  1.790942e-02    7.876201e-05
  1.820835e-02    7.564712e-05
  1.850728e-02    7.327873e-05
  1.880621e-02    7.078908e-05
  1.910514e-02    6.828002e-05
  1.940407e-02    6.611027e-05
  1.970300e-02    6.411785e-05
  2.000193e-02    6.276935e-05
  2.030086e-02    6.144365e-05
  2.059979e-02    6.031923e-05
  2.089873e-02    5.923275e-05
  2.119766e-02    5.823770e-05
  2.149659e-02    5.786111e-05
  2.179552e-02    5.752878e-05
  2.209445e-02    5.693878e-05
  2.239338e-02    5.673839e-05
  2.269231e-02    5.692815e-05
  2.299124e-02    5.743123e-05
  2.329017e-02    5.791505e-05
  2.358910e-02    5.881814e-05
  2.388803e-02    6.004593e-05
  2.418696e-02    6.130577e-05
  2.448589e-02    6.255940e-05
  2.478482e-02    6.403885e-05
  2.508375e-02    6.551413e-05
  2.538268e-02    6.711001e-05
  2.568161e-02    6.843037e-05
  2.598054e-02    6.973789e-05
  2.627947e-02    7.080379e-05
  2.657840e-02    7.203752e-05
  2.687733e-02    7.305043e-05
  2.717626e-02    7.319223e-05
  2.747519e-02    7.325030e-05
  2.777412e-02    7.297492e-05
  2.807305e-02    7.217341e-05
  2.837198e-02    7.124090e-05
  2.867092e-02    7.004374e-05
  2.896985e-02    6.879829e-05
  2.926878e-02    6.703244e-05
  2.956771e-02    6.491815e-05
  2.986664e-02    6.317034e-05
  3.016557e-02    6.131092e-05
  3.046450e-02    5.921342e-05
  3.076343e-02    5.731392e-05
  3.106236e-02    5.526688e-05
  3.136129e-02    5.333064e-05
  3.166022e-02    5.160267e-05
  3.195915e-02    5.009810e-05
  3.225808e-02    4.886121e-05
  3.255701e-02    4.750681e-05
  3.285594e-02    4.617144e-05
  3.315487e-02    4.506843e-05
  3.345380e-02    4.408774e-05
  3.375273e-02    4.298809e-05
  3.405166e-02    4.217925e-05
  3.435059e-02    4.140165e-05
  3.464952e-02    4.067027e-05
  3.494845e-02    4.003701e-05
  3.524738e-02    3.917551e-05
  3.554631e-02    3.838983e-05
  3.584524e-02    3.805219e-05
  3.614417e-02    3.780927e-05
  3.644310e-02    3.722188e-05
  3.674204e-02    3.668255e-05
  3.704097e-02    3.626197e-05
  3.733990e-02    3.600520e-05
  3.763883e-02    3.573612e-05
  3.793776e-02    3.538262e-05
  3.823669e-02    3.529133e-05
  3.853562e-02    3.514421e-05
  3.883455e-02    3.476177e-05
  3.913348e-02    3.447635e-05
  3.943241e-02    3.422934e-05
  3.973134e-02    3.416703e-05
  4.003027e-02    3.413034e-05
  4.032920e-02    3.404604e-05
  4.062813e-02    3.394560e-05
  4.092706e-02    3.383841e-05
  4.122599e-02    3.369850e-05
  4.152492e-02    3.364203e-05
  4.182385e-02    3.355330e-05
  4.212278e-02    3.353226e-05
  4.242171e-02    3.344049e-05
  4.272064e-02    3.360734e-05
  4.301957e-02    3.370190e-05
  4.331850e-02    3.361928e-05
  4.361743e-02    3.379831e-05
  4.391636e-02    3.365620e-05
  4.421529e-02    3.350618e-05
  4.451423e-02    3.340431e-05
  4.481316e-02    3.353388e-05
  4.511209e-02    3.365119e-05
  4.541102e-02    3.364398e-05
  4.570995e-02    3.362120e-05
  4.600888e-02    3.337915e-05
  4.630781e-02    3.332254e-05
  4.660674e-02    3.335529e-05
  4.690567e-02    3.323322e-05
  4.720460e-02    3.324424e-05
  4.750353e-02    3.322458e-05
  4.780246e-02    3.306881e-05
  4.810139e-02    3.293798e-05
  4.840032e-02    3.309196e-05
  4.869925e-02    3.292923e-05
  4.899818e-02    3.277818e-05
  4.929711e-02    3.267396e-05
  4.959604e-02    3.252624e-05
  4.989497e-02    3.228442e-05
  5.019390e-02    3.220439e-05
  5.049283e-02    3.204161e-05
  5.079176e-02    3.176749e-05
  5.109069e-02    3.162612e-05
  5.138962e-02    3.158564e-05
  5.168855e-02    3.128036e-05
  5.198748e-02    3.129731e-05
  5.228642e-02    3.104378e-05
  5.258535e-02    3.060276e-05
  5.288428e-02    3.039292e-05
  5.318321e-02    3.012347e-05
  5.348214e-02    2.994462e-05
  5.378107e-02    2.976706e-05
  5.408000e-02    2.946868e-05
  5.437893e-02    2.917199e-05
  5.467786e-02    2.902467e-05
  5.497679e-02    2.890493e-05
  5.527572e-02    2.855592e-05
  5.557465e-02    2.825341e-05
  5.587358e-02    2.819167e-05
  5.617251e-02    2.794961e-05
  5.647144e-02    2.776796e-05
  5.677037e-02    2.759084e-05
  5.706930e-02    2.725699e-05
  5.736823e-02    2.705943e-05
  5.766716e-02    2.700521e-05
  5.796609e-02    2.679227e-05
  5.826502e-02    2.653728e-05
  5.856395e-02    2.629172e-05
  5.886288e-02    2.616157e-05
  5.916181e-02    2.599179e-05
  5.946074e-02    2.590220e-05
  5.975967e-02    2.589048e-05
  6.005861e-02    2.578036e-05
  6.035754e-02    2.551010e-05
  6.065647e-02    2.530927e-05
  6.095540e-02    2.525206e-05
  6.125433e-02    2.517405e-05
  6.155326e-02    2.502332e-05
  6.185219e-02    2.481124e-05
  6.215112e-02    2.476849e-05
  6.245005e-02    2.459275e-05
  6.274898e-02    2.444894e-05
  6.304791e-02    2.453332e-05
  6.334684e-02    2.445219e-05
  6.364577e-02    2.435569e-05
  6.394470e-02    2.410350e-05
  6.424363e-02    2.405225e-05
  6.454256e-02    2.405561e-05
  6.484149e-02    2.402327e-05
  6.514042e-02    2.391855e-05
  6.543935e-02    2.377540e-05
  6.573828e-02    2.376372e-05
  6.603721e-02    2.375581e-05
  6.633614e-02    2.369370e-05
  6.663507e-02    2.366189e-05
  6.693400e-02    2.361308e-05
  6.723293e-02    2.357621e-05
  6.753186e-02    2.355878e-05
  6.783080e-02    2.337031e-05
  6.812973e-02    2.334154e-05
  6.842866e-02    2.337943e-05
  6.872759e-02    2.334978e-05
  6.902652e-02    2.323561e-05
  6.932545e-02    2.322043e-05
  6.962438e-02    2.326359e-05
  6.992331e-02    2.318903e-05
  7.022224e-02    2.313571e-05
  7.052117e-02    2.302078e-05
  7.082010e-02    2.297207e-05
  7.111903e-02    2.302608e-05
  7.141796e-02    2.295024e-05
  7.171689e-02    2.294901e-05
  7.201582e-02    2.301184e-05
  7.231475e-02    2.297117e-05
  7.261368e-02    2.281556e-05
  7.291261e-02    2.276861e-05
  7.321154e-02    2.279674e-05
  7.351047e-02    2.274326e-05
  7.380940e-02    2.263677e-05
  7.410833e-02    2.260509e-05
  7.440726e-02    2.259519e-05
  7.470619e-02    2.268878e-05
  7.500512e-02    2.257663e-05
  7.530405e-02    2.247059e-05
  7.560299e-02    2.242357e-05
  7.590192e-02    2.241092e-05
  7.620085e-02    2.243524e-05
  7.649978e-02    2.243412e-05
  7.679871e-02    2.239307e-05
  7.709764e-02    2.239497e-05
  7.739657e-02    2.234073e-05
  7.769550e-02    2.232688e-05
  7.799443e-02    2.234008e-05
  7.829336e-02    2.218965e-05
  7.859229e-02    2.228371e-05
  7.889122e-02    2.228473e-05
  7.919015e-02    2.206580e-05
  7.948908e-02    2.213043e-05
  7.978801e-02    2.212748e-05
  8.008694e-02    2.205245e-05
  8.038587e-02    2.200268e-05
  8.068480e-02    2.200888e-05
  8.098373e-02    2.195596e-05
  8.128266e-02    2.198879e-05
  8.158159e-02    2.189331e-05
  8.188052e-02    2.181002e-05
  8.217945e-02    2.181356e-05
  8.247838e-02    2.181101e-05
  8.277731e-02    2.182317e-05
  8.307624e-02    2.176531e-05
  8.337518e-02    2.174715e-05
  8.367411e-02    2.173776e-05
  8.397304e-02    2.168704e-05
  8.427197e-02    2.168142e-05
  8.457090e-02    2.164619e-05
  8.486983e-02    2.157396e-05
  8.516876e-02    2.167360e-05
  8.546769e-02    2.169052e-05
  8.576662e-02    2.160233e-05
  8.606555e-02    2.146954e-05
  8.636448e-02    2.140983e-05
  8.666341e-02    2.139861e-05
  8.696234e-02    2.140263e-05
  8.726127e-02    2.143626e-05
  8.756020e-02    2.129214e-05
  8.785913e-02    2.124747e-05
  8.815806e-02    2.123702e-05
  8.845699e-02    2.122975e-05
  8.875592e-02    2.126434e-05
  8.905485e-02    2.116621e-05
  8.935378e-02    2.121937e-05
  8.965271e-02    2.115032e-05
  8.995164e-02    2.117366e-05
  9.025057e-02    2.120117e-05
  9.054950e-02    2.119004e-05
  9.084843e-02    2.106889e-05
  9.114737e-02    2.105873e-05
  9.144630e-02    2.114536e-05
  9.174523e-02    2.110908e-05
  9.204416e-02    2.100803e-05
  9.234309e-02    2.091126e-05
  9.264202e-02    2.082605e-05
  9.294095e-02    2.086689e-05
  9.323988e-02    2.089438e-05
  9.353881e-02    2.084179e-05
  9.383774e-02    2.082144e-05
  9.413667e-02    2.083363e-05
  9.443560e-02    2.075471e-05
  9.473453e-02    2.070156e-05
  9.503346e-02    2.069773e-05
  9.533239e-02    2.069011e-05
  9.563132e-02    2.063307e-05
  9.593025e-02    2.061871e-05
  9.622918e-02    2.061453e-05
  9.652811e-02    2.058099e-05
  9.682704e-02    2.047762e-05
  9.712597e-02    2.050775e-05
  9.742490e-02    2.049737e-05
  9.772383e-02    2.044613e-05
  9.802276e-02    2.042463e-05
  9.832169e-02    2.044504e-05
  9.862062e-02    2.045593e-05
  9.891956e-02    2.039354e-05
  9.921849e-02    2.038505e-05
  9.951742e-02    2.032227e-05
  9.981635e-02    2.020700e-05
  1.001153e-01    2.020847e-05
  1.004142e-01    2.014629e-05
  1.007131e-01    2.007361e-05
  1.010121e-01    2.010751e-05
  1.013110e-01    2.003010e-05
  1.016099e-01    1.996767e-05
  1.019089e-01    1.996479e-05
  1.022078e-01    1.983530e-05
  1.025067e-01    1.983728e-05
  1.028057e-01    1.980381e-05
  1.031046e-01    1.979209e-05
  1.034035e-01    1.973603e-05
  1.037024e-01    1.977968e-05
  1.040014e-01    1.975482e-05
  1.043003e-01    1.972343e-05
  1.045992e-01    1.974173e-05
  1.048982e-01    1.968908e-05
  1.051971e-01    1.968838e-05
  1.054960e-01    1.946640e-05
  1.057950e-01    1.938295e-05
  1.060939e-01    1.938549e-05
  1.063928e-01    1.930287e-05
  1.066917e-01    1.920392e-05
  1.069907e-01    1.923806e-05
  1.072896e-01    1.922255e-05
  1.075885e-01    1.918750e-05
  1.078875e-01    1.935891e-05
  1.081864e-01    1.932780e-05
  1.084853e-01    1.926873e-05
  1.087843e-01    1.931027e-05
  1.090832e-01    1.924301e-05
  1.093821e-01    1.912784e-05
  1.096810e-01    1.894314e-05
  1.099800e-01    1.891854e-05
  1.102789e-01    1.888178e-05
  1.105778e-01    1.873821e-05
  1.108768e-01    1.863160e-05
  1.111757e-01    1.851759e-05
  1.114746e-01    1.850373e-05
  1.117736e-01    1.844755e-05
  1.120725e-01    1.825595e-05
  1.123714e-01    1.825279e-05
  1.126704e-01    1.822016e-05
  1.129693e-01    1.792477e-05
  1.132682e-01    1.769733e-05
  1.135671e-01    1.765166e-05
  1.138661e-01    1.767645e-05
  1.141650e-01    1.774532e-05
  1.144639e-01    1.773209e-05
  1.147629e-01    1.791123e-05
  1.150618e-01    1.803865e-05
  1.153607e-01    1.791984e-05
  1.156597e-01    1.776417e-05
  1.159586e-01    1.774572e-05
  1.162575e-01    1.771774e-05
  1.165564e-01    1.772658e-05
  1.168554e-01    1.759051e-05
  1.171543e-01    1.738187e-05
  1.174532e-01    1.708919e-05
  1.177522e-01    1.699622e-05
  1.180511e-01    1.687418e-05
  1.183500e-01    1.655689e-05
  1.186490e-01    1.629771e-05
  1.189479e-01    1.642937e-05
  1.192468e-01    1.661897e-05
  1.195458e-01    1.661658e-05
  1.198447e-01    1.643140e-05
  1.201436e-01    1.617506e-05
  1.204425e-01    1.619460e-05
  1.207415e-01    1.658089e-05
  1.210404e-01    2.000650e-05
  1.213393e-01    0.000000e+00
  1.216383e-01    0.000000e+00
  1.219372e-01    0.000000e+00
  1.222361e-01    0.000000e+00
  1.225351e-01    0.000000e+00
  1.228340e-01    0.000000e+00
  1.231329e-01    0.000000e+00
  1.234318e-01    0.000000e+00
  1.237308e-01    0.000000e+00
  1.240297e-01    0.000000e+00
  1.243286e-01    0.000000e+00
  1.246276e-01    0.000000e+00
  1.249265e-01    0.000000e+00
  1.252254e-01    0.000000e+00
  1.255244e-01    0.000000e+00
  1.258233e-01    0.000000e+00
  1.261222e-01    0.000000e+00
  1.264212e-01    0.000000e+00
  1.267201e-01    0.000000e+00
  1.270190e-01    0.000000e+00
  1.273179e-01    0.000000e+00
  1.276169e-01    0.000000e+00
  1.279158e-01    0.000000e+00
  1.282147e-01    0.000000e+00
  1.285137e-01    0.000000e+00
  1.288126e-01    0.000000e+00
  1.291115e-01    0.000000e+00
  1.294105e-01    0.000000e+00
  1.297094e-01    0.000000e+00
  1.300083e-01    0.000000e+00
  1.303072e-01    0.000000e+00
  1.306062e-01    0.000000e+00
  1.309051e-01    0.000000e+00
  1.312040e-01    0.000000e+00
  1.315030e-01    0.000000e+00
  1.318019e-01    0.000000e+00
  1.321008e-01    0.000000e+00
  1.323998e-01    0.000000e+00
  1.326987e-01    0.000000e+00
  1.329976e-01    0.000000e+00
  1.332965e-01    0.000000e+00
  1.335955e-01    0.000000e+00
  1.338944e-01    0.000000e+00
  1.341933e-01    0.000000e+00
  1.344923e-01    0.000000e+00
  1.347912e-01    0.000000e+00
  1.350901e-01    0.000000e+00
  1.353891e-01    0.000000e+00
  1.356880e-01    0.000000e+00
  1.359869e-01    0.000000e+00
  1.362859e-01    0.000000e+00
  1.365848e-01    0.000000e+00
  1.368837e-01    0.000000e+00
  1.371826e-01    0.000000e+00
  1.374816e-01    0.000000e+00
  1.377805e-01    0.000000e+00
  1.380794e-01    0.000000e+00
  1.383784e-01    0.000000e+00
  1.386773e-01    0.000000e+00
  1.389762e-01    0.000000e+00
  1.392752e-01    0.000000e+00
  1.395741e-01    0.000000e+00
  1.398730e-01    0.000000e+00
  1.401719e-01    0.000000e+00
  1.404709e-01    0.000000e+00
  1.407698e-01    0.000000e+00
  1.410687e-01    0.000000e+00
  1.413677e-01    0.000000e+00
  1.416666e-01    0.000000e+00
  1.419655e-01    0.000000e+00
  1.422645e-01    0.000000e+00
  1.425634e-01    0.000000e+00
  1.428623e-01    0.000000e+00
  1.431613e-01    0.000000e+00
  1.434602e-01    0.000000e+00
  1.437591e-01    0.000000e+00
  1.440580e-01    0.000000e+00
  1.443570e-01    0.000000e+00
  1.446559e-01    0.000000e+00
  1.449548e-01    0.000000e+00
  1.452538e-01    0.000000e+00
  1.455527e-01    0.000000e+00
  1.458516e-01    0.000000e+00
  1.461506e-01    0.000000e+00
  1.464495e-01    0.000000e+00
  1.467484e-01    0.000000e+00
  1.470473e-01    0.000000e+00
  1.473463e-01    0.000000e+00
  1.476452e-01    0.000000e+00
  1.479441e-01    0.000000e+00
  1.482431e-01    0.000000e+00
  1.485420e-01    0.000000e+00
  1.488409e-01    0.000000e+00
  1.491399e-01    0.000000e+00
  1.494388e-01    0.000000e+00
  1.497377e-01    0.000000e+00
  1.500367e-01    0.000000e+00
  1.503356e-01    0.000000e+00
  1.506345e-01    0.000000e+00
  1.509334e-01    0.000000e+00
  1.512324e-01    0.000000e+00
  1.515313e-01    0.000000e+00
  1.518302e-01    0.000000e+00
  1.521292e-01    0.000000e+00
  1.524281e-01    0.000000e+00
  1.527270e-01    0.000000e+00
  1.530260e-01    0.000000e+00
  1.533249e-01    0.000000e+00
  1.536238e-01    0.000000e+00
