# == pyFAI calibration ==
# Distance Sample to Detector: 2.266 m
# PONI: 5.659e-02, 4.293e-02 m
# Rotations: 0.000000 0.000000 0.000000 rad
# 
# == Fit2d calibration ==
# Distance Sample-beamCenter: 2266.000 mm
# Center: x=249.594, y=329.012 pix
# Tilt: 0.000 deg  TiltPlanRot: 0.000 deg
# 
# Detector Pilatus 300k	 PixelSize= 1.720e-04, 1.720e-04 m
#    Detector has a mask: True 
#    Detector has a dark current: False 
#    detector has a flat field: False 
# 
# Wavelength: 1.27818e-10 m
# Mask applied: user provided
# Dark current applied: False
# Flat field applied: False
# Polarization factor: None
# Normalization factor: 6010035.600000001
# --> F127_76.908_hexanes_29.665_EtOH_67.841NaCl_100.000mgml_0_r1d.csv
#        q_A^-1             I 
  4.457554e-03    1.640727e-03
  4.756484e-03    1.316835e-03
  5.055415e-03    9.459700e-04
  5.354345e-03    6.681352e-04
  5.653276e-03    5.228781e-04
  5.952206e-03    8.674004e-04
  6.251136e-03    7.988380e-04
  6.550067e-03    6.989894e-04
  6.848997e-03    5.990096e-04
  7.147927e-03    5.079174e-04
  7.446858e-03    4.328800e-04
  7.745788e-03    3.712008e-04
  8.044719e-03    3.202208e-04
  8.343649e-03    2.794866e-04
  8.642579e-03    2.444468e-04
  8.941510e-03    2.153200e-04
  9.240440e-03    1.901764e-04
  9.539371e-03    1.692001e-04
  9.838301e-03    1.506671e-04
  1.013723e-02    1.351199e-04
  1.043616e-02    1.211764e-04
  1.073509e-02    1.082524e-04
  1.103402e-02    9.810369e-05
  1.133295e-02    8.882496e-05
  1.163188e-02    8.056159e-05
  1.193081e-02    7.368153e-05
  1.222974e-02    6.734204e-05
  1.252867e-02    6.185157e-05
  1.282760e-02    5.684979e-05
  1.312654e-02    5.228673e-05
  1.342547e-02    4.802949e-05
  1.372440e-02    4.422584e-05
  1.402333e-02    4.105417e-05
  1.432226e-02    3.826929e-05
  1.462119e-02    3.552001e-05
  1.492012e-02    3.302136e-05
  1.521905e-02    3.088693e-05
  1.551798e-02    2.906375e-05
  1.581691e-02    2.713801e-05
  1.611584e-02    2.533470e-05
  1.641477e-02    2.399195e-05
  1.671370e-02    2.254335e-05
  1.701263e-02    2.113505e-05
  1.731156e-02    2.008745e-05
  1.761049e-02    1.908001e-05
  1.790942e-02    1.809770e-05
  1.820835e-02    1.705789e-05
  1.850728e-02    1.623844e-05
  1.880621e-02    1.558234e-05
  1.910514e-02    1.488458e-05
  1.940407e-02    1.418426e-05
  1.970300e-02    1.354676e-05
  2.000193e-02    1.294970e-05
  2.030086e-02    1.244701e-05
  2.059979e-02    1.203643e-05
  2.089873e-02    1.168086e-05
  2.119766e-02    1.120651e-05
  2.149659e-02    1.079003e-05
  2.179552e-02    1.040758e-05
  2.209445e-02    1.004907e-05
  2.239338e-02    9.797284e-06
  2.269231e-02    9.503526e-06
  2.299124e-02    9.190506e-06
  2.329017e-02    8.956942e-06
  2.358910e-02    8.632495e-06
  2.388803e-02    8.345724e-06
  2.418696e-02    8.185387e-06
  2.448589e-02    7.965998e-06
  2.478482e-02    7.766122e-06
  2.508375e-02    7.654100e-06
  2.538268e-02    7.469910e-06
  2.568161e-02    7.258177e-06
  2.598054e-02    7.187526e-06
  2.627947e-02    7.056003e-06
  2.657840e-02    6.931467e-06
  2.687733e-02    6.749379e-06
  2.717626e-02    6.609483e-06
  2.747519e-02    6.563713e-06
  2.777412e-02    6.493779e-06
  2.807305e-02    6.425023e-06
  2.837198e-02    6.252030e-06
  2.867092e-02    6.163096e-06
  2.896985e-02    6.112142e-06
  2.926878e-02    6.046192e-06
  2.956771e-02    5.943040e-06
  2.986664e-02    5.774470e-06
  3.016557e-02    5.725326e-06
  3.046450e-02    5.665985e-06
  3.076343e-02    5.629559e-06
  3.106236e-02    5.530929e-06
  3.136129e-02    5.441590e-06
  3.166022e-02    5.463324e-06
  3.195915e-02    5.401087e-06
  3.225808e-02    5.280097e-06
  3.255701e-02    5.222768e-06
  3.285594e-02    5.210301e-06
  3.315487e-02    5.169881e-06
  3.345380e-02    5.084684e-06
  3.375273e-02    5.039050e-06
  3.405166e-02    5.023093e-06
  3.435059e-02    4.950185e-06
  3.464952e-02    4.850152e-06
  3.494845e-02    4.819713e-06
  3.524738e-02    4.798038e-06
  3.554631e-02    4.752397e-06
  3.584524e-02    4.670193e-06
  3.614417e-02    4.628180e-06
  3.644310e-02    4.627243e-06
  3.674204e-02    4.554956e-06
  3.704097e-02    4.472948e-06
  3.733990e-02    4.444390e-06
  3.763883e-02    4.439480e-06
  3.793776e-02    4.389286e-06
  3.823669e-02    4.326291e-06
  3.853562e-02    4.316877e-06
  3.883455e-02    4.306007e-06
  3.913348e-02    4.252856e-06
  3.943241e-02    4.277337e-06
  3.973134e-02    4.246495e-06
  4.003027e-02    4.203328e-06
  4.032920e-02    4.172699e-06
  4.062813e-02    4.131277e-06
  4.092706e-02    4.103564e-06
  4.122599e-02    4.093470e-06
  4.152492e-02    4.044480e-06
  4.182385e-02    4.032475e-06
  4.212278e-02    4.005582e-06
  4.242171e-02    3.964121e-06
  4.272064e-02    3.970200e-06
  4.301957e-02    3.939127e-06
  4.331850e-02    3.923894e-06
  4.361743e-02    3.900911e-06
  4.391636e-02    3.864329e-06
  4.421529e-02    3.873695e-06
  4.451423e-02    3.886572e-06
  4.481316e-02    3.875889e-06
  4.511209e-02    3.857818e-06
  4.541102e-02    3.906908e-06
  4.570995e-02    3.904274e-06
  4.600888e-02    3.848376e-06
  4.630781e-02    3.824708e-06
  4.660674e-02    3.821303e-06
  4.690567e-02    3.854781e-06
  4.720460e-02    3.856826e-06
  4.750353e-02    3.875741e-06
  4.780246e-02    3.828475e-06
  4.810139e-02    3.787172e-06
  4.840032e-02    3.800343e-06
  4.869925e-02    3.801200e-06
  4.899818e-02    3.782014e-06
  4.929711e-02    3.780763e-06
  4.959604e-02    3.776219e-06
  4.989497e-02    3.771128e-06
  5.019390e-02    3.819661e-06
  5.049283e-02    3.794432e-06
  5.079176e-02    3.781332e-06
  5.109069e-02    3.768990e-06
  5.138962e-02    3.768749e-06
  5.168855e-02    3.885973e-06
  5.198748e-02    3.999693e-06
  5.228642e-02    3.975992e-06
  5.258535e-02    3.777247e-06
  5.288428e-02    3.686760e-06
  5.318321e-02    3.686374e-06
  5.348214e-02    3.717070e-06
  5.378107e-02    3.739603e-06
  5.408000e-02    3.721841e-06
  5.437893e-02    3.720620e-06
  5.467786e-02    3.719790e-06
  5.497679e-02    3.686119e-06
  5.527572e-02    3.679346e-06
  5.557465e-02    3.684745e-06
  5.587358e-02    3.713627e-06
  5.617251e-02    3.700157e-06
  5.647144e-02    3.682502e-06
  5.677037e-02    3.681108e-06
  5.706930e-02    3.696720e-06
  5.736823e-02    3.693078e-06
  5.766716e-02    3.672333e-06
  5.796609e-02    3.680738e-06
  5.826502e-02    3.699855e-06
  5.856395e-02    3.701014e-06
  5.886288e-02    3.690654e-06
  5.916181e-02    3.706171e-06
  5.946074e-02    3.730551e-06
  5.975967e-02    3.766676e-06
  6.005861e-02    3.780135e-06
  6.035754e-02    3.764771e-06
  6.065647e-02    3.742941e-06
  6.095540e-02    3.766923e-06
  6.125433e-02    3.853438e-06
  6.155326e-02    3.869973e-06
  6.185219e-02    3.817474e-06
  6.215112e-02    3.782331e-06
  6.245005e-02    3.767869e-06
  6.274898e-02    3.743638e-06
  6.304791e-02    3.781731e-06
  6.334684e-02    3.813397e-06
  6.364577e-02    3.831934e-06
  6.394470e-02    3.804863e-06
  6.424363e-02    3.766246e-06
  6.454256e-02    3.783844e-06
  6.484149e-02    3.786312e-06
  6.514042e-02    3.769571e-06
  6.543935e-02    3.770252e-06
  6.573828e-02    3.792530e-06
  6.603721e-02    3.784711e-06
  6.633614e-02    3.794270e-06
  6.663507e-02    3.819064e-06
  6.693400e-02    3.817584e-06
  6.723293e-02    3.823017e-06
  6.753186e-02    3.817439e-06
  6.783080e-02    3.814116e-06
  6.812973e-02    3.808088e-06
  6.842866e-02    3.835398e-06
  6.872759e-02    3.870159e-06
  6.902652e-02    3.891462e-06
  6.932545e-02    3.869385e-06
  6.962438e-02    3.865280e-06
  6.992331e-02    3.846210e-06
  7.022224e-02    3.858275e-06
  7.052117e-02    3.831250e-06
  7.082010e-02    3.856559e-06
  7.111903e-02    3.894573e-06
  7.141796e-02    3.915880e-06
  7.171689e-02    3.914309e-06
  7.201582e-02    3.904202e-06
  7.231475e-02    3.893669e-06
  7.261368e-02    3.870512e-06
  7.291261e-02    3.892163e-06
  7.321154e-02    3.882082e-06
  7.351047e-02    3.896642e-06
  7.380940e-02    3.903010e-06
  7.410833e-02    3.906242e-06
  7.440726e-02    3.897510e-06
  7.470619e-02    3.919957e-06
  7.500512e-02    3.938169e-06
  7.530405e-02    3.890329e-06
  7.560299e-02    3.857274e-06
  7.590192e-02    3.844857e-06
  7.620085e-02    3.878991e-06
  7.649978e-02    3.900912e-06
  7.679871e-02    3.897371e-06
  7.709764e-02    3.881615e-06
  7.739657e-02    3.882241e-06
  7.769550e-02    3.895783e-06
  7.799443e-02    3.889608e-06
  7.829336e-02    3.854605e-06
  7.859229e-02    3.890134e-06
  7.889122e-02    3.896928e-06
  7.919015e-02    3.862026e-06
  7.948908e-02    3.873637e-06
  7.978801e-02    3.836896e-06
  8.008694e-02    3.818455e-06
  8.038587e-02    3.810346e-06
  8.068480e-02    3.776275e-06
  8.098373e-02    3.793003e-06
  8.128266e-02    3.811104e-06
  8.158159e-02    3.820466e-06
  8.188052e-02    3.827799e-06
  8.217945e-02    3.831304e-06
  8.247838e-02    3.825558e-06
  8.277731e-02    3.802531e-06
  8.307624e-02    3.809196e-06
  8.337518e-02    3.830460e-06
  8.367411e-02    3.846497e-06
  8.397304e-02    3.781513e-06
  8.427197e-02    3.764472e-06
  8.457090e-02    3.766168e-06
  8.486983e-02    3.750684e-06
  8.516876e-02    3.734092e-06
  8.546769e-02    3.747337e-06
  8.576662e-02    3.740964e-06
  8.606555e-02    3.753526e-06
  8.636448e-02    3.748797e-06
  8.666341e-02    3.711775e-06
  8.696234e-02    3.717703e-06
  8.726127e-02    3.692298e-06
  8.756020e-02    3.668493e-06
  8.785913e-02    3.670803e-06
  8.815806e-02    3.665897e-06
  8.845699e-02    3.653636e-06
  8.875592e-02    3.669777e-06
  8.905485e-02    3.672055e-06
  8.935378e-02    3.669583e-06
  8.965271e-02    3.657307e-06
  8.995164e-02    3.639067e-06
  9.025057e-02    3.608844e-06
  9.054950e-02    3.609902e-06
  9.084843e-02    3.604357e-06
  9.114737e-02    3.596427e-06
  9.144630e-02    3.602320e-06
  9.174523e-02    3.602771e-06
  9.204416e-02    3.591569e-06
  9.234309e-02    3.584901e-06
  9.264202e-02    3.583121e-06
  9.294095e-02    3.568730e-06
  9.323988e-02    3.551429e-06
  9.353881e-02    3.577607e-06
  9.383774e-02    3.558434e-06
  9.413667e-02    3.562284e-06
  9.443560e-02    3.557388e-06
  9.473453e-02    3.547099e-06
  9.503346e-02    3.534683e-06
  9.533239e-02    3.508748e-06
  9.563132e-02    3.528444e-06
  9.593025e-02    3.524806e-06
  9.622918e-02    3.490393e-06
  9.652811e-02    3.527767e-06
  9.682704e-02    3.574353e-06
  9.712597e-02    3.586663e-06
  9.742490e-02    3.566182e-06
  9.772383e-02    3.515480e-06
  9.802276e-02    3.487901e-06
  9.832169e-02    3.469936e-06
  9.862062e-02    3.459316e-06
  9.891956e-02    3.425072e-06
  9.921849e-02    3.440385e-06
  9.951742e-02    3.448131e-06
  9.981635e-02    3.482266e-06
  1.001153e-01    3.480799e-06
  1.004142e-01    3.428205e-06
  1.007131e-01    3.385980e-06
  1.010121e-01    3.401625e-06
  1.013110e-01    3.390153e-06
  1.016099e-01    3.394286e-06
  1.019089e-01    3.420409e-06
  1.022078e-01    3.386007e-06
  1.025067e-01    3.355787e-06
  1.028057e-01    3.385634e-06
  1.031046e-01    3.387538e-06
  1.034035e-01    3.357052e-06
  1.037024e-01    3.336082e-06
  1.040014e-01    3.337381e-06
  1.043003e-01    3.344143e-06
  1.045992e-01    3.327130e-06
  1.048982e-01    3.329321e-06
  1.051971e-01    3.329881e-06
  1.054960e-01    3.293145e-06
  1.057950e-01    3.265714e-06
  1.060939e-01    3.290650e-06
  1.063928e-01    3.302199e-06
  1.066917e-01    3.302899e-06
  1.069907e-01    3.283324e-06
  1.072896e-01    3.290251e-06
  1.075885e-01    3.297095e-06
  1.078875e-01    3.290321e-06
  1.081864e-01    3.277116e-06
  1.084853e-01    3.274340e-06
  1.087843e-01    3.299248e-06
  1.090832e-01    3.303039e-06
  1.093821e-01    3.304211e-06
  1.096810e-01    3.262919e-06
  1.099800e-01    3.245251e-06
  1.102789e-01    3.237442e-06
  1.105778e-01    3.201528e-06
  1.108768e-01    3.170930e-06
  1.111757e-01    3.168384e-06
  1.114746e-01    3.167816e-06
  1.117736e-01    3.189875e-06
  1.120725e-01    3.183023e-06
  1.123714e-01    3.184376e-06
  1.126704e-01    3.184233e-06
  1.129693e-01    3.157412e-06
  1.132682e-01    3.138299e-06
  1.135671e-01    3.105207e-06
  1.138661e-01    3.107956e-06
  1.141650e-01    3.110595e-06
  1.144639e-01    3.055277e-06
  1.147629e-01    3.054147e-06
  1.150618e-01    3.113789e-06
  1.153607e-01    3.071392e-06
  1.156597e-01    3.067338e-06
  1.159586e-01    3.059421e-06
  1.162575e-01    3.107999e-06
  1.165564e-01    3.112702e-06
  1.168554e-01    3.080540e-06
  1.171543e-01    3.059711e-06
  1.174532e-01    3.046656e-06
  1.177522e-01    3.035501e-06
  1.180511e-01    3.020421e-06
  1.183500e-01    3.091891e-06
  1.186490e-01    3.079844e-06
  1.189479e-01    3.113411e-06
  1.192468e-01    3.133611e-06
  1.195458e-01    2.995290e-06
  1.198447e-01    2.936092e-06
  1.201436e-01    2.976650e-06
  1.204425e-01    2.938316e-06
  1.207415e-01    3.275875e-06
  1.210404e-01    3.996938e-06
  1.213393e-01    0.000000e+00
  1.216383e-01    0.000000e+00
  1.219372e-01    0.000000e+00
  1.222361e-01    0.000000e+00
  1.225351e-01    0.000000e+00
  1.228340e-01    0.000000e+00
  1.231329e-01    0.000000e+00
  1.234318e-01    0.000000e+00
  1.237308e-01    0.000000e+00
  1.240297e-01    0.000000e+00
  1.243286e-01    0.000000e+00
  1.246276e-01    0.000000e+00
  1.249265e-01    0.000000e+00
  1.252254e-01    0.000000e+00
  1.255244e-01    0.000000e+00
  1.258233e-01    0.000000e+00
  1.261222e-01    0.000000e+00
  1.264212e-01    0.000000e+00
  1.267201e-01    0.000000e+00
  1.270190e-01    0.000000e+00
  1.273179e-01    0.000000e+00
  1.276169e-01    0.000000e+00
  1.279158e-01    0.000000e+00
  1.282147e-01    0.000000e+00
  1.285137e-01    0.000000e+00
  1.288126e-01    0.000000e+00
  1.291115e-01    0.000000e+00
  1.294105e-01    0.000000e+00
  1.297094e-01    0.000000e+00
  1.300083e-01    0.000000e+00
  1.303072e-01    0.000000e+00
  1.306062e-01    0.000000e+00
  1.309051e-01    0.000000e+00
  1.312040e-01    0.000000e+00
  1.315030e-01    0.000000e+00
  1.318019e-01    0.000000e+00
  1.321008e-01    0.000000e+00
  1.323998e-01    0.000000e+00
  1.326987e-01    0.000000e+00
  1.329976e-01    0.000000e+00
  1.332965e-01    0.000000e+00
  1.335955e-01    0.000000e+00
  1.338944e-01    0.000000e+00
  1.341933e-01    0.000000e+00
  1.344923e-01    0.000000e+00
  1.347912e-01    0.000000e+00
  1.350901e-01    0.000000e+00
  1.353891e-01    0.000000e+00
  1.356880e-01    0.000000e+00
  1.359869e-01    0.000000e+00
  1.362859e-01    0.000000e+00
  1.365848e-01    0.000000e+00
  1.368837e-01    0.000000e+00
  1.371826e-01    0.000000e+00
  1.374816e-01    0.000000e+00
  1.377805e-01    0.000000e+00
  1.380794e-01    0.000000e+00
  1.383784e-01    0.000000e+00
  1.386773e-01    0.000000e+00
  1.389762e-01    0.000000e+00
  1.392752e-01    0.000000e+00
  1.395741e-01    0.000000e+00
  1.398730e-01    0.000000e+00
  1.401719e-01    0.000000e+00
  1.404709e-01    0.000000e+00
  1.407698e-01    0.000000e+00
  1.410687e-01    0.000000e+00
  1.413677e-01    0.000000e+00
  1.416666e-01    0.000000e+00
  1.419655e-01    0.000000e+00
  1.422645e-01    0.000000e+00
  1.425634e-01    0.000000e+00
  1.428623e-01    0.000000e+00
  1.431613e-01    0.000000e+00
  1.434602e-01    0.000000e+00
  1.437591e-01    0.000000e+00
  1.440580e-01    0.000000e+00
  1.443570e-01    0.000000e+00
  1.446559e-01    0.000000e+00
  1.449548e-01    0.000000e+00
  1.452538e-01    0.000000e+00
  1.455527e-01    0.000000e+00
  1.458516e-01    0.000000e+00
  1.461506e-01    0.000000e+00
  1.464495e-01    0.000000e+00
  1.467484e-01    0.000000e+00
  1.470473e-01    0.000000e+00
  1.473463e-01    0.000000e+00
  1.476452e-01    0.000000e+00
  1.479441e-01    0.000000e+00
  1.482431e-01    0.000000e+00
  1.485420e-01    0.000000e+00
  1.488409e-01    0.000000e+00
  1.491399e-01    0.000000e+00
  1.494388e-01    0.000000e+00
  1.497377e-01    0.000000e+00
  1.500367e-01    0.000000e+00
  1.503356e-01    0.000000e+00
  1.506345e-01    0.000000e+00
  1.509334e-01    0.000000e+00
  1.512324e-01    0.000000e+00
  1.515313e-01    0.000000e+00
  1.518302e-01    0.000000e+00
  1.521292e-01    0.000000e+00
  1.524281e-01    0.000000e+00
  1.527270e-01    0.000000e+00
  1.530260e-01    0.000000e+00
  1.533249e-01    0.000000e+00
  1.536238e-01    0.000000e+00
