# == pyFAI calibration ==
# Distance Sample to Detector: 2.266 m
# PONI: 5.659e-02, 4.293e-02 m
# Rotations: 0.000000 0.000000 0.000000 rad
# 
# == Fit2d calibration ==
# Distance Sample-beamCenter: 2266.000 mm
# Center: x=249.594, y=329.012 pix
# Tilt: 0.000 deg  TiltPlanRot: 0.000 deg
# 
# Detector Pilatus 300k	 PixelSize= 1.720e-04, 1.720e-04 m
#    Detector has a mask: True 
#    Detector has a dark current: False 
#    detector has a flat field: False 
# 
# Wavelength: 1.27818e-10 m
# Mask applied: user provided
# Dark current applied: False
# Flat field applied: False
# Polarization factor: None
# Normalization factor: 3736621.0
# --> F127_101.302_NaCl_0.000_limonene_68.210mgml_2_r1d.csv
#        q_A^-1             I 
  4.457554e-03    2.309142e-03
  4.756484e-03    1.788062e-03
  5.055415e-03    1.248343e-03
  5.354345e-03    8.653429e-04
  5.653276e-03    6.522531e-04
  5.952206e-03    1.012971e-03
  6.251136e-03    9.255558e-04
  6.550067e-03    8.067245e-04
  6.848997e-03    6.877715e-04
  7.147927e-03    5.824899e-04
  7.446858e-03    4.969872e-04
  7.745788e-03    4.266126e-04
  8.044719e-03    3.679987e-04
  8.343649e-03    3.208050e-04
  8.642579e-03    2.803440e-04
  8.941510e-03    2.471732e-04
  9.240440e-03    2.187479e-04
  9.539371e-03    1.939858e-04
  9.838301e-03    1.724726e-04
  1.013723e-02    1.546845e-04
  1.043616e-02    1.392832e-04
  1.073509e-02    1.248154e-04
  1.103402e-02    1.130599e-04
  1.133295e-02    1.023664e-04
  1.163188e-02    9.345876e-05
  1.193081e-02    8.555662e-05
  1.222974e-02    7.790637e-05
  1.252867e-02    7.166252e-05
  1.282760e-02    6.588413e-05
  1.312654e-02    6.055469e-05
  1.342547e-02    5.614422e-05
  1.372440e-02    5.177369e-05
  1.402333e-02    4.819926e-05
  1.432226e-02    4.471555e-05
  1.462119e-02    4.175743e-05
  1.492012e-02    3.914858e-05
  1.521905e-02    3.654494e-05
  1.551798e-02    3.437132e-05
  1.581691e-02    3.213755e-05
  1.611584e-02    3.036870e-05
  1.641477e-02    2.866612e-05
  1.671370e-02    2.705102e-05
  1.701263e-02    2.551764e-05
  1.731156e-02    2.396336e-05
  1.761049e-02    2.284920e-05
  1.790942e-02    2.188076e-05
  1.820835e-02    2.067537e-05
  1.850728e-02    1.959717e-05
  1.880621e-02    1.874494e-05
  1.910514e-02    1.784541e-05
  1.940407e-02    1.730361e-05
  1.970300e-02    1.675633e-05
  2.000193e-02    1.603921e-05
  2.030086e-02    1.534819e-05
  2.059979e-02    1.479694e-05
  2.089873e-02    1.427412e-05
  2.119766e-02    1.380325e-05
  2.149659e-02    1.341885e-05
  2.179552e-02    1.291872e-05
  2.209445e-02    1.256713e-05
  2.239338e-02    1.221385e-05
  2.269231e-02    1.186251e-05
  2.299124e-02    1.149975e-05
  2.329017e-02    1.124940e-05
  2.358910e-02    1.095765e-05
  2.388803e-02    1.066182e-05
  2.418696e-02    1.038016e-05
  2.448589e-02    1.010776e-05
  2.478482e-02    9.923826e-06
  2.508375e-02    9.873314e-06
  2.538268e-02    9.690519e-06
  2.568161e-02    9.491220e-06
  2.598054e-02    9.241956e-06
  2.627947e-02    9.154906e-06
  2.657840e-02    9.092480e-06
  2.687733e-02    8.929632e-06
  2.717626e-02    8.688183e-06
  2.747519e-02    8.585965e-06
  2.777412e-02    8.567763e-06
  2.807305e-02    8.349170e-06
  2.837198e-02    8.249698e-06
  2.867092e-02    8.235385e-06
  2.896985e-02    8.138457e-06
  2.926878e-02    7.933816e-06
  2.956771e-02    7.890645e-06
  2.986664e-02    7.799308e-06
  3.016557e-02    7.765872e-06
  3.046450e-02    7.709737e-06
  3.076343e-02    7.630753e-06
  3.106236e-02    7.515310e-06
  3.136129e-02    7.428285e-06
  3.166022e-02    7.448130e-06
  3.195915e-02    7.290634e-06
  3.225808e-02    7.178321e-06
  3.255701e-02    7.045377e-06
  3.285594e-02    6.981791e-06
  3.315487e-02    7.000639e-06
  3.345380e-02    6.982742e-06
  3.375273e-02    6.879873e-06
  3.405166e-02    6.771058e-06
  3.435059e-02    6.745890e-06
  3.464952e-02    6.693006e-06
  3.494845e-02    6.572902e-06
  3.524738e-02    6.546451e-06
  3.554631e-02    6.493831e-06
  3.584524e-02    6.471837e-06
  3.614417e-02    6.354250e-06
  3.644310e-02    6.249217e-06
  3.674204e-02    6.186555e-06
  3.704097e-02    6.084634e-06
  3.733990e-02    6.005964e-06
  3.763883e-02    5.950265e-06
  3.793776e-02    5.928169e-06
  3.823669e-02    5.913009e-06
  3.853562e-02    5.908505e-06
  3.883455e-02    5.881141e-06
  3.913348e-02    5.809302e-06
  3.943241e-02    5.793027e-06
  3.973134e-02    5.705549e-06
  4.003027e-02    5.675842e-06
  4.032920e-02    5.683426e-06
  4.062813e-02    5.641243e-06
  4.092706e-02    5.558317e-06
  4.122599e-02    5.602157e-06
  4.152492e-02    5.538092e-06
  4.182385e-02    5.431541e-06
  4.212278e-02    5.430022e-06
  4.242171e-02    5.382701e-06
  4.272064e-02    5.386375e-06
  4.301957e-02    5.396314e-06
  4.331850e-02    5.347352e-06
  4.361743e-02    5.306687e-06
  4.391636e-02    5.346342e-06
  4.421529e-02    5.328736e-06
  4.451423e-02    5.331606e-06
  4.481316e-02    5.314121e-06
  4.511209e-02    5.352748e-06
  4.541102e-02    5.339052e-06
  4.570995e-02    5.301369e-06
  4.600888e-02    5.258652e-06
  4.630781e-02    5.263506e-06
  4.660674e-02    5.296294e-06
  4.690567e-02    5.350817e-06
  4.720460e-02    5.313890e-06
  4.750353e-02    5.241397e-06
  4.780246e-02    5.237328e-06
  4.810139e-02    5.161289e-06
  4.840032e-02    5.203284e-06
  4.869925e-02    5.270344e-06
  4.899818e-02    5.267874e-06
  4.929711e-02    5.271597e-06
  4.959604e-02    5.251201e-06
  4.989497e-02    5.238270e-06
  5.019390e-02    5.213248e-06
  5.049283e-02    5.205386e-06
  5.079176e-02    5.197261e-06
  5.109069e-02    5.208097e-06
  5.138962e-02    5.301082e-06
  5.168855e-02    5.480442e-06
  5.198748e-02    5.526921e-06
  5.228642e-02    5.434939e-06
  5.258535e-02    5.275183e-06
  5.288428e-02    5.173038e-06
  5.318321e-02    5.139471e-06
  5.348214e-02    5.134351e-06
  5.378107e-02    5.097363e-06
  5.408000e-02    5.141873e-06
  5.437893e-02    5.181938e-06
  5.467786e-02    5.186040e-06
  5.497679e-02    5.180911e-06
  5.527572e-02    5.171265e-06
  5.557465e-02    5.125670e-06
  5.587358e-02    5.134511e-06
  5.617251e-02    5.178702e-06
  5.647144e-02    5.163916e-06
  5.677037e-02    5.174103e-06
  5.706930e-02    5.177643e-06
  5.736823e-02    5.167445e-06
  5.766716e-02    5.136824e-06
  5.796609e-02    5.143811e-06
  5.826502e-02    5.145233e-06
  5.856395e-02    5.144839e-06
  5.886288e-02    5.188479e-06
  5.916181e-02    5.203588e-06
  5.946074e-02    5.173702e-06
  5.975967e-02    5.188740e-06
  6.005861e-02    5.238601e-06
  6.035754e-02    5.239411e-06
  6.065647e-02    5.253597e-06
  6.095540e-02    5.300847e-06
  6.125433e-02    5.396399e-06
  6.155326e-02    5.457856e-06
  6.185219e-02    5.354154e-06
  6.215112e-02    5.277462e-06
  6.245005e-02    5.295251e-06
  6.274898e-02    5.304546e-06
  6.304791e-02    5.286447e-06
  6.334684e-02    5.284331e-06
  6.364577e-02    5.289779e-06
  6.394470e-02    5.265726e-06
  6.424363e-02    5.267202e-06
  6.454256e-02    5.343480e-06
  6.484149e-02    5.352089e-06
  6.514042e-02    5.328098e-06
  6.543935e-02    5.311998e-06
  6.573828e-02    5.322439e-06
  6.603721e-02    5.339456e-06
  6.633614e-02    5.368534e-06
  6.663507e-02    5.342300e-06
  6.693400e-02    5.353792e-06
  6.723293e-02    5.410727e-06
  6.753186e-02    5.412425e-06
  6.783080e-02    5.403997e-06
  6.812973e-02    5.389075e-06
  6.842866e-02    5.379080e-06
  6.872759e-02    5.364654e-06
  6.902652e-02    5.385783e-06
  6.932545e-02    5.448069e-06
  6.962438e-02    5.447438e-06
  6.992331e-02    5.461603e-06
  7.022224e-02    5.477556e-06
  7.052117e-02    5.431054e-06
  7.082010e-02    5.451739e-06
  7.111903e-02    5.484746e-06
  7.141796e-02    5.485955e-06
  7.171689e-02    5.490341e-06
  7.201582e-02    5.501319e-06
  7.231475e-02    5.495930e-06
  7.261368e-02    5.499877e-06
  7.291261e-02    5.527562e-06
  7.321154e-02    5.543323e-06
  7.351047e-02    5.510866e-06
  7.380940e-02    5.499314e-06
  7.410833e-02    5.504059e-06
  7.440726e-02    5.533104e-06
  7.470619e-02    5.585348e-06
  7.500512e-02    5.565934e-06
  7.530405e-02    5.556856e-06
  7.560299e-02    5.478079e-06
  7.590192e-02    5.556695e-06
  7.620085e-02    5.591293e-06
  7.649978e-02    5.494261e-06
  7.679871e-02    5.530583e-06
  7.709764e-02    5.558205e-06
  7.739657e-02    5.568399e-06
  7.769550e-02    5.582993e-06
  7.799443e-02    5.597358e-06
  7.829336e-02    5.503827e-06
  7.859229e-02    5.487057e-06
  7.889122e-02    5.507510e-06
  7.919015e-02    5.503822e-06
  7.948908e-02    5.544419e-06
  7.978801e-02    5.518296e-06
  8.008694e-02    5.483826e-06
  8.038587e-02    5.545865e-06
  8.068480e-02    5.507550e-06
  8.098373e-02    5.497918e-06
  8.128266e-02    5.501877e-06
  8.158159e-02    5.538121e-06
  8.188052e-02    5.525012e-06
  8.217945e-02    5.473659e-06
  8.247838e-02    5.472498e-06
  8.277731e-02    5.484936e-06
  8.307624e-02    5.477661e-06
  8.337518e-02    5.465487e-06
  8.367411e-02    5.451134e-06
  8.397304e-02    5.414140e-06
  8.427197e-02    5.395499e-06
  8.457090e-02    5.394394e-06
  8.486983e-02    5.409455e-06
  8.516876e-02    5.462676e-06
  8.546769e-02    5.413248e-06
  8.576662e-02    5.322885e-06
  8.606555e-02    5.358130e-06
  8.636448e-02    5.372455e-06
  8.666341e-02    5.357729e-06
  8.696234e-02    5.302467e-06
  8.726127e-02    5.295842e-06
  8.756020e-02    5.326316e-06
  8.785913e-02    5.301671e-06
  8.815806e-02    5.284227e-06
  8.845699e-02    5.292457e-06
  8.875592e-02    5.282625e-06
  8.905485e-02    5.264771e-06
  8.935378e-02    5.277192e-06
  8.965271e-02    5.236102e-06
  8.995164e-02    5.219016e-06
  9.025057e-02    5.208723e-06
  9.054950e-02    5.152429e-06
  9.084843e-02    5.187782e-06
  9.114737e-02    5.198548e-06
  9.144630e-02    5.193771e-06
  9.174523e-02    5.143683e-06
  9.204416e-02    5.119803e-06
  9.234309e-02    5.124166e-06
  9.264202e-02    5.115980e-06
  9.294095e-02    5.107345e-06
  9.323988e-02    5.080798e-06
  9.353881e-02    5.089692e-06
  9.383774e-02    5.107395e-06
  9.413667e-02    5.106418e-06
  9.443560e-02    5.118402e-06
  9.473453e-02    5.063585e-06
  9.503346e-02    5.040710e-06
  9.533239e-02    5.063374e-06
  9.563132e-02    5.048356e-06
  9.593025e-02    5.008805e-06
  9.622918e-02    5.027523e-06
  9.652811e-02    5.116863e-06
  9.682704e-02    5.175561e-06
  9.712597e-02    5.121484e-06
  9.742490e-02    5.068861e-06
  9.772383e-02    5.050234e-06
  9.802276e-02    5.033015e-06
  9.832169e-02    5.008036e-06
  9.862062e-02    4.961605e-06
  9.891956e-02    4.926807e-06
  9.921849e-02    4.927544e-06
  9.951742e-02    4.904424e-06
  9.981635e-02    4.932907e-06
  1.001153e-01    4.888234e-06
  1.004142e-01    4.857057e-06
  1.007131e-01    4.838981e-06
  1.010121e-01    4.846388e-06
  1.013110e-01    4.850725e-06
  1.016099e-01    4.820552e-06
  1.019089e-01    4.812478e-06
  1.022078e-01    4.818388e-06
  1.025067e-01    4.827935e-06
  1.028057e-01    4.803719e-06
  1.031046e-01    4.736256e-06
  1.034035e-01    4.751093e-06
  1.037024e-01    4.799201e-06
  1.040014e-01    4.751460e-06
  1.043003e-01    4.750691e-06
  1.045992e-01    4.754174e-06
  1.048982e-01    4.716396e-06
  1.051971e-01    4.677672e-06
  1.054960e-01    4.660410e-06
  1.057950e-01    4.638748e-06
  1.060939e-01    4.671685e-06
  1.063928e-01    4.737048e-06
  1.066917e-01    4.691216e-06
  1.069907e-01    4.670517e-06
  1.072896e-01    4.663640e-06
  1.075885e-01    4.668355e-06
  1.078875e-01    4.642824e-06
  1.081864e-01    4.612006e-06
  1.084853e-01    4.596977e-06
  1.087843e-01    4.629030e-06
  1.090832e-01    4.650811e-06
  1.093821e-01    4.654979e-06
  1.096810e-01    4.601266e-06
  1.099800e-01    4.569109e-06
  1.102789e-01    4.556311e-06
  1.105778e-01    4.525789e-06
  1.108768e-01    4.565574e-06
  1.111757e-01    4.566120e-06
  1.114746e-01    4.528979e-06
  1.117736e-01    4.483159e-06
  1.120725e-01    4.458903e-06
  1.123714e-01    4.463224e-06
  1.126704e-01    4.468398e-06
  1.129693e-01    4.438222e-06
  1.132682e-01    4.431452e-06
  1.135671e-01    4.469147e-06
  1.138661e-01    4.487267e-06
  1.141650e-01    4.376981e-06
  1.144639e-01    4.373406e-06
  1.147629e-01    4.388377e-06
  1.150618e-01    4.319505e-06
  1.153607e-01    4.281385e-06
  1.156597e-01    4.356501e-06
  1.159586e-01    4.377045e-06
  1.162575e-01    4.404296e-06
  1.165564e-01    4.380955e-06
  1.168554e-01    4.278845e-06
  1.171543e-01    4.375787e-06
  1.174532e-01    4.330291e-06
  1.177522e-01    4.305017e-06
  1.180511e-01    4.350112e-06
  1.183500e-01    4.399229e-06
  1.186490e-01    4.352902e-06
  1.189479e-01    4.301581e-06
  1.192468e-01    4.369841e-06
  1.195458e-01    4.343524e-06
  1.198447e-01    4.331989e-06
  1.201436e-01    4.074924e-06
  1.204425e-01    4.123081e-06
  1.207415e-01    4.481440e-06
  1.210404e-01    4.821550e-06
  1.213393e-01    0.000000e+00
  1.216383e-01    0.000000e+00
  1.219372e-01    0.000000e+00
  1.222361e-01    0.000000e+00
  1.225351e-01    0.000000e+00
  1.228340e-01    0.000000e+00
  1.231329e-01    0.000000e+00
  1.234318e-01    0.000000e+00
  1.237308e-01    0.000000e+00
  1.240297e-01    0.000000e+00
  1.243286e-01    0.000000e+00
  1.246276e-01    0.000000e+00
  1.249265e-01    0.000000e+00
  1.252254e-01    0.000000e+00
  1.255244e-01    0.000000e+00
  1.258233e-01    0.000000e+00
  1.261222e-01    0.000000e+00
  1.264212e-01    0.000000e+00
  1.267201e-01    0.000000e+00
  1.270190e-01    0.000000e+00
  1.273179e-01    0.000000e+00
  1.276169e-01    0.000000e+00
  1.279158e-01    0.000000e+00
  1.282147e-01    0.000000e+00
  1.285137e-01    0.000000e+00
  1.288126e-01    0.000000e+00
  1.291115e-01    0.000000e+00
  1.294105e-01    0.000000e+00
  1.297094e-01    0.000000e+00
  1.300083e-01    0.000000e+00
  1.303072e-01    0.000000e+00
  1.306062e-01    0.000000e+00
  1.309051e-01    0.000000e+00
  1.312040e-01    0.000000e+00
  1.315030e-01    0.000000e+00
  1.318019e-01    0.000000e+00
  1.321008e-01    0.000000e+00
  1.323998e-01    0.000000e+00
  1.326987e-01    0.000000e+00
  1.329976e-01    0.000000e+00
  1.332965e-01    0.000000e+00
  1.335955e-01    0.000000e+00
  1.338944e-01    0.000000e+00
  1.341933e-01    0.000000e+00
  1.344923e-01    0.000000e+00
  1.347912e-01    0.000000e+00
  1.350901e-01    0.000000e+00
  1.353891e-01    0.000000e+00
  1.356880e-01    0.000000e+00
  1.359869e-01    0.000000e+00
  1.362859e-01    0.000000e+00
  1.365848e-01    0.000000e+00
  1.368837e-01    0.000000e+00
  1.371826e-01    0.000000e+00
  1.374816e-01    0.000000e+00
  1.377805e-01    0.000000e+00
  1.380794e-01    0.000000e+00
  1.383784e-01    0.000000e+00
  1.386773e-01    0.000000e+00
  1.389762e-01    0.000000e+00
  1.392752e-01    0.000000e+00
  1.395741e-01    0.000000e+00
  1.398730e-01    0.000000e+00
  1.401719e-01    0.000000e+00
  1.404709e-01    0.000000e+00
  1.407698e-01    0.000000e+00
  1.410687e-01    0.000000e+00
  1.413677e-01    0.000000e+00
  1.416666e-01    0.000000e+00
  1.419655e-01    0.000000e+00
  1.422645e-01    0.000000e+00
  1.425634e-01    0.000000e+00
  1.428623e-01    0.000000e+00
  1.431613e-01    0.000000e+00
  1.434602e-01    0.000000e+00
  1.437591e-01    0.000000e+00
  1.440580e-01    0.000000e+00
  1.443570e-01    0.000000e+00
  1.446559e-01    0.000000e+00
  1.449548e-01    0.000000e+00
  1.452538e-01    0.000000e+00
  1.455527e-01    0.000000e+00
  1.458516e-01    0.000000e+00
  1.461506e-01    0.000000e+00
  1.464495e-01    0.000000e+00
  1.467484e-01    0.000000e+00
  1.470473e-01    0.000000e+00
  1.473463e-01    0.000000e+00
  1.476452e-01    0.000000e+00
  1.479441e-01    0.000000e+00
  1.482431e-01    0.000000e+00
  1.485420e-01    0.000000e+00
  1.488409e-01    0.000000e+00
  1.491399e-01    0.000000e+00
  1.494388e-01    0.000000e+00
  1.497377e-01    0.000000e+00
  1.500367e-01    0.000000e+00
  1.503356e-01    0.000000e+00
  1.506345e-01    0.000000e+00
  1.509334e-01    0.000000e+00
  1.512324e-01    0.000000e+00
  1.515313e-01    0.000000e+00
  1.518302e-01    0.000000e+00
  1.521292e-01    0.000000e+00
  1.524281e-01    0.000000e+00
  1.527270e-01    0.000000e+00
  1.530260e-01    0.000000e+00
  1.533249e-01    0.000000e+00
  1.536238e-01    0.000000e+00
