# == pyFAI calibration ==
# Distance Sample to Detector: 2.266 m
# PONI: 5.659e-02, 4.293e-02 m
# Rotations: 0.000000 0.000000 0.000000 rad
# 
# == Fit2d calibration ==
# Distance Sample-beamCenter: 2266.000 mm
# Center: x=249.594, y=329.012 pix
# Tilt: 0.000 deg  TiltPlanRot: 0.000 deg
# 
# Detector Pilatus 300k	 PixelSize= 1.720e-04, 1.720e-04 m
#    Detector has a mask: True 
#    Detector has a dark current: False 
#    detector has a flat field: False 
# 
# Wavelength: 1.27818e-10 m
# Mask applied: user provided
# Dark current applied: False
# Flat field applied: False
# Polarization factor: None
# Normalization factor: 20967990.400000002
# --> F127_90.899_hexanes_154.529_EtOH_224.803_NaCl_100.000mgml_1_r1d.csv
#        q_A^-1             I 
  4.457554e-03    1.724168e-03
  4.756484e-03    1.348642e-03
  5.055415e-03    9.602318e-04
  5.354345e-03    6.824189e-04
  5.653276e-03    5.357557e-04
  5.952206e-03    9.103080e-04
  6.251136e-03    8.249513e-04
  6.550067e-03    7.092162e-04
  6.848997e-03    5.976140e-04
  7.147927e-03    5.022433e-04
  7.446858e-03    4.275341e-04
  7.745788e-03    3.656519e-04
  8.044719e-03    3.139465e-04
  8.343649e-03    2.741020e-04
  8.642579e-03    2.392840e-04
  8.941510e-03    2.101342e-04
  9.240440e-03    1.856722e-04
  9.539371e-03    1.647160e-04
  9.838301e-03    1.465511e-04
  1.013723e-02    1.312443e-04
  1.043616e-02    1.181487e-04
  1.073509e-02    1.059098e-04
  1.103402e-02    9.583890e-05
  1.133295e-02    8.699801e-05
  1.163188e-02    7.933375e-05
  1.193081e-02    7.250931e-05
  1.222974e-02    6.637440e-05
  1.252867e-02    6.096651e-05
  1.282760e-02    5.600676e-05
  1.312654e-02    5.168360e-05
  1.342547e-02    4.786122e-05
  1.372440e-02    4.458141e-05
  1.402333e-02    4.140862e-05
  1.432226e-02    3.853158e-05
  1.462119e-02    3.583681e-05
  1.492012e-02    3.356092e-05
  1.521905e-02    3.152872e-05
  1.551798e-02    2.961050e-05
  1.581691e-02    2.783485e-05
  1.611584e-02    2.621507e-05
  1.641477e-02    2.479337e-05
  1.671370e-02    2.337680e-05
  1.701263e-02    2.212930e-05
  1.731156e-02    2.101553e-05
  1.761049e-02    1.998604e-05
  1.790942e-02    1.907090e-05
  1.820835e-02    1.822305e-05
  1.850728e-02    1.742816e-05
  1.880621e-02    1.661226e-05
  1.910514e-02    1.596169e-05
  1.940407e-02    1.532819e-05
  1.970300e-02    1.474101e-05
  2.000193e-02    1.424505e-05
  2.030086e-02    1.377703e-05
  2.059979e-02    1.325108e-05
  2.089873e-02    1.275559e-05
  2.119766e-02    1.236409e-05
  2.149659e-02    1.200462e-05
  2.179552e-02    1.164410e-05
  2.209445e-02    1.130275e-05
  2.239338e-02    1.102090e-05
  2.269231e-02    1.072711e-05
  2.299124e-02    1.046967e-05
  2.329017e-02    1.028372e-05
  2.358910e-02    9.973219e-06
  2.388803e-02    9.689564e-06
  2.418696e-02    9.523859e-06
  2.448589e-02    9.363887e-06
  2.478482e-02    9.167804e-06
  2.508375e-02    8.978955e-06
  2.538268e-02    8.832806e-06
  2.568161e-02    8.702786e-06
  2.598054e-02    8.552473e-06
  2.627947e-02    8.398089e-06
  2.657840e-02    8.272703e-06
  2.687733e-02    8.141026e-06
  2.717626e-02    8.063126e-06
  2.747519e-02    7.945999e-06
  2.777412e-02    7.825176e-06
  2.807305e-02    7.757852e-06
  2.837198e-02    7.710996e-06
  2.867092e-02    7.587023e-06
  2.896985e-02    7.545173e-06
  2.926878e-02    7.467578e-06
  2.956771e-02    7.400099e-06
  2.986664e-02    7.329807e-06
  3.016557e-02    7.253971e-06
  3.046450e-02    7.231380e-06
  3.076343e-02    7.189321e-06
  3.106236e-02    7.137544e-06
  3.136129e-02    7.061636e-06
  3.166022e-02    7.065584e-06
  3.195915e-02    7.063095e-06
  3.225808e-02    7.014266e-06
  3.255701e-02    6.978772e-06
  3.285594e-02    6.964255e-06
  3.315487e-02    6.937808e-06
  3.345380e-02    6.870371e-06
  3.375273e-02    6.822089e-06
  3.405166e-02    6.778784e-06
  3.435059e-02    6.757165e-06
  3.464952e-02    6.709355e-06
  3.494845e-02    6.681452e-06
  3.524738e-02    6.675489e-06
  3.554631e-02    6.638340e-06
  3.584524e-02    6.601195e-06
  3.614417e-02    6.573514e-06
  3.644310e-02    6.569157e-06
  3.674204e-02    6.540638e-06
  3.704097e-02    6.526958e-06
  3.733990e-02    6.499815e-06
  3.763883e-02    6.431522e-06
  3.793776e-02    6.369544e-06
  3.823669e-02    6.307940e-06
  3.853562e-02    6.282758e-06
  3.883455e-02    6.246512e-06
  3.913348e-02    6.182863e-06
  3.943241e-02    6.142917e-06
  3.973134e-02    6.114818e-06
  4.003027e-02    6.085957e-06
  4.032920e-02    6.028627e-06
  4.062813e-02    6.008150e-06
  4.092706e-02    5.999126e-06
  4.122599e-02    5.922216e-06
  4.152492e-02    5.868486e-06
  4.182385e-02    5.846507e-06
  4.212278e-02    5.786158e-06
  4.242171e-02    5.750425e-06
  4.272064e-02    5.742631e-06
  4.301957e-02    5.687752e-06
  4.331850e-02    5.655573e-06
  4.361743e-02    5.622788e-06
  4.391636e-02    5.603709e-06
  4.421529e-02    5.550888e-06
  4.451423e-02    5.534293e-06
  4.481316e-02    5.523397e-06
  4.511209e-02    5.524901e-06
  4.541102e-02    5.528779e-06
  4.570995e-02    5.521661e-06
  4.600888e-02    5.508629e-06
  4.630781e-02    5.469146e-06
  4.660674e-02    5.451719e-06
  4.690567e-02    5.449560e-06
  4.720460e-02    5.446749e-06
  4.750353e-02    5.428063e-06
  4.780246e-02    5.436164e-06
  4.810139e-02    5.409039e-06
  4.840032e-02    5.369669e-06
  4.869925e-02    5.354576e-06
  4.899818e-02    5.366409e-06
  4.929711e-02    5.341444e-06
  4.959604e-02    5.344335e-06
  4.989497e-02    5.350597e-06
  5.019390e-02    5.342933e-06
  5.049283e-02    5.306805e-06
  5.079176e-02    5.303883e-06
  5.109069e-02    5.357611e-06
  5.138962e-02    5.386601e-06
  5.168855e-02    5.442548e-06
  5.198748e-02    5.521547e-06
  5.228642e-02    5.473099e-06
  5.258535e-02    5.345572e-06
  5.288428e-02    5.282996e-06
  5.318321e-02    5.301150e-06
  5.348214e-02    5.288129e-06
  5.378107e-02    5.286389e-06
  5.408000e-02    5.312278e-06
  5.437893e-02    5.292022e-06
  5.467786e-02    5.283714e-06
  5.497679e-02    5.276854e-06
  5.527572e-02    5.313149e-06
  5.557465e-02    5.319319e-06
  5.587358e-02    5.306752e-06
  5.617251e-02    5.310187e-06
  5.647144e-02    5.322879e-06
  5.677037e-02    5.311440e-06
  5.706930e-02    5.305683e-06
  5.736823e-02    5.328074e-06
  5.766716e-02    5.328893e-06
  5.796609e-02    5.313708e-06
  5.826502e-02    5.323256e-06
  5.856395e-02    5.343942e-06
  5.886288e-02    5.335844e-06
  5.916181e-02    5.341089e-06
  5.946074e-02    5.351319e-06
  5.975967e-02    5.362313e-06
  6.005861e-02    5.364108e-06
  6.035754e-02    5.369447e-06
  6.065647e-02    5.406486e-06
  6.095540e-02    5.422959e-06
  6.125433e-02    5.473712e-06
  6.155326e-02    5.502093e-06
  6.185219e-02    5.420998e-06
  6.215112e-02    5.408425e-06
  6.245005e-02    5.428839e-06
  6.274898e-02    5.440378e-06
  6.304791e-02    5.419274e-06
  6.334684e-02    5.406339e-06
  6.364577e-02    5.424909e-06
  6.394470e-02    5.431535e-06
  6.424363e-02    5.454914e-06
  6.454256e-02    5.476292e-06
  6.484149e-02    5.459050e-06
  6.514042e-02    5.465686e-06
  6.543935e-02    5.487333e-06
  6.573828e-02    5.481211e-06
  6.603721e-02    5.496428e-06
  6.633614e-02    5.511031e-06
  6.663507e-02    5.494380e-06
  6.693400e-02    5.476418e-06
  6.723293e-02    5.508596e-06
  6.753186e-02    5.530067e-06
  6.783080e-02    5.533701e-06
  6.812973e-02    5.526903e-06
  6.842866e-02    5.520739e-06
  6.872759e-02    5.534797e-06
  6.902652e-02    5.552341e-06
  6.932545e-02    5.542850e-06
  6.962438e-02    5.567859e-06
  6.992331e-02    5.572721e-06
  7.022224e-02    5.564088e-06
  7.052117e-02    5.585772e-06
  7.082010e-02    5.567489e-06
  7.111903e-02    5.580975e-06
  7.141796e-02    5.575222e-06
  7.171689e-02    5.585869e-06
  7.201582e-02    5.583899e-06
  7.231475e-02    5.593043e-06
  7.261368e-02    5.591659e-06
  7.291261e-02    5.605665e-06
  7.321154e-02    5.602157e-06
  7.351047e-02    5.604125e-06
  7.380940e-02    5.603985e-06
  7.410833e-02    5.595455e-06
  7.440726e-02    5.600165e-06
  7.470619e-02    5.596451e-06
  7.500512e-02    5.584943e-06
  7.530405e-02    5.591813e-06
  7.560299e-02    5.586473e-06
  7.590192e-02    5.579996e-06
  7.620085e-02    5.593387e-06
  7.649978e-02    5.594534e-06
  7.679871e-02    5.572236e-06
  7.709764e-02    5.584579e-06
  7.739657e-02    5.576207e-06
  7.769550e-02    5.580457e-06
  7.799443e-02    5.585665e-06
  7.829336e-02    5.573632e-06
  7.859229e-02    5.587439e-06
  7.889122e-02    5.584691e-06
  7.919015e-02    5.577407e-06
  7.948908e-02    5.551294e-06
  7.978801e-02    5.552706e-06
  8.008694e-02    5.554066e-06
  8.038587e-02    5.561554e-06
  8.068480e-02    5.556717e-06
  8.098373e-02    5.538763e-06
  8.128266e-02    5.527905e-06
  8.158159e-02    5.517023e-06
  8.188052e-02    5.508780e-06
  8.217945e-02    5.502124e-06
  8.247838e-02    5.502451e-06
  8.277731e-02    5.509159e-06
  8.307624e-02    5.497781e-06
  8.337518e-02    5.493971e-06
  8.367411e-02    5.465877e-06
  8.397304e-02    5.449843e-06
  8.427197e-02    5.475783e-06
  8.457090e-02    5.478125e-06
  8.486983e-02    5.474259e-06
  8.516876e-02    5.447845e-06
  8.546769e-02    5.439966e-06
  8.576662e-02    5.442082e-06
  8.606555e-02    5.429531e-06
  8.636448e-02    5.401810e-06
  8.666341e-02    5.401565e-06
  8.696234e-02    5.404347e-06
  8.726127e-02    5.408439e-06
  8.756020e-02    5.399435e-06
  8.785913e-02    5.362750e-06
  8.815806e-02    5.350378e-06
  8.845699e-02    5.336593e-06
  8.875592e-02    5.346678e-06
  8.905485e-02    5.346736e-06
  8.935378e-02    5.324199e-06
  8.965271e-02    5.304440e-06
  8.995164e-02    5.303611e-06
  9.025057e-02    5.282243e-06
  9.054950e-02    5.287247e-06
  9.084843e-02    5.274403e-06
  9.114737e-02    5.259968e-06
  9.144630e-02    5.256611e-06
  9.174523e-02    5.229992e-06
  9.204416e-02    5.224656e-06
  9.234309e-02    5.216395e-06
  9.264202e-02    5.195280e-06
  9.294095e-02    5.201123e-06
  9.323988e-02    5.174669e-06
  9.353881e-02    5.159139e-06
  9.383774e-02    5.169258e-06
  9.413667e-02    5.165565e-06
  9.443560e-02    5.158060e-06
  9.473453e-02    5.143729e-06
  9.503346e-02    5.121984e-06
  9.533239e-02    5.123591e-06
  9.563132e-02    5.117722e-06
  9.593025e-02    5.136430e-06
  9.622918e-02    5.129276e-06
  9.652811e-02    5.125099e-06
  9.682704e-02    5.126602e-06
  9.712597e-02    5.124982e-06
  9.742490e-02    5.116364e-06
  9.772383e-02    5.101921e-06
  9.802276e-02    5.063728e-06
  9.832169e-02    5.030369e-06
  9.862062e-02    5.022098e-06
  9.891956e-02    5.029801e-06
  9.921849e-02    5.033656e-06
  9.951742e-02    5.007744e-06
  9.981635e-02    4.988407e-06
  1.001153e-01    4.991809e-06
  1.004142e-01    4.998700e-06
  1.007131e-01    4.973984e-06
  1.010121e-01    4.947404e-06
  1.013110e-01    4.952089e-06
  1.016099e-01    4.943676e-06
  1.019089e-01    4.901629e-06
  1.022078e-01    4.872893e-06
  1.025067e-01    4.860810e-06
  1.028057e-01    4.900629e-06
  1.031046e-01    4.932057e-06
  1.034035e-01    4.892469e-06
  1.037024e-01    4.874305e-06
  1.040014e-01    4.865271e-06
  1.043003e-01    4.847412e-06
  1.045992e-01    4.840537e-06
  1.048982e-01    4.832521e-06
  1.051971e-01    4.822707e-06
  1.054960e-01    4.801823e-06
  1.057950e-01    4.780766e-06
  1.060939e-01    4.784923e-06
  1.063928e-01    4.774356e-06
  1.066917e-01    4.756334e-06
  1.069907e-01    4.743493e-06
  1.072896e-01    4.755081e-06
  1.075885e-01    4.725118e-06
  1.078875e-01    4.733066e-06
  1.081864e-01    4.729336e-06
  1.084853e-01    4.718033e-06
  1.087843e-01    4.719634e-06
  1.090832e-01    4.730757e-06
  1.093821e-01    4.701211e-06
  1.096810e-01    4.665414e-06
  1.099800e-01    4.655812e-06
  1.102789e-01    4.641820e-06
  1.105778e-01    4.615356e-06
  1.108768e-01    4.614845e-06
  1.111757e-01    4.613346e-06
  1.114746e-01    4.602497e-06
  1.117736e-01    4.584771e-06
  1.120725e-01    4.561870e-06
  1.123714e-01    4.565543e-06
  1.126704e-01    4.570278e-06
  1.129693e-01    4.546911e-06
  1.132682e-01    4.511508e-06
  1.135671e-01    4.498656e-06
  1.138661e-01    4.499632e-06
  1.141650e-01    4.452672e-06
  1.144639e-01    4.422694e-06
  1.147629e-01    4.412168e-06
  1.150618e-01    4.411780e-06
  1.153607e-01    4.453211e-06
  1.156597e-01    4.466218e-06
  1.159586e-01    4.423871e-06
  1.162575e-01    4.433168e-06
  1.165564e-01    4.463546e-06
  1.168554e-01    4.451646e-06
  1.171543e-01    4.440093e-06
  1.174532e-01    4.373721e-06
  1.177522e-01    4.384916e-06
  1.180511e-01    4.470189e-06
  1.183500e-01    4.432209e-06
  1.186490e-01    4.347901e-06
  1.189479e-01    4.324753e-06
  1.192468e-01    4.322913e-06
  1.195458e-01    4.300154e-06
  1.198447e-01    4.344324e-06
  1.201436e-01    4.438007e-06
  1.204425e-01    4.421480e-06
  1.207415e-01    4.351784e-06
  1.210404e-01    3.771061e-06
  1.213393e-01    0.000000e+00
  1.216383e-01    0.000000e+00
  1.219372e-01    0.000000e+00
  1.222361e-01    0.000000e+00
  1.225351e-01    0.000000e+00
  1.228340e-01    0.000000e+00
  1.231329e-01    0.000000e+00
  1.234318e-01    0.000000e+00
  1.237308e-01    0.000000e+00
  1.240297e-01    0.000000e+00
  1.243286e-01    0.000000e+00
  1.246276e-01    0.000000e+00
  1.249265e-01    0.000000e+00
  1.252254e-01    0.000000e+00
  1.255244e-01    0.000000e+00
  1.258233e-01    0.000000e+00
  1.261222e-01    0.000000e+00
  1.264212e-01    0.000000e+00
  1.267201e-01    0.000000e+00
  1.270190e-01    0.000000e+00
  1.273179e-01    0.000000e+00
  1.276169e-01    0.000000e+00
  1.279158e-01    0.000000e+00
  1.282147e-01    0.000000e+00
  1.285137e-01    0.000000e+00
  1.288126e-01    0.000000e+00
  1.291115e-01    0.000000e+00
  1.294105e-01    0.000000e+00
  1.297094e-01    0.000000e+00
  1.300083e-01    0.000000e+00
  1.303072e-01    0.000000e+00
  1.306062e-01    0.000000e+00
  1.309051e-01    0.000000e+00
  1.312040e-01    0.000000e+00
  1.315030e-01    0.000000e+00
  1.318019e-01    0.000000e+00
  1.321008e-01    0.000000e+00
  1.323998e-01    0.000000e+00
  1.326987e-01    0.000000e+00
  1.329976e-01    0.000000e+00
  1.332965e-01    0.000000e+00
  1.335955e-01    0.000000e+00
  1.338944e-01    0.000000e+00
  1.341933e-01    0.000000e+00
  1.344923e-01    0.000000e+00
  1.347912e-01    0.000000e+00
  1.350901e-01    0.000000e+00
  1.353891e-01    0.000000e+00
  1.356880e-01    0.000000e+00
  1.359869e-01    0.000000e+00
  1.362859e-01    0.000000e+00
  1.365848e-01    0.000000e+00
  1.368837e-01    0.000000e+00
  1.371826e-01    0.000000e+00
  1.374816e-01    0.000000e+00
  1.377805e-01    0.000000e+00
  1.380794e-01    0.000000e+00
  1.383784e-01    0.000000e+00
  1.386773e-01    0.000000e+00
  1.389762e-01    0.000000e+00
  1.392752e-01    0.000000e+00
  1.395741e-01    0.000000e+00
  1.398730e-01    0.000000e+00
  1.401719e-01    0.000000e+00
  1.404709e-01    0.000000e+00
  1.407698e-01    0.000000e+00
  1.410687e-01    0.000000e+00
  1.413677e-01    0.000000e+00
  1.416666e-01    0.000000e+00
  1.419655e-01    0.000000e+00
  1.422645e-01    0.000000e+00
  1.425634e-01    0.000000e+00
  1.428623e-01    0.000000e+00
  1.431613e-01    0.000000e+00
  1.434602e-01    0.000000e+00
  1.437591e-01    0.000000e+00
  1.440580e-01    0.000000e+00
  1.443570e-01    0.000000e+00
  1.446559e-01    0.000000e+00
  1.449548e-01    0.000000e+00
  1.452538e-01    0.000000e+00
  1.455527e-01    0.000000e+00
  1.458516e-01    0.000000e+00
  1.461506e-01    0.000000e+00
  1.464495e-01    0.000000e+00
  1.467484e-01    0.000000e+00
  1.470473e-01    0.000000e+00
  1.473463e-01    0.000000e+00
  1.476452e-01    0.000000e+00
  1.479441e-01    0.000000e+00
  1.482431e-01    0.000000e+00
  1.485420e-01    0.000000e+00
  1.488409e-01    0.000000e+00
  1.491399e-01    0.000000e+00
  1.494388e-01    0.000000e+00
  1.497377e-01    0.000000e+00
  1.500367e-01    0.000000e+00
  1.503356e-01    0.000000e+00
  1.506345e-01    0.000000e+00
  1.509334e-01    0.000000e+00
  1.512324e-01    0.000000e+00
  1.515313e-01    0.000000e+00
  1.518302e-01    0.000000e+00
  1.521292e-01    0.000000e+00
  1.524281e-01    0.000000e+00
  1.527270e-01    0.000000e+00
  1.530260e-01    0.000000e+00
  1.533249e-01    0.000000e+00
  1.536238e-01    0.000000e+00
