# == pyFAI calibration ==
# Distance Sample to Detector: 2.266 m
# PONI: 5.659e-02, 4.293e-02 m
# Rotations: 0.000000 0.000000 0.000000 rad
# 
# == Fit2d calibration ==
# Distance Sample-beamCenter: 2266.000 mm
# Center: x=249.594, y=329.012 pix
# Tilt: 0.000 deg  TiltPlanRot: 0.000 deg
# 
# Detector Pilatus 300k	 PixelSize= 1.720e-04, 1.720e-04 m
#    Detector has a mask: True 
#    Detector has a dark current: False 
#    detector has a flat field: False 
# 
# Wavelength: 1.27818e-10 m
# Mask applied: user provided
# Dark current applied: False
# Flat field applied: False
# Polarization factor: None
# Normalization factor: 18985722.400000002
# --> F127_120.614_hexanes_60.307_EtOH_214.716_NaCl_100.000mgml_1_r1d.csv
#        q_A^-1             I 
  4.457554e-03    1.780954e-03
  4.756484e-03    1.421844e-03
  5.055415e-03    1.034178e-03
  5.354345e-03    7.471752e-04
  5.653276e-03    5.930425e-04
  5.952206e-03    1.013430e-03
  6.251136e-03    9.230601e-04
  6.550067e-03    7.976133e-04
  6.848997e-03    6.744583e-04
  7.147927e-03    5.684861e-04
  7.446858e-03    4.850285e-04
  7.745788e-03    4.152579e-04
  8.044719e-03    3.573768e-04
  8.343649e-03    3.116392e-04
  8.642579e-03    2.728318e-04
  8.941510e-03    2.397106e-04
  9.240440e-03    2.122130e-04
  9.539371e-03    1.884081e-04
  9.838301e-03    1.674449e-04
  1.013723e-02    1.497332e-04
  1.043616e-02    1.346510e-04
  1.073509e-02    1.210538e-04
  1.103402e-02    1.093727e-04
  1.133295e-02    9.918929e-05
  1.163188e-02    9.016097e-05
  1.193081e-02    8.232834e-05
  1.222974e-02    7.540113e-05
  1.252867e-02    6.905368e-05
  1.282760e-02    6.353958e-05
  1.312654e-02    5.861929e-05
  1.342547e-02    5.419629e-05
  1.372440e-02    5.020316e-05
  1.402333e-02    4.658421e-05
  1.432226e-02    4.323779e-05
  1.462119e-02    4.034734e-05
  1.492012e-02    3.780606e-05
  1.521905e-02    3.533590e-05
  1.551798e-02    3.304482e-05
  1.581691e-02    3.103823e-05
  1.611584e-02    2.922069e-05
  1.641477e-02    2.756892e-05
  1.671370e-02    2.599757e-05
  1.701263e-02    2.456928e-05
  1.731156e-02    2.334058e-05
  1.761049e-02    2.217527e-05
  1.790942e-02    2.106871e-05
  1.820835e-02    2.008660e-05
  1.850728e-02    1.917629e-05
  1.880621e-02    1.827282e-05
  1.910514e-02    1.748898e-05
  1.940407e-02    1.669619e-05
  1.970300e-02    1.603638e-05
  2.000193e-02    1.542381e-05
  2.030086e-02    1.483239e-05
  2.059979e-02    1.430740e-05
  2.089873e-02    1.378703e-05
  2.119766e-02    1.331680e-05
  2.149659e-02    1.292432e-05
  2.179552e-02    1.252548e-05
  2.209445e-02    1.217667e-05
  2.239338e-02    1.181105e-05
  2.269231e-02    1.146709e-05
  2.299124e-02    1.120292e-05
  2.329017e-02    1.087788e-05
  2.358910e-02    1.060571e-05
  2.388803e-02    1.036003e-05
  2.418696e-02    1.011207e-05
  2.448589e-02    9.848905e-06
  2.478482e-02    9.638444e-06
  2.508375e-02    9.470996e-06
  2.538268e-02    9.266416e-06
  2.568161e-02    9.107103e-06
  2.598054e-02    8.922329e-06
  2.627947e-02    8.766416e-06
  2.657840e-02    8.658663e-06
  2.687733e-02    8.534205e-06
  2.717626e-02    8.363371e-06
  2.747519e-02    8.246888e-06
  2.777412e-02    8.171231e-06
  2.807305e-02    8.038130e-06
  2.837198e-02    7.927691e-06
  2.867092e-02    7.802465e-06
  2.896985e-02    7.713162e-06
  2.926878e-02    7.622035e-06
  2.956771e-02    7.503525e-06
  2.986664e-02    7.449154e-06
  3.016557e-02    7.361897e-06
  3.046450e-02    7.292357e-06
  3.076343e-02    7.260162e-06
  3.106236e-02    7.188995e-06
  3.136129e-02    7.079942e-06
  3.166022e-02    7.011929e-06
  3.195915e-02    6.944541e-06
  3.225808e-02    6.859656e-06
  3.255701e-02    6.842634e-06
  3.285594e-02    6.811204e-06
  3.315487e-02    6.741715e-06
  3.345380e-02    6.712802e-06
  3.375273e-02    6.679838e-06
  3.405166e-02    6.592889e-06
  3.435059e-02    6.479230e-06
  3.464952e-02    6.457965e-06
  3.494845e-02    6.429822e-06
  3.524738e-02    6.369547e-06
  3.554631e-02    6.295148e-06
  3.584524e-02    6.225901e-06
  3.614417e-02    6.224564e-06
  3.644310e-02    6.160127e-06
  3.674204e-02    6.152102e-06
  3.704097e-02    6.131803e-06
  3.733990e-02    6.069643e-06
  3.763883e-02    6.017723e-06
  3.793776e-02    5.969769e-06
  3.823669e-02    5.931736e-06
  3.853562e-02    5.898691e-06
  3.883455e-02    5.864091e-06
  3.913348e-02    5.873482e-06
  3.943241e-02    5.812031e-06
  3.973134e-02    5.776741e-06
  4.003027e-02    5.767932e-06
  4.032920e-02    5.748747e-06
  4.062813e-02    5.706675e-06
  4.092706e-02    5.708260e-06
  4.122599e-02    5.684170e-06
  4.152492e-02    5.643531e-06
  4.182385e-02    5.624868e-06
  4.212278e-02    5.600456e-06
  4.242171e-02    5.615830e-06
  4.272064e-02    5.609058e-06
  4.301957e-02    5.550891e-06
  4.331850e-02    5.545542e-06
  4.361743e-02    5.531670e-06
  4.391636e-02    5.531025e-06
  4.421529e-02    5.513142e-06
  4.451423e-02    5.510664e-06
  4.481316e-02    5.530224e-06
  4.511209e-02    5.518928e-06
  4.541102e-02    5.492765e-06
  4.570995e-02    5.499831e-06
  4.600888e-02    5.514223e-06
  4.630781e-02    5.513481e-06
  4.660674e-02    5.500599e-06
  4.690567e-02    5.479381e-06
  4.720460e-02    5.472871e-06
  4.750353e-02    5.462322e-06
  4.780246e-02    5.440587e-06
  4.810139e-02    5.460511e-06
  4.840032e-02    5.467771e-06
  4.869925e-02    5.471371e-06
  4.899818e-02    5.442032e-06
  4.929711e-02    5.441092e-06
  4.959604e-02    5.442579e-06
  4.989497e-02    5.434705e-06
  5.019390e-02    5.470732e-06
  5.049283e-02    5.447393e-06
  5.079176e-02    5.412710e-06
  5.109069e-02    5.426126e-06
  5.138962e-02    5.471765e-06
  5.168855e-02    5.554000e-06
  5.198748e-02    5.638262e-06
  5.228642e-02    5.599470e-06
  5.258535e-02    5.480006e-06
  5.288428e-02    5.443792e-06
  5.318321e-02    5.443427e-06
  5.348214e-02    5.414908e-06
  5.378107e-02    5.399207e-06
  5.408000e-02    5.418037e-06
  5.437893e-02    5.407464e-06
  5.467786e-02    5.396651e-06
  5.497679e-02    5.430452e-06
  5.527572e-02    5.440324e-06
  5.557465e-02    5.442362e-06
  5.587358e-02    5.422005e-06
  5.617251e-02    5.415567e-06
  5.647144e-02    5.420326e-06
  5.677037e-02    5.429733e-06
  5.706930e-02    5.444276e-06
  5.736823e-02    5.483756e-06
  5.766716e-02    5.494768e-06
  5.796609e-02    5.496137e-06
  5.826502e-02    5.480773e-06
  5.856395e-02    5.455077e-06
  5.886288e-02    5.474236e-06
  5.916181e-02    5.477319e-06
  5.946074e-02    5.503300e-06
  5.975967e-02    5.501276e-06
  6.005861e-02    5.503114e-06
  6.035754e-02    5.531336e-06
  6.065647e-02    5.540473e-06
  6.095540e-02    5.578402e-06
  6.125433e-02    5.638872e-06
  6.155326e-02    5.658755e-06
  6.185219e-02    5.619122e-06
  6.215112e-02    5.580055e-06
  6.245005e-02    5.556836e-06
  6.274898e-02    5.577586e-06
  6.304791e-02    5.607711e-06
  6.334684e-02    5.606882e-06
  6.364577e-02    5.590333e-06
  6.394470e-02    5.589905e-06
  6.424363e-02    5.599173e-06
  6.454256e-02    5.617871e-06
  6.484149e-02    5.603876e-06
  6.514042e-02    5.635477e-06
  6.543935e-02    5.654596e-06
  6.573828e-02    5.648444e-06
  6.603721e-02    5.651393e-06
  6.633614e-02    5.651681e-06
  6.663507e-02    5.673408e-06
  6.693400e-02    5.692273e-06
  6.723293e-02    5.701338e-06
  6.753186e-02    5.689586e-06
  6.783080e-02    5.710186e-06
  6.812973e-02    5.728550e-06
  6.842866e-02    5.712770e-06
  6.872759e-02    5.709181e-06
  6.902652e-02    5.724961e-06
  6.932545e-02    5.739636e-06
  6.962438e-02    5.742667e-06
  6.992331e-02    5.758945e-06
  7.022224e-02    5.771933e-06
  7.052117e-02    5.755715e-06
  7.082010e-02    5.765971e-06
  7.111903e-02    5.765110e-06
  7.141796e-02    5.794072e-06
  7.171689e-02    5.822449e-06
  7.201582e-02    5.787779e-06
  7.231475e-02    5.776094e-06
  7.261368e-02    5.780805e-06
  7.291261e-02    5.797034e-06
  7.321154e-02    5.805377e-06
  7.351047e-02    5.804851e-06
  7.380940e-02    5.793046e-06
  7.410833e-02    5.791062e-06
  7.440726e-02    5.792318e-06
  7.470619e-02    5.789128e-06
  7.500512e-02    5.799352e-06
  7.530405e-02    5.815889e-06
  7.560299e-02    5.807513e-06
  7.590192e-02    5.810824e-06
  7.620085e-02    5.802444e-06
  7.649978e-02    5.804138e-06
  7.679871e-02    5.816753e-06
  7.709764e-02    5.817063e-06
  7.739657e-02    5.790309e-06
  7.769550e-02    5.786539e-06
  7.799443e-02    5.799490e-06
  7.829336e-02    5.794080e-06
  7.859229e-02    5.783063e-06
  7.889122e-02    5.789253e-06
  7.919015e-02    5.791631e-06
  7.948908e-02    5.801189e-06
  7.978801e-02    5.798638e-06
  8.008694e-02    5.791205e-06
  8.038587e-02    5.772093e-06
  8.068480e-02    5.788788e-06
  8.098373e-02    5.777035e-06
  8.128266e-02    5.753141e-06
  8.158159e-02    5.750227e-06
  8.188052e-02    5.724234e-06
  8.217945e-02    5.743869e-06
  8.247838e-02    5.732671e-06
  8.277731e-02    5.725957e-06
  8.307624e-02    5.687731e-06
  8.337518e-02    5.684641e-06
  8.367411e-02    5.691962e-06
  8.397304e-02    5.696525e-06
  8.427197e-02    5.688186e-06
  8.457090e-02    5.682729e-06
  8.486983e-02    5.656907e-06
  8.516876e-02    5.653226e-06
  8.546769e-02    5.641472e-06
  8.576662e-02    5.632552e-06
  8.606555e-02    5.655599e-06
  8.636448e-02    5.633839e-06
  8.666341e-02    5.610200e-06
  8.696234e-02    5.611716e-06
  8.726127e-02    5.590157e-06
  8.756020e-02    5.572230e-06
  8.785913e-02    5.574188e-06
  8.815806e-02    5.568042e-06
  8.845699e-02    5.543673e-06
  8.875592e-02    5.522455e-06
  8.905485e-02    5.541141e-06
  8.935378e-02    5.557809e-06
  8.965271e-02    5.539754e-06
  8.995164e-02    5.510846e-06
  9.025057e-02    5.483016e-06
  9.054950e-02    5.472406e-06
  9.084843e-02    5.482133e-06
  9.114737e-02    5.479503e-06
  9.144630e-02    5.468594e-06
  9.174523e-02    5.440325e-06
  9.204416e-02    5.444862e-06
  9.234309e-02    5.446089e-06
  9.264202e-02    5.437054e-06
  9.294095e-02    5.416121e-06
  9.323988e-02    5.412943e-06
  9.353881e-02    5.406681e-06
  9.383774e-02    5.402106e-06
  9.413667e-02    5.394361e-06
  9.443560e-02    5.377372e-06
  9.473453e-02    5.363529e-06
  9.503346e-02    5.381150e-06
  9.533239e-02    5.363410e-06
  9.563132e-02    5.343637e-06
  9.593025e-02    5.347007e-06
  9.622918e-02    5.357168e-06
  9.652811e-02    5.351092e-06
  9.682704e-02    5.355389e-06
  9.712597e-02    5.322418e-06
  9.742490e-02    5.321508e-06
  9.772383e-02    5.326437e-06
  9.802276e-02    5.276278e-06
  9.832169e-02    5.251131e-06
  9.862062e-02    5.244513e-06
  9.891956e-02    5.231180e-06
  9.921849e-02    5.210994e-06
  9.951742e-02    5.204618e-06
  9.981635e-02    5.211843e-06
  1.001153e-01    5.223788e-06
  1.004142e-01    5.197334e-06
  1.007131e-01    5.171607e-06
  1.010121e-01    5.146087e-06
  1.013110e-01    5.133346e-06
  1.016099e-01    5.124079e-06
  1.019089e-01    5.111445e-06
  1.022078e-01    5.092515e-06
  1.025067e-01    5.095504e-06
  1.028057e-01    5.110983e-06
  1.031046e-01    5.088310e-06
  1.034035e-01    5.074417e-06
  1.037024e-01    5.059772e-06
  1.040014e-01    5.040868e-06
  1.043003e-01    5.041358e-06
  1.045992e-01    5.041712e-06
  1.048982e-01    5.025220e-06
  1.051971e-01    5.029302e-06
  1.054960e-01    5.005847e-06
  1.057950e-01    4.984906e-06
  1.060939e-01    4.973545e-06
  1.063928e-01    4.987891e-06
  1.066917e-01    4.993710e-06
  1.069907e-01    4.982781e-06
  1.072896e-01    4.962340e-06
  1.075885e-01    4.954318e-06
  1.078875e-01    4.965240e-06
  1.081864e-01    4.949921e-06
  1.084853e-01    4.939973e-06
  1.087843e-01    4.934884e-06
  1.090832e-01    4.913928e-06
  1.093821e-01    4.909020e-06
  1.096810e-01    4.886469e-06
  1.099800e-01    4.870813e-06
  1.102789e-01    4.848662e-06
  1.105778e-01    4.831470e-06
  1.108768e-01    4.823605e-06
  1.111757e-01    4.802240e-06
  1.114746e-01    4.770622e-06
  1.117736e-01    4.765128e-06
  1.120725e-01    4.770494e-06
  1.123714e-01    4.751242e-06
  1.126704e-01    4.735941e-06
  1.129693e-01    4.707429e-06
  1.132682e-01    4.692004e-06
  1.135671e-01    4.678181e-06
  1.138661e-01    4.690112e-06
  1.141650e-01    4.688412e-06
  1.144639e-01    4.700573e-06
  1.147629e-01    4.679484e-06
  1.150618e-01    4.653866e-06
  1.153607e-01    4.620449e-06
  1.156597e-01    4.585340e-06
  1.159586e-01    4.622959e-06
  1.162575e-01    4.630260e-06
  1.165564e-01    4.626416e-06
  1.168554e-01    4.621997e-06
  1.171543e-01    4.634879e-06
  1.174532e-01    4.597171e-06
  1.177522e-01    4.559981e-06
  1.180511e-01    4.604489e-06
  1.183500e-01    4.585600e-06
  1.186490e-01    4.539046e-06
  1.189479e-01    4.559926e-06
  1.192468e-01    4.561663e-06
  1.195458e-01    4.519350e-06
  1.198447e-01    4.484524e-06
  1.201436e-01    4.528447e-06
  1.204425e-01    4.627316e-06
  1.207415e-01    4.427372e-06
  1.210404e-01    4.428385e-06
  1.213393e-01    0.000000e+00
  1.216383e-01    0.000000e+00
  1.219372e-01    0.000000e+00
  1.222361e-01    0.000000e+00
  1.225351e-01    0.000000e+00
  1.228340e-01    0.000000e+00
  1.231329e-01    0.000000e+00
  1.234318e-01    0.000000e+00
  1.237308e-01    0.000000e+00
  1.240297e-01    0.000000e+00
  1.243286e-01    0.000000e+00
  1.246276e-01    0.000000e+00
  1.249265e-01    0.000000e+00
  1.252254e-01    0.000000e+00
  1.255244e-01    0.000000e+00
  1.258233e-01    0.000000e+00
  1.261222e-01    0.000000e+00
  1.264212e-01    0.000000e+00
  1.267201e-01    0.000000e+00
  1.270190e-01    0.000000e+00
  1.273179e-01    0.000000e+00
  1.276169e-01    0.000000e+00
  1.279158e-01    0.000000e+00
  1.282147e-01    0.000000e+00
  1.285137e-01    0.000000e+00
  1.288126e-01    0.000000e+00
  1.291115e-01    0.000000e+00
  1.294105e-01    0.000000e+00
  1.297094e-01    0.000000e+00
  1.300083e-01    0.000000e+00
  1.303072e-01    0.000000e+00
  1.306062e-01    0.000000e+00
  1.309051e-01    0.000000e+00
  1.312040e-01    0.000000e+00
  1.315030e-01    0.000000e+00
  1.318019e-01    0.000000e+00
  1.321008e-01    0.000000e+00
  1.323998e-01    0.000000e+00
  1.326987e-01    0.000000e+00
  1.329976e-01    0.000000e+00
  1.332965e-01    0.000000e+00
  1.335955e-01    0.000000e+00
  1.338944e-01    0.000000e+00
  1.341933e-01    0.000000e+00
  1.344923e-01    0.000000e+00
  1.347912e-01    0.000000e+00
  1.350901e-01    0.000000e+00
  1.353891e-01    0.000000e+00
  1.356880e-01    0.000000e+00
  1.359869e-01    0.000000e+00
  1.362859e-01    0.000000e+00
  1.365848e-01    0.000000e+00
  1.368837e-01    0.000000e+00
  1.371826e-01    0.000000e+00
  1.374816e-01    0.000000e+00
  1.377805e-01    0.000000e+00
  1.380794e-01    0.000000e+00
  1.383784e-01    0.000000e+00
  1.386773e-01    0.000000e+00
  1.389762e-01    0.000000e+00
  1.392752e-01    0.000000e+00
  1.395741e-01    0.000000e+00
  1.398730e-01    0.000000e+00
  1.401719e-01    0.000000e+00
  1.404709e-01    0.000000e+00
  1.407698e-01    0.000000e+00
  1.410687e-01    0.000000e+00
  1.413677e-01    0.000000e+00
  1.416666e-01    0.000000e+00
  1.419655e-01    0.000000e+00
  1.422645e-01    0.000000e+00
  1.425634e-01    0.000000e+00
  1.428623e-01    0.000000e+00
  1.431613e-01    0.000000e+00
  1.434602e-01    0.000000e+00
  1.437591e-01    0.000000e+00
  1.440580e-01    0.000000e+00
  1.443570e-01    0.000000e+00
  1.446559e-01    0.000000e+00
  1.449548e-01    0.000000e+00
  1.452538e-01    0.000000e+00
  1.455527e-01    0.000000e+00
  1.458516e-01    0.000000e+00
  1.461506e-01    0.000000e+00
  1.464495e-01    0.000000e+00
  1.467484e-01    0.000000e+00
  1.470473e-01    0.000000e+00
  1.473463e-01    0.000000e+00
  1.476452e-01    0.000000e+00
  1.479441e-01    0.000000e+00
  1.482431e-01    0.000000e+00
  1.485420e-01    0.000000e+00
  1.488409e-01    0.000000e+00
  1.491399e-01    0.000000e+00
  1.494388e-01    0.000000e+00
  1.497377e-01    0.000000e+00
  1.500367e-01    0.000000e+00
  1.503356e-01    0.000000e+00
  1.506345e-01    0.000000e+00
  1.509334e-01    0.000000e+00
  1.512324e-01    0.000000e+00
  1.515313e-01    0.000000e+00
  1.518302e-01    0.000000e+00
  1.521292e-01    0.000000e+00
  1.524281e-01    0.000000e+00
  1.527270e-01    0.000000e+00
  1.530260e-01    0.000000e+00
  1.533249e-01    0.000000e+00
  1.536238e-01    0.000000e+00
