# == pyFAI calibration ==
# Distance Sample to Detector: 2.266 m
# PONI: 5.659e-02, 4.293e-02 m
# Rotations: 0.000000 0.000000 0.000000 rad
# 
# == Fit2d calibration ==
# Distance Sample-beamCenter: 2266.000 mm
# Center: x=249.594, y=329.012 pix
# Tilt: 0.000 deg  TiltPlanRot: 0.000 deg
# 
# Detector Pilatus 300k	 PixelSize= 1.720e-04, 1.720e-04 m
#    Detector has a mask: True 
#    Detector has a dark current: False 
#    detector has a flat field: False 
# 
# Wavelength: 1.27818e-10 m
# Mask applied: user provided
# Dark current applied: False
# Flat field applied: False
# Polarization factor: None
# Normalization factor: 13856378.8
# --> F127_75.877_NaCl_128.992_limonene_257.983mgml_0_r1d.csv
#        q_A^-1             I 
  4.457554e-03    2.183555e-04
  4.756484e-03    1.674820e-04
  5.055415e-03    1.163708e-04
  5.354345e-03    7.863842e-05
  5.653276e-03    5.691504e-05
  5.952206e-03    8.495169e-05
  6.251136e-03    7.719039e-05
  6.550067e-03    6.762703e-05
  6.848997e-03    5.791918e-05
  7.147927e-03    4.905490e-05
  7.446858e-03    4.225210e-05
  7.745788e-03    3.643063e-05
  8.044719e-03    3.156405e-05
  8.343649e-03    2.774481e-05
  8.642579e-03    2.451248e-05
  8.941510e-03    2.170715e-05
  9.240440e-03    1.941119e-05
  9.539371e-03    1.753546e-05
  9.838301e-03    1.590169e-05
  1.013723e-02    1.443576e-05
  1.043616e-02    1.320499e-05
  1.073509e-02    1.218372e-05
  1.103402e-02    1.129082e-05
  1.133295e-02    1.038750e-05
  1.163188e-02    9.660920e-06
  1.193081e-02    9.070740e-06
  1.222974e-02    8.545374e-06
  1.252867e-02    8.122755e-06
  1.282760e-02    7.699493e-06
  1.312654e-02    7.320923e-06
  1.342547e-02    7.050593e-06
  1.372440e-02    6.692718e-06
  1.402333e-02    6.449047e-06
  1.432226e-02    6.251395e-06
  1.462119e-02    6.100231e-06
  1.492012e-02    5.965846e-06
  1.521905e-02    5.800840e-06
  1.551798e-02    5.788067e-06
  1.581691e-02    5.749692e-06
  1.611584e-02    5.669408e-06
  1.641477e-02    5.664380e-06
  1.671370e-02    5.658978e-06
  1.701263e-02    5.699239e-06
  1.731156e-02    5.740900e-06
  1.761049e-02    5.791146e-06
  1.790942e-02    5.929374e-06
  1.820835e-02    6.028113e-06
  1.850728e-02    6.138157e-06
  1.880621e-02    6.312018e-06
  1.910514e-02    6.485410e-06
  1.940407e-02    6.661816e-06
  1.970300e-02    6.854506e-06
  2.000193e-02    7.086215e-06
  2.030086e-02    7.266607e-06
  2.059979e-02    7.512249e-06
  2.089873e-02    7.768440e-06
  2.119766e-02    7.966502e-06
  2.149659e-02    8.197514e-06
  2.179552e-02    8.408746e-06
  2.209445e-02    8.550493e-06
  2.239338e-02    8.776778e-06
  2.269231e-02    8.964499e-06
  2.299124e-02    9.140392e-06
  2.329017e-02    9.252354e-06
  2.358910e-02    9.279508e-06
  2.388803e-02    9.293110e-06
  2.418696e-02    9.289818e-06
  2.448589e-02    9.239163e-06
  2.478482e-02    9.225475e-06
  2.508375e-02    9.159974e-06
  2.538268e-02    8.969157e-06
  2.568161e-02    8.782219e-06
  2.598054e-02    8.598902e-06
  2.627947e-02    8.440718e-06
  2.657840e-02    8.295311e-06
  2.687733e-02    8.069669e-06
  2.717626e-02    7.837260e-06
  2.747519e-02    7.606710e-06
  2.777412e-02    7.387621e-06
  2.807305e-02    7.106566e-06
  2.837198e-02    6.855045e-06
  2.867092e-02    6.665743e-06
  2.896985e-02    6.460125e-06
  2.926878e-02    6.288792e-06
  2.956771e-02    6.056718e-06
  2.986664e-02    5.884518e-06
  3.016557e-02    5.711108e-06
  3.046450e-02    5.561804e-06
  3.076343e-02    5.416244e-06
  3.106236e-02    5.255020e-06
  3.136129e-02    5.105288e-06
  3.166022e-02    5.028630e-06
  3.195915e-02    4.932780e-06
  3.225808e-02    4.798259e-06
  3.255701e-02    4.646083e-06
  3.285594e-02    4.536088e-06
  3.315487e-02    4.442444e-06
  3.345380e-02    4.360026e-06
  3.375273e-02    4.307688e-06
  3.405166e-02    4.222166e-06
  3.435059e-02    4.145447e-06
  3.464952e-02    4.094643e-06
  3.494845e-02    4.059289e-06
  3.524738e-02    3.983222e-06
  3.554631e-02    3.892758e-06
  3.584524e-02    3.850292e-06
  3.614417e-02    3.853854e-06
  3.644310e-02    3.806422e-06
  3.674204e-02    3.732140e-06
  3.704097e-02    3.716883e-06
  3.733990e-02    3.689306e-06
  3.763883e-02    3.639235e-06
  3.793776e-02    3.628760e-06
  3.823669e-02    3.588808e-06
  3.853562e-02    3.553574e-06
  3.883455e-02    3.521526e-06
  3.913348e-02    3.525021e-06
  3.943241e-02    3.499381e-06
  3.973134e-02    3.462747e-06
  4.003027e-02    3.465217e-06
  4.032920e-02    3.430654e-06
  4.062813e-02    3.401794e-06
  4.092706e-02    3.404087e-06
  4.122599e-02    3.368793e-06
  4.152492e-02    3.348087e-06
  4.182385e-02    3.317962e-06
  4.212278e-02    3.305032e-06
  4.242171e-02    3.294459e-06
  4.272064e-02    3.267196e-06
  4.301957e-02    3.246994e-06
  4.331850e-02    3.232945e-06
  4.361743e-02    3.202702e-06
  4.391636e-02    3.164174e-06
  4.421529e-02    3.141660e-06
  4.451423e-02    3.092482e-06
  4.481316e-02    3.063594e-06
  4.511209e-02    3.072730e-06
  4.541102e-02    3.039791e-06
  4.570995e-02    2.972781e-06
  4.600888e-02    2.929892e-06
  4.630781e-02    2.902346e-06
  4.660674e-02    2.879619e-06
  4.690567e-02    2.829285e-06
  4.720460e-02    2.794716e-06
  4.750353e-02    2.766574e-06
  4.780246e-02    2.744184e-06
  4.810139e-02    2.695872e-06
  4.840032e-02    2.662781e-06
  4.869925e-02    2.633747e-06
  4.899818e-02    2.564127e-06
  4.929711e-02    2.478636e-06
  4.959604e-02    2.466573e-06
  4.989497e-02    2.452423e-06
  5.019390e-02    2.420519e-06
  5.049283e-02    2.349530e-06
  5.079176e-02    2.292200e-06
  5.109069e-02    2.255687e-06
  5.138962e-02    2.216252e-06
  5.168855e-02    2.184763e-06
  5.198748e-02    2.160531e-06
  5.228642e-02    2.117303e-06
  5.258535e-02    2.068489e-06
  5.288428e-02    2.016814e-06
  5.318321e-02    1.988130e-06
  5.348214e-02    1.944947e-06
  5.378107e-02    1.895712e-06
  5.408000e-02    1.869306e-06
  5.437893e-02    1.822299e-06
  5.467786e-02    1.794628e-06
  5.497679e-02    1.788022e-06
  5.527572e-02    1.750631e-06
  5.557465e-02    1.716343e-06
  5.587358e-02    1.685525e-06
  5.617251e-02    1.658896e-06
  5.647144e-02    1.616099e-06
  5.677037e-02    1.589486e-06
  5.706930e-02    1.572822e-06
  5.736823e-02    1.548737e-06
  5.766716e-02    1.522331e-06
  5.796609e-02    1.492660e-06
  5.826502e-02    1.467907e-06
  5.856395e-02    1.456185e-06
  5.886288e-02    1.430256e-06
  5.916181e-02    1.405017e-06
  5.946074e-02    1.370295e-06
  5.975967e-02    1.347494e-06
  6.005861e-02    1.336532e-06
  6.035754e-02    1.319144e-06
  6.065647e-02    1.312036e-06
  6.095540e-02    1.295688e-06
  6.125433e-02    1.283913e-06
  6.155326e-02    1.265519e-06
  6.185219e-02    1.240741e-06
  6.215112e-02    1.209430e-06
  6.245005e-02    1.209520e-06
  6.274898e-02    1.196835e-06
  6.304791e-02    1.182369e-06
  6.334684e-02    1.184288e-06
  6.364577e-02    1.154435e-06
  6.394470e-02    1.140881e-06
  6.424363e-02    1.146658e-06
  6.454256e-02    1.113543e-06
  6.484149e-02    1.103289e-06
  6.514042e-02    1.105738e-06
  6.543935e-02    1.082864e-06
  6.573828e-02    1.058538e-06
  6.603721e-02    1.037570e-06
  6.633614e-02    1.036864e-06
  6.663507e-02    1.040220e-06
  6.693400e-02    1.015985e-06
  6.723293e-02    1.002776e-06
  6.753186e-02    1.000600e-06
  6.783080e-02    9.922992e-07
  6.812973e-02    9.833891e-07
  6.842866e-02    9.734973e-07
  6.872759e-02    9.717884e-07
  6.902652e-02    9.666188e-07
  6.932545e-02    9.598483e-07
  6.962438e-02    9.476274e-07
  6.992331e-02    9.430432e-07
  7.022224e-02    9.388916e-07
  7.052117e-02    9.200384e-07
  7.082010e-02    9.101843e-07
  7.111903e-02    9.075878e-07
  7.141796e-02    9.098664e-07
  7.171689e-02    9.074041e-07
  7.201582e-02    9.017254e-07
  7.231475e-02    8.921892e-07
  7.261368e-02    8.842861e-07
  7.291261e-02    8.796571e-07
  7.321154e-02    8.797200e-07
  7.351047e-02    8.868536e-07
  7.380940e-02    8.713830e-07
  7.410833e-02    8.617032e-07
  7.440726e-02    8.567304e-07
  7.470619e-02    8.529350e-07
  7.500512e-02    8.517677e-07
  7.530405e-02    8.508731e-07
  7.560299e-02    8.370303e-07
  7.590192e-02    8.360030e-07
  7.620085e-02    8.427743e-07
  7.649978e-02    8.412961e-07
  7.679871e-02    8.406615e-07
  7.709764e-02    8.401254e-07
  7.739657e-02    8.223607e-07
  7.769550e-02    8.189268e-07
  7.799443e-02    8.286582e-07
  7.829336e-02    8.245552e-07
  7.859229e-02    8.218335e-07
  7.889122e-02    8.252470e-07
  7.919015e-02    8.167172e-07
  7.948908e-02    8.102700e-07
  7.978801e-02    8.118510e-07
  8.008694e-02    8.219154e-07
  8.038587e-02    8.200597e-07
  8.068480e-02    8.162880e-07
  8.098373e-02    8.169318e-07
  8.128266e-02    8.197450e-07
  8.158159e-02    8.118624e-07
  8.188052e-02    8.050574e-07
  8.217945e-02    8.071844e-07
  8.247838e-02    8.109155e-07
  8.277731e-02    8.061486e-07
  8.307624e-02    8.134364e-07
  8.337518e-02    8.077922e-07
  8.367411e-02    7.994888e-07
  8.397304e-02    8.029990e-07
  8.427197e-02    8.034764e-07
  8.457090e-02    8.022416e-07
  8.486983e-02    8.115217e-07
  8.516876e-02    8.091174e-07
  8.546769e-02    7.970829e-07
  8.576662e-02    7.964849e-07
  8.606555e-02    8.084871e-07
  8.636448e-02    8.080880e-07
  8.666341e-02    8.006635e-07
  8.696234e-02    8.005228e-07
  8.726127e-02    8.005047e-07
  8.756020e-02    8.005062e-07
  8.785913e-02    7.972038e-07
  8.815806e-02    7.888336e-07
  8.845699e-02    7.839511e-07
  8.875592e-02    7.940027e-07
  8.905485e-02    8.035084e-07
  8.935378e-02    8.036631e-07
  8.965271e-02    8.003107e-07
  8.995164e-02    7.949764e-07
  9.025057e-02    7.951386e-07
  9.054950e-02    8.007365e-07
  9.084843e-02    8.043843e-07
  9.114737e-02    8.066704e-07
  9.144630e-02    8.061731e-07
  9.174523e-02    8.013669e-07
  9.204416e-02    8.031622e-07
  9.234309e-02    8.031551e-07
  9.264202e-02    8.042567e-07
  9.294095e-02    8.038204e-07
  9.323988e-02    8.089799e-07
  9.353881e-02    8.083852e-07
  9.383774e-02    8.074387e-07
  9.413667e-02    8.041226e-07
  9.443560e-02    8.099802e-07
  9.473453e-02    8.095662e-07
  9.503346e-02    8.110829e-07
  9.533239e-02    8.008087e-07
  9.563132e-02    8.111431e-07
  9.593025e-02    8.074853e-07
  9.622918e-02    7.974392e-07
  9.652811e-02    8.014096e-07
  9.682704e-02    8.028179e-07
  9.712597e-02    8.040809e-07
  9.742490e-02    8.033108e-07
  9.772383e-02    8.141439e-07
  9.802276e-02    8.124983e-07
  9.832169e-02    8.049712e-07
  9.862062e-02    8.044565e-07
  9.891956e-02    8.040569e-07
  9.921849e-02    8.051616e-07
  9.951742e-02    8.057033e-07
  9.981635e-02    8.029879e-07
  1.001153e-01    8.019665e-07
  1.004142e-01    7.998831e-07
  1.007131e-01    7.930543e-07
  1.010121e-01    8.026627e-07
  1.013110e-01    8.065238e-07
  1.016099e-01    7.934222e-07
  1.019089e-01    7.949953e-07
  1.022078e-01    8.002557e-07
  1.025067e-01    7.961206e-07
  1.028057e-01    7.882678e-07
  1.031046e-01    7.886536e-07
  1.034035e-01    7.948680e-07
  1.037024e-01    7.960545e-07
  1.040014e-01    7.930095e-07
  1.043003e-01    7.966847e-07
  1.045992e-01    7.983924e-07
  1.048982e-01    8.001699e-07
  1.051971e-01    7.958431e-07
  1.054960e-01    7.805395e-07
  1.057950e-01    7.842378e-07
  1.060939e-01    7.848784e-07
  1.063928e-01    7.876708e-07
  1.066917e-01    7.889861e-07
  1.069907e-01    7.917956e-07
  1.072896e-01    7.859410e-07
  1.075885e-01    7.932286e-07
  1.078875e-01    7.951316e-07
  1.081864e-01    7.966848e-07
  1.084853e-01    7.928992e-07
  1.087843e-01    7.897311e-07
  1.090832e-01    8.013043e-07
  1.093821e-01    7.991663e-07
  1.096810e-01    7.942863e-07
  1.099800e-01    7.898271e-07
  1.102789e-01    7.828769e-07
  1.105778e-01    7.792560e-07
  1.108768e-01    7.786426e-07
  1.111757e-01    7.778799e-07
  1.114746e-01    7.700596e-07
  1.117736e-01    7.699657e-07
  1.120725e-01    7.650949e-07
  1.123714e-01    7.567896e-07
  1.126704e-01    7.387884e-07
  1.129693e-01    7.330659e-07
  1.132682e-01    7.254849e-07
  1.135671e-01    7.206595e-07
  1.138661e-01    7.234621e-07
  1.141650e-01    7.175677e-07
  1.144639e-01    7.184165e-07
  1.147629e-01    7.062772e-07
  1.150618e-01    6.929456e-07
  1.153607e-01    6.915778e-07
  1.156597e-01    6.844101e-07
  1.159586e-01    6.627585e-07
  1.162575e-01    6.785717e-07
  1.165564e-01    6.787895e-07
  1.168554e-01    6.737880e-07
  1.171543e-01    6.815397e-07
  1.174532e-01    6.947112e-07
  1.177522e-01    7.019447e-07
  1.180511e-01    6.861927e-07
  1.183500e-01    6.871865e-07
  1.186490e-01    6.740187e-07
  1.189479e-01    6.797367e-07
  1.192468e-01    6.945571e-07
  1.195458e-01    6.906498e-07
  1.198447e-01    6.876244e-07
  1.201436e-01    6.888289e-07
  1.204425e-01    7.303252e-07
  1.207415e-01    8.241055e-07
  1.210404e-01    7.945773e-07
  1.213393e-01    0.000000e+00
  1.216383e-01    0.000000e+00
  1.219372e-01    0.000000e+00
  1.222361e-01    0.000000e+00
  1.225351e-01    0.000000e+00
  1.228340e-01    0.000000e+00
  1.231329e-01    0.000000e+00
  1.234318e-01    0.000000e+00
  1.237308e-01    0.000000e+00
  1.240297e-01    0.000000e+00
  1.243286e-01    0.000000e+00
  1.246276e-01    0.000000e+00
  1.249265e-01    0.000000e+00
  1.252254e-01    0.000000e+00
  1.255244e-01    0.000000e+00
  1.258233e-01    0.000000e+00
  1.261222e-01    0.000000e+00
  1.264212e-01    0.000000e+00
  1.267201e-01    0.000000e+00
  1.270190e-01    0.000000e+00
  1.273179e-01    0.000000e+00
  1.276169e-01    0.000000e+00
  1.279158e-01    0.000000e+00
  1.282147e-01    0.000000e+00
  1.285137e-01    0.000000e+00
  1.288126e-01    0.000000e+00
  1.291115e-01    0.000000e+00
  1.294105e-01    0.000000e+00
  1.297094e-01    0.000000e+00
  1.300083e-01    0.000000e+00
  1.303072e-01    0.000000e+00
  1.306062e-01    0.000000e+00
  1.309051e-01    0.000000e+00
  1.312040e-01    0.000000e+00
  1.315030e-01    0.000000e+00
  1.318019e-01    0.000000e+00
  1.321008e-01    0.000000e+00
  1.323998e-01    0.000000e+00
  1.326987e-01    0.000000e+00
  1.329976e-01    0.000000e+00
  1.332965e-01    0.000000e+00
  1.335955e-01    0.000000e+00
  1.338944e-01    0.000000e+00
  1.341933e-01    0.000000e+00
  1.344923e-01    0.000000e+00
  1.347912e-01    0.000000e+00
  1.350901e-01    0.000000e+00
  1.353891e-01    0.000000e+00
  1.356880e-01    0.000000e+00
  1.359869e-01    0.000000e+00
  1.362859e-01    0.000000e+00
  1.365848e-01    0.000000e+00
  1.368837e-01    0.000000e+00
  1.371826e-01    0.000000e+00
  1.374816e-01    0.000000e+00
  1.377805e-01    0.000000e+00
  1.380794e-01    0.000000e+00
  1.383784e-01    0.000000e+00
  1.386773e-01    0.000000e+00
  1.389762e-01    0.000000e+00
  1.392752e-01    0.000000e+00
  1.395741e-01    0.000000e+00
  1.398730e-01    0.000000e+00
  1.401719e-01    0.000000e+00
  1.404709e-01    0.000000e+00
  1.407698e-01    0.000000e+00
  1.410687e-01    0.000000e+00
  1.413677e-01    0.000000e+00
  1.416666e-01    0.000000e+00
  1.419655e-01    0.000000e+00
  1.422645e-01    0.000000e+00
  1.425634e-01    0.000000e+00
  1.428623e-01    0.000000e+00
  1.431613e-01    0.000000e+00
  1.434602e-01    0.000000e+00
  1.437591e-01    0.000000e+00
  1.440580e-01    0.000000e+00
  1.443570e-01    0.000000e+00
  1.446559e-01    0.000000e+00
  1.449548e-01    0.000000e+00
  1.452538e-01    0.000000e+00
  1.455527e-01    0.000000e+00
  1.458516e-01    0.000000e+00
  1.461506e-01    0.000000e+00
  1.464495e-01    0.000000e+00
  1.467484e-01    0.000000e+00
  1.470473e-01    0.000000e+00
  1.473463e-01    0.000000e+00
  1.476452e-01    0.000000e+00
  1.479441e-01    0.000000e+00
  1.482431e-01    0.000000e+00
  1.485420e-01    0.000000e+00
  1.488409e-01    0.000000e+00
  1.491399e-01    0.000000e+00
  1.494388e-01    0.000000e+00
  1.497377e-01    0.000000e+00
  1.500367e-01    0.000000e+00
  1.503356e-01    0.000000e+00
  1.506345e-01    0.000000e+00
  1.509334e-01    0.000000e+00
  1.512324e-01    0.000000e+00
  1.515313e-01    0.000000e+00
  1.518302e-01    0.000000e+00
  1.521292e-01    0.000000e+00
  1.524281e-01    0.000000e+00
  1.527270e-01    0.000000e+00
  1.530260e-01    0.000000e+00
  1.533249e-01    0.000000e+00
  1.536238e-01    0.000000e+00
