# == pyFAI calibration ==
# Distance Sample to Detector: 2.266 m
# PONI: 5.659e-02, 4.293e-02 m
# Rotations: 0.000000 0.000000 0.000000 rad
# 
# == Fit2d calibration ==
# Distance Sample-beamCenter: 2266.000 mm
# Center: x=249.594, y=329.012 pix
# Tilt: 0.000 deg  TiltPlanRot: 0.000 deg
# 
# Detector Pilatus 300k	 PixelSize= 1.720e-04, 1.720e-04 m
#    Detector has a mask: True 
#    Detector has a dark current: False 
#    detector has a flat field: False 
# 
# Wavelength: 1.27818e-10 m
# Mask applied: user provided
# Dark current applied: False
# Flat field applied: False
# Polarization factor: None
# Normalization factor: 20836692.400000002
# --> F127_85.090_NaCl_42.545_limonene_187.198mgml_0_r1d.csv
#        q_A^-1             I 
  4.457554e-03    1.309537e-03
  4.756484e-03    1.021995e-03
  5.055415e-03    7.217639e-04
  5.354345e-03    5.067426e-04
  5.653276e-03    3.883383e-04
  5.952206e-03    6.298335e-04
  6.251136e-03    5.747785e-04
  6.550067e-03    4.987834e-04
  6.848997e-03    4.235463e-04
  7.147927e-03    3.574743e-04
  7.446858e-03    3.051200e-04
  7.745788e-03    2.615666e-04
  8.044719e-03    2.250683e-04
  8.343649e-03    1.962105e-04
  8.642579e-03    1.716753e-04
  8.941510e-03    1.507759e-04
  9.240440e-03    1.334987e-04
  9.539371e-03    1.186065e-04
  9.838301e-03    1.056342e-04
  1.013723e-02    9.445558e-05
  1.043616e-02    8.484385e-05
  1.073509e-02    7.629503e-05
  1.103402e-02    6.918364e-05
  1.133295e-02    6.264129e-05
  1.163188e-02    5.699196e-05
  1.193081e-02    5.214526e-05
  1.222974e-02    4.781970e-05
  1.252867e-02    4.397705e-05
  1.282760e-02    4.055274e-05
  1.312654e-02    3.735950e-05
  1.342547e-02    3.459020e-05
  1.372440e-02    3.201167e-05
  1.402333e-02    2.974298e-05
  1.432226e-02    2.772236e-05
  1.462119e-02    2.580924e-05
  1.492012e-02    2.419822e-05
  1.521905e-02    2.269080e-05
  1.551798e-02    2.134307e-05
  1.581691e-02    2.005372e-05
  1.611584e-02    1.890519e-05
  1.641477e-02    1.783936e-05
  1.671370e-02    1.682767e-05
  1.701263e-02    1.589083e-05
  1.731156e-02    1.509019e-05
  1.761049e-02    1.447721e-05
  1.790942e-02    1.375782e-05
  1.820835e-02    1.307102e-05
  1.850728e-02    1.248168e-05
  1.880621e-02    1.197663e-05
  1.910514e-02    1.148890e-05
  1.940407e-02    1.102734e-05
  1.970300e-02    1.055543e-05
  2.000193e-02    1.013032e-05
  2.030086e-02    9.750032e-06
  2.059979e-02    9.461326e-06
  2.089873e-02    9.157101e-06
  2.119766e-02    8.824086e-06
  2.149659e-02    8.575796e-06
  2.179552e-02    8.343098e-06
  2.209445e-02    8.066972e-06
  2.239338e-02    7.795476e-06
  2.269231e-02    7.590761e-06
  2.299124e-02    7.382681e-06
  2.329017e-02    7.223359e-06
  2.358910e-02    7.043250e-06
  2.388803e-02    6.864957e-06
  2.418696e-02    6.746731e-06
  2.448589e-02    6.597041e-06
  2.478482e-02    6.429147e-06
  2.508375e-02    6.294164e-06
  2.538268e-02    6.193604e-06
  2.568161e-02    6.097823e-06
  2.598054e-02    5.953875e-06
  2.627947e-02    5.854763e-06
  2.657840e-02    5.787062e-06
  2.687733e-02    5.700827e-06
  2.717626e-02    5.612460e-06
  2.747519e-02    5.522804e-06
  2.777412e-02    5.446249e-06
  2.807305e-02    5.362591e-06
  2.837198e-02    5.296601e-06
  2.867092e-02    5.248233e-06
  2.896985e-02    5.165558e-06
  2.926878e-02    5.073509e-06
  2.956771e-02    5.014345e-06
  2.986664e-02    4.973680e-06
  3.016557e-02    4.947408e-06
  3.046450e-02    4.888818e-06
  3.076343e-02    4.813039e-06
  3.106236e-02    4.768060e-06
  3.136129e-02    4.715685e-06
  3.166022e-02    4.658491e-06
  3.195915e-02    4.623543e-06
  3.225808e-02    4.605975e-06
  3.255701e-02    4.548293e-06
  3.285594e-02    4.490503e-06
  3.315487e-02    4.460845e-06
  3.345380e-02    4.438712e-06
  3.375273e-02    4.386294e-06
  3.405166e-02    4.353966e-06
  3.435059e-02    4.313757e-06
  3.464952e-02    4.284001e-06
  3.494845e-02    4.244336e-06
  3.524738e-02    4.180402e-06
  3.554631e-02    4.149462e-06
  3.584524e-02    4.129556e-06
  3.614417e-02    4.100451e-06
  3.644310e-02    4.060226e-06
  3.674204e-02    4.020750e-06
  3.704097e-02    4.003407e-06
  3.733990e-02    3.995217e-06
  3.763883e-02    3.947502e-06
  3.793776e-02    3.886134e-06
  3.823669e-02    3.884000e-06
  3.853562e-02    3.881749e-06
  3.883455e-02    3.844140e-06
  3.913348e-02    3.817815e-06
  3.943241e-02    3.803168e-06
  3.973134e-02    3.767938e-06
  4.003027e-02    3.763382e-06
  4.032920e-02    3.771880e-06
  4.062813e-02    3.736689e-06
  4.092706e-02    3.731256e-06
  4.122599e-02    3.727006e-06
  4.152492e-02    3.717682e-06
  4.182385e-02    3.690851e-06
  4.212278e-02    3.665486e-06
  4.242171e-02    3.637580e-06
  4.272064e-02    3.638450e-06
  4.301957e-02    3.643936e-06
  4.331850e-02    3.622646e-06
  4.361743e-02    3.621099e-06
  4.391636e-02    3.620045e-06
  4.421529e-02    3.613640e-06
  4.451423e-02    3.581453e-06
  4.481316e-02    3.577868e-06
  4.511209e-02    3.567019e-06
  4.541102e-02    3.543123e-06
  4.570995e-02    3.553165e-06
  4.600888e-02    3.567281e-06
  4.630781e-02    3.546919e-06
  4.660674e-02    3.543687e-06
  4.690567e-02    3.565764e-06
  4.720460e-02    3.557710e-06
  4.750353e-02    3.560289e-06
  4.780246e-02    3.549089e-06
  4.810139e-02    3.538268e-06
  4.840032e-02    3.537075e-06
  4.869925e-02    3.542551e-06
  4.899818e-02    3.533568e-06
  4.929711e-02    3.528138e-06
  4.959604e-02    3.544429e-06
  4.989497e-02    3.542704e-06
  5.019390e-02    3.523103e-06
  5.049283e-02    3.519167e-06
  5.079176e-02    3.531265e-06
  5.109069e-02    3.544714e-06
  5.138962e-02    3.577394e-06
  5.168855e-02    3.656453e-06
  5.198748e-02    3.696601e-06
  5.228642e-02    3.634824e-06
  5.258535e-02    3.515951e-06
  5.288428e-02    3.503606e-06
  5.318321e-02    3.512108e-06
  5.348214e-02    3.505750e-06
  5.378107e-02    3.503114e-06
  5.408000e-02    3.510666e-06
  5.437893e-02    3.510761e-06
  5.467786e-02    3.506020e-06
  5.497679e-02    3.511554e-06
  5.527572e-02    3.520067e-06
  5.557465e-02    3.513525e-06
  5.587358e-02    3.509497e-06
  5.617251e-02    3.518744e-06
  5.647144e-02    3.529301e-06
  5.677037e-02    3.527181e-06
  5.706930e-02    3.511471e-06
  5.736823e-02    3.514405e-06
  5.766716e-02    3.527170e-06
  5.796609e-02    3.529889e-06
  5.826502e-02    3.527739e-06
  5.856395e-02    3.527734e-06
  5.886288e-02    3.528248e-06
  5.916181e-02    3.538198e-06
  5.946074e-02    3.558769e-06
  5.975967e-02    3.566867e-06
  6.005861e-02    3.576598e-06
  6.035754e-02    3.594893e-06
  6.065647e-02    3.588597e-06
  6.095540e-02    3.587659e-06
  6.125433e-02    3.623487e-06
  6.155326e-02    3.654894e-06
  6.185219e-02    3.618866e-06
  6.215112e-02    3.596408e-06
  6.245005e-02    3.588670e-06
  6.274898e-02    3.579358e-06
  6.304791e-02    3.580011e-06
  6.334684e-02    3.578242e-06
  6.364577e-02    3.595243e-06
  6.394470e-02    3.610244e-06
  6.424363e-02    3.608023e-06
  6.454256e-02    3.605079e-06
  6.484149e-02    3.621437e-06
  6.514042e-02    3.612676e-06
  6.543935e-02    3.622855e-06
  6.573828e-02    3.634467e-06
  6.603721e-02    3.641322e-06
  6.633614e-02    3.626515e-06
  6.663507e-02    3.636307e-06
  6.693400e-02    3.640510e-06
  6.723293e-02    3.637218e-06
  6.753186e-02    3.628103e-06
  6.783080e-02    3.654345e-06
  6.812973e-02    3.665725e-06
  6.842866e-02    3.666563e-06
  6.872759e-02    3.670554e-06
  6.902652e-02    3.666307e-06
  6.932545e-02    3.668198e-06
  6.962438e-02    3.679960e-06
  6.992331e-02    3.690802e-06
  7.022224e-02    3.683049e-06
  7.052117e-02    3.700969e-06
  7.082010e-02    3.686911e-06
  7.111903e-02    3.687414e-06
  7.141796e-02    3.684250e-06
  7.171689e-02    3.688232e-06
  7.201582e-02    3.685175e-06
  7.231475e-02    3.696879e-06
  7.261368e-02    3.705391e-06
  7.291261e-02    3.716739e-06
  7.321154e-02    3.728581e-06
  7.351047e-02    3.718433e-06
  7.380940e-02    3.719305e-06
  7.410833e-02    3.727812e-06
  7.440726e-02    3.722970e-06
  7.470619e-02    3.712046e-06
  7.500512e-02    3.701081e-06
  7.530405e-02    3.709869e-06
  7.560299e-02    3.719958e-06
  7.590192e-02    3.715701e-06
  7.620085e-02    3.721801e-06
  7.649978e-02    3.728994e-06
  7.679871e-02    3.711043e-06
  7.709764e-02    3.708166e-06
  7.739657e-02    3.699891e-06
  7.769550e-02    3.701985e-06
  7.799443e-02    3.710729e-06
  7.829336e-02    3.702145e-06
  7.859229e-02    3.705956e-06
  7.889122e-02    3.696149e-06
  7.919015e-02    3.703357e-06
  7.948908e-02    3.691361e-06
  7.978801e-02    3.672160e-06
  8.008694e-02    3.683411e-06
  8.038587e-02    3.691628e-06
  8.068480e-02    3.668735e-06
  8.098373e-02    3.657908e-06
  8.128266e-02    3.672027e-06
  8.158159e-02    3.691202e-06
  8.188052e-02    3.680854e-06
  8.217945e-02    3.653933e-06
  8.247838e-02    3.650502e-06
  8.277731e-02    3.649002e-06
  8.307624e-02    3.645648e-06
  8.337518e-02    3.624635e-06
  8.367411e-02    3.630597e-06
  8.397304e-02    3.645832e-06
  8.427197e-02    3.624204e-06
  8.457090e-02    3.617788e-06
  8.486983e-02    3.617084e-06
  8.516876e-02    3.612017e-06
  8.546769e-02    3.620737e-06
  8.576662e-02    3.600020e-06
  8.606555e-02    3.578442e-06
  8.636448e-02    3.577378e-06
  8.666341e-02    3.585299e-06
  8.696234e-02    3.582531e-06
  8.726127e-02    3.574368e-06
  8.756020e-02    3.545734e-06
  8.785913e-02    3.543943e-06
  8.815806e-02    3.558735e-06
  8.845699e-02    3.534614e-06
  8.875592e-02    3.527263e-06
  8.905485e-02    3.533858e-06
  8.935378e-02    3.536086e-06
  8.965271e-02    3.517225e-06
  8.995164e-02    3.509557e-06
  9.025057e-02    3.504405e-06
  9.054950e-02    3.516527e-06
  9.084843e-02    3.503093e-06
  9.114737e-02    3.489030e-06
  9.144630e-02    3.480328e-06
  9.174523e-02    3.481490e-06
  9.204416e-02    3.477704e-06
  9.234309e-02    3.460710e-06
  9.264202e-02    3.446189e-06
  9.294095e-02    3.436337e-06
  9.323988e-02    3.425563e-06
  9.353881e-02    3.422301e-06
  9.383774e-02    3.426154e-06
  9.413667e-02    3.410689e-06
  9.443560e-02    3.412682e-06
  9.473453e-02    3.416625e-06
  9.503346e-02    3.424352e-06
  9.533239e-02    3.416504e-06
  9.563132e-02    3.417414e-06
  9.593025e-02    3.409648e-06
  9.622918e-02    3.411810e-06
  9.652811e-02    3.416175e-06
  9.682704e-02    3.427206e-06
  9.712597e-02    3.420548e-06
  9.742490e-02    3.393885e-06
  9.772383e-02    3.402070e-06
  9.802276e-02    3.377746e-06
  9.832169e-02    3.365808e-06
  9.862062e-02    3.361585e-06
  9.891956e-02    3.355800e-06
  9.921849e-02    3.329259e-06
  9.951742e-02    3.317567e-06
  9.981635e-02    3.308894e-06
  1.001153e-01    3.305657e-06
  1.004142e-01    3.299249e-06
  1.007131e-01    3.290937e-06
  1.010121e-01    3.279637e-06
  1.013110e-01    3.269605e-06
  1.016099e-01    3.265922e-06
  1.019089e-01    3.259271e-06
  1.022078e-01    3.263048e-06
  1.025067e-01    3.267030e-06
  1.028057e-01    3.260838e-06
  1.031046e-01    3.251404e-06
  1.034035e-01    3.247780e-06
  1.037024e-01    3.228398e-06
  1.040014e-01    3.230547e-06
  1.043003e-01    3.221402e-06
  1.045992e-01    3.216439e-06
  1.048982e-01    3.218980e-06
  1.051971e-01    3.202929e-06
  1.054960e-01    3.177738e-06
  1.057950e-01    3.175930e-06
  1.060939e-01    3.176757e-06
  1.063928e-01    3.172430e-06
  1.066917e-01    3.158828e-06
  1.069907e-01    3.166454e-06
  1.072896e-01    3.159621e-06
  1.075885e-01    3.159964e-06
  1.078875e-01    3.156368e-06
  1.081864e-01    3.142855e-06
  1.084853e-01    3.139498e-06
  1.087843e-01    3.129392e-06
  1.090832e-01    3.133126e-06
  1.093821e-01    3.138108e-06
  1.096810e-01    3.122225e-06
  1.099800e-01    3.120298e-06
  1.102789e-01    3.114549e-06
  1.105778e-01    3.093445e-06
  1.108768e-01    3.078429e-06
  1.111757e-01    3.071014e-06
  1.114746e-01    3.067477e-06
  1.117736e-01    3.068590e-06
  1.120725e-01    3.065364e-06
  1.123714e-01    3.049127e-06
  1.126704e-01    3.023375e-06
  1.129693e-01    3.007159e-06
  1.132682e-01    3.010126e-06
  1.135671e-01    3.020145e-06
  1.138661e-01    2.999499e-06
  1.141650e-01    2.990708e-06
  1.144639e-01    2.969353e-06
  1.147629e-01    2.976707e-06
  1.150618e-01    2.992278e-06
  1.153607e-01    2.971184e-06
  1.156597e-01    2.966732e-06
  1.159586e-01    2.960943e-06
  1.162575e-01    2.948567e-06
  1.165564e-01    2.959868e-06
  1.168554e-01    2.980507e-06
  1.171543e-01    2.974945e-06
  1.174532e-01    2.960198e-06
  1.177522e-01    2.948590e-06
  1.180511e-01    2.945484e-06
  1.183500e-01    2.912629e-06
  1.186490e-01    2.903610e-06
  1.189479e-01    2.930220e-06
  1.192468e-01    2.962135e-06
  1.195458e-01    2.940193e-06
  1.198447e-01    2.909546e-06
  1.201436e-01    2.875349e-06
  1.204425e-01    2.855033e-06
  1.207415e-01    2.914518e-06
  1.210404e-01    2.786073e-06
  1.213393e-01    0.000000e+00
  1.216383e-01    0.000000e+00
  1.219372e-01    0.000000e+00
  1.222361e-01    0.000000e+00
  1.225351e-01    0.000000e+00
  1.228340e-01    0.000000e+00
  1.231329e-01    0.000000e+00
  1.234318e-01    0.000000e+00
  1.237308e-01    0.000000e+00
  1.240297e-01    0.000000e+00
  1.243286e-01    0.000000e+00
  1.246276e-01    0.000000e+00
  1.249265e-01    0.000000e+00
  1.252254e-01    0.000000e+00
  1.255244e-01    0.000000e+00
  1.258233e-01    0.000000e+00
  1.261222e-01    0.000000e+00
  1.264212e-01    0.000000e+00
  1.267201e-01    0.000000e+00
  1.270190e-01    0.000000e+00
  1.273179e-01    0.000000e+00
  1.276169e-01    0.000000e+00
  1.279158e-01    0.000000e+00
  1.282147e-01    0.000000e+00
  1.285137e-01    0.000000e+00
  1.288126e-01    0.000000e+00
  1.291115e-01    0.000000e+00
  1.294105e-01    0.000000e+00
  1.297094e-01    0.000000e+00
  1.300083e-01    0.000000e+00
  1.303072e-01    0.000000e+00
  1.306062e-01    0.000000e+00
  1.309051e-01    0.000000e+00
  1.312040e-01    0.000000e+00
  1.315030e-01    0.000000e+00
  1.318019e-01    0.000000e+00
  1.321008e-01    0.000000e+00
  1.323998e-01    0.000000e+00
  1.326987e-01    0.000000e+00
  1.329976e-01    0.000000e+00
  1.332965e-01    0.000000e+00
  1.335955e-01    0.000000e+00
  1.338944e-01    0.000000e+00
  1.341933e-01    0.000000e+00
  1.344923e-01    0.000000e+00
  1.347912e-01    0.000000e+00
  1.350901e-01    0.000000e+00
  1.353891e-01    0.000000e+00
  1.356880e-01    0.000000e+00
  1.359869e-01    0.000000e+00
  1.362859e-01    0.000000e+00
  1.365848e-01    0.000000e+00
  1.368837e-01    0.000000e+00
  1.371826e-01    0.000000e+00
  1.374816e-01    0.000000e+00
  1.377805e-01    0.000000e+00
  1.380794e-01    0.000000e+00
  1.383784e-01    0.000000e+00
  1.386773e-01    0.000000e+00
  1.389762e-01    0.000000e+00
  1.392752e-01    0.000000e+00
  1.395741e-01    0.000000e+00
  1.398730e-01    0.000000e+00
  1.401719e-01    0.000000e+00
  1.404709e-01    0.000000e+00
  1.407698e-01    0.000000e+00
  1.410687e-01    0.000000e+00
  1.413677e-01    0.000000e+00
  1.416666e-01    0.000000e+00
  1.419655e-01    0.000000e+00
  1.422645e-01    0.000000e+00
  1.425634e-01    0.000000e+00
  1.428623e-01    0.000000e+00
  1.431613e-01    0.000000e+00
  1.434602e-01    0.000000e+00
  1.437591e-01    0.000000e+00
  1.440580e-01    0.000000e+00
  1.443570e-01    0.000000e+00
  1.446559e-01    0.000000e+00
  1.449548e-01    0.000000e+00
  1.452538e-01    0.000000e+00
  1.455527e-01    0.000000e+00
  1.458516e-01    0.000000e+00
  1.461506e-01    0.000000e+00
  1.464495e-01    0.000000e+00
  1.467484e-01    0.000000e+00
  1.470473e-01    0.000000e+00
  1.473463e-01    0.000000e+00
  1.476452e-01    0.000000e+00
  1.479441e-01    0.000000e+00
  1.482431e-01    0.000000e+00
  1.485420e-01    0.000000e+00
  1.488409e-01    0.000000e+00
  1.491399e-01    0.000000e+00
  1.494388e-01    0.000000e+00
  1.497377e-01    0.000000e+00
  1.500367e-01    0.000000e+00
  1.503356e-01    0.000000e+00
  1.506345e-01    0.000000e+00
  1.509334e-01    0.000000e+00
  1.512324e-01    0.000000e+00
  1.515313e-01    0.000000e+00
  1.518302e-01    0.000000e+00
  1.521292e-01    0.000000e+00
  1.524281e-01    0.000000e+00
  1.527270e-01    0.000000e+00
  1.530260e-01    0.000000e+00
  1.533249e-01    0.000000e+00
  1.536238e-01    0.000000e+00
