# == pyFAI calibration ==
# Distance Sample to Detector: 2.266 m
# PONI: 5.659e-02, 4.293e-02 m
# Rotations: 0.000000 0.000000 0.000000 rad
# 
# == Fit2d calibration ==
# Distance Sample-beamCenter: 2266.000 mm
# Center: x=249.594, y=329.012 pix
# Tilt: 0.000 deg  TiltPlanRot: 0.000 deg
# 
# Detector Pilatus 300k	 PixelSize= 1.720e-04, 1.720e-04 m
#    Detector has a mask: True 
#    Detector has a dark current: False 
#    detector has a flat field: False 
# 
# Wavelength: 1.27818e-10 m
# Mask applied: user provided
# Dark current applied: False
# Flat field applied: False
# Polarization factor: None
# Normalization factor: 1498408.7999999998
# --> F127_144.943_NaCl_99.648_limonene_144.943mgml_1_r1d.csv
#        q_A^-1             I 
  4.457554e-03    6.770333e-04
  4.756484e-03    5.448932e-04
  5.055415e-03    3.981242e-04
  5.354345e-03    2.989889e-04
  5.653276e-03    2.372962e-04
  5.952206e-03    1.444153e-03
  6.251136e-03    1.048086e-03
  6.550067e-03    7.352019e-04
  6.848997e-03    5.678922e-04
  7.147927e-03    4.455524e-04
  7.446858e-03    3.670607e-04
  7.745788e-03    3.059568e-04
  8.044719e-03    2.555602e-04
  8.343649e-03    2.175446e-04
  8.642579e-03    1.886534e-04
  8.941510e-03    1.647533e-04
  9.240440e-03    1.448329e-04
  9.539371e-03    1.286205e-04
  9.838301e-03    1.123591e-04
  1.013723e-02    9.864785e-05
  1.043616e-02    8.844040e-05
  1.073509e-02    7.910983e-05
  1.103402e-02    7.116600e-05
  1.133295e-02    6.364223e-05
  1.163188e-02    5.791877e-05
  1.193081e-02    5.320988e-05
  1.222974e-02    4.773675e-05
  1.252867e-02    4.346251e-05
  1.282760e-02    4.059368e-05
  1.312654e-02    3.753964e-05
  1.342547e-02    3.468958e-05
  1.372440e-02    3.202491e-05
  1.402333e-02    3.021244e-05
  1.432226e-02    2.811852e-05
  1.462119e-02    2.608193e-05
  1.492012e-02    2.405855e-05
  1.521905e-02    2.269555e-05
  1.551798e-02    2.169350e-05
  1.581691e-02    2.020545e-05
  1.611584e-02    1.888881e-05
  1.641477e-02    1.806455e-05
  1.671370e-02    1.698524e-05
  1.701263e-02    1.614554e-05
  1.731156e-02    1.564563e-05
  1.761049e-02    1.525395e-05
  1.790942e-02    1.450350e-05
  1.820835e-02    1.410311e-05
  1.850728e-02    1.357454e-05
  1.880621e-02    1.303100e-05
  1.910514e-02    1.275476e-05
  1.940407e-02    1.243346e-05
  1.970300e-02    1.224282e-05
  2.000193e-02    1.216196e-05
  2.030086e-02    1.207889e-05
  2.059979e-02    1.215742e-05
  2.089873e-02    1.206319e-05
  2.119766e-02    1.211041e-05
  2.149659e-02    1.240452e-05
  2.179552e-02    1.239604e-05
  2.209445e-02    1.251737e-05
  2.239338e-02    1.321277e-05
  2.269231e-02    1.364750e-05
  2.299124e-02    1.392840e-05
  2.329017e-02    1.454836e-05
  2.358910e-02    1.513410e-05
  2.388803e-02    1.572653e-05
  2.418696e-02    1.615824e-05
  2.448589e-02    1.652327e-05
  2.478482e-02    1.728694e-05
  2.508375e-02    1.792804e-05
  2.538268e-02    1.833143e-05
  2.568161e-02    1.904687e-05
  2.598054e-02    1.917424e-05
  2.627947e-02    1.947477e-05
  2.657840e-02    1.946671e-05
  2.687733e-02    1.929983e-05
  2.717626e-02    1.904675e-05
  2.747519e-02    1.880186e-05
  2.777412e-02    1.859098e-05
  2.807305e-02    1.812709e-05
  2.837198e-02    1.756636e-05
  2.867092e-02    1.712500e-05
  2.896985e-02    1.625179e-05
  2.926878e-02    1.564524e-05
  2.956771e-02    1.520550e-05
  2.986664e-02    1.452591e-05
  3.016557e-02    1.406900e-05
  3.046450e-02    1.375601e-05
  3.076343e-02    1.323632e-05
  3.106236e-02    1.263068e-05
  3.136129e-02    1.212620e-05
  3.166022e-02    1.172811e-05
  3.195915e-02    1.119357e-05
  3.225808e-02    1.070718e-05
  3.255701e-02    1.059403e-05
  3.285594e-02    1.039302e-05
  3.315487e-02    1.002969e-05
  3.345380e-02    9.816228e-06
  3.375273e-02    9.590927e-06
  3.405166e-02    9.350657e-06
  3.435059e-02    9.203042e-06
  3.464952e-02    9.151112e-06
  3.494845e-02    9.028119e-06
  3.524738e-02    8.679280e-06
  3.554631e-02    8.653948e-06
  3.584524e-02    8.623194e-06
  3.614417e-02    8.476560e-06
  3.644310e-02    8.312185e-06
  3.674204e-02    8.183204e-06
  3.704097e-02    8.200213e-06
  3.733990e-02    8.127803e-06
  3.763883e-02    7.940029e-06
  3.793776e-02    7.995829e-06
  3.823669e-02    7.875728e-06
  3.853562e-02    7.759233e-06
  3.883455e-02    7.855508e-06
  3.913348e-02    7.807655e-06
  3.943241e-02    7.736804e-06
  3.973134e-02    7.764766e-06
  4.003027e-02    7.754512e-06
  4.032920e-02    7.663659e-06
  4.062813e-02    7.689305e-06
  4.092706e-02    7.810097e-06
  4.122599e-02    7.754279e-06
  4.152492e-02    7.735120e-06
  4.182385e-02    7.764169e-06
  4.212278e-02    7.851443e-06
  4.242171e-02    7.800822e-06
  4.272064e-02    7.834971e-06
  4.301957e-02    7.985811e-06
  4.331850e-02    7.929826e-06
  4.361743e-02    7.858577e-06
  4.391636e-02    7.905666e-06
  4.421529e-02    7.907950e-06
  4.451423e-02    7.817250e-06
  4.481316e-02    7.766659e-06
  4.511209e-02    7.787632e-06
  4.541102e-02    7.833681e-06
  4.570995e-02    7.844771e-06
  4.600888e-02    7.850980e-06
  4.630781e-02    7.853357e-06
  4.660674e-02    7.895981e-06
  4.690567e-02    7.843967e-06
  4.720460e-02    7.795387e-06
  4.750353e-02    7.762375e-06
  4.780246e-02    7.637271e-06
  4.810139e-02    7.586353e-06
  4.840032e-02    7.482204e-06
  4.869925e-02    7.455978e-06
  4.899818e-02    7.444896e-06
  4.929711e-02    7.458316e-06
  4.959604e-02    7.403051e-06
  4.989497e-02    7.233639e-06
  5.019390e-02    7.161415e-06
  5.049283e-02    7.092781e-06
  5.079176e-02    7.023985e-06
  5.109069e-02    6.900797e-06
  5.138962e-02    6.874287e-06
  5.168855e-02    6.809143e-06
  5.198748e-02    6.714994e-06
  5.228642e-02    6.579395e-06
  5.258535e-02    6.508531e-06
  5.288428e-02    6.308781e-06
  5.318321e-02    6.204579e-06
  5.348214e-02    6.087086e-06
  5.378107e-02    5.996350e-06
  5.408000e-02    5.875718e-06
  5.437893e-02    5.737895e-06
  5.467786e-02    5.641857e-06
  5.497679e-02    5.538839e-06
  5.527572e-02    5.523986e-06
  5.557465e-02    5.390370e-06
  5.587358e-02    5.326915e-06
  5.617251e-02    5.239140e-06
  5.647144e-02    5.093357e-06
  5.677037e-02    5.041979e-06
  5.706930e-02    4.932861e-06
  5.736823e-02    4.860761e-06
  5.766716e-02    4.815772e-06
  5.796609e-02    4.754686e-06
  5.826502e-02    4.594952e-06
  5.856395e-02    4.599749e-06
  5.886288e-02    4.581417e-06
  5.916181e-02    4.485190e-06
  5.946074e-02    4.407322e-06
  5.975967e-02    4.425252e-06
  6.005861e-02    4.355283e-06
  6.035754e-02    4.304100e-06
  6.065647e-02    4.324509e-06
  6.095540e-02    4.210070e-06
  6.125433e-02    4.139352e-06
  6.155326e-02    4.109369e-06
  6.185219e-02    3.990310e-06
  6.215112e-02    3.999008e-06
  6.245005e-02    4.001437e-06
  6.274898e-02    3.914472e-06
  6.304791e-02    3.838413e-06
  6.334684e-02    3.715303e-06
  6.364577e-02    3.799529e-06
  6.394470e-02    3.780915e-06
  6.424363e-02    3.706420e-06
  6.454256e-02    3.738563e-06
  6.484149e-02    3.674605e-06
  6.514042e-02    3.642376e-06
  6.543935e-02    3.584087e-06
  6.573828e-02    3.618184e-06
  6.603721e-02    3.587051e-06
  6.633614e-02    3.562091e-06
  6.663507e-02    3.582402e-06
  6.693400e-02    3.563861e-06
  6.723293e-02    3.524238e-06
  6.753186e-02    3.512981e-06
  6.783080e-02    3.449353e-06
  6.812973e-02    3.395287e-06
  6.842866e-02    3.427223e-06
  6.872759e-02    3.385261e-06
  6.902652e-02    3.353453e-06
  6.932545e-02    3.365070e-06
  6.962438e-02    3.330308e-06
  6.992331e-02    3.261871e-06
  7.022224e-02    3.226656e-06
  7.052117e-02    3.239351e-06
  7.082010e-02    3.226953e-06
  7.111903e-02    3.175553e-06
  7.141796e-02    3.230084e-06
  7.171689e-02    3.203101e-06
  7.201582e-02    3.182820e-06
  7.231475e-02    3.187092e-06
  7.261368e-02    3.139069e-06
  7.291261e-02    3.093681e-06
  7.321154e-02    3.115594e-06
  7.351047e-02    3.091867e-06
  7.380940e-02    3.057259e-06
  7.410833e-02    3.090481e-06
  7.440726e-02    3.078289e-06
  7.470619e-02    3.066908e-06
  7.500512e-02    3.055549e-06
  7.530405e-02    3.101757e-06
  7.560299e-02    3.083269e-06
  7.590192e-02    3.053829e-06
  7.620085e-02    3.072459e-06
  7.649978e-02    3.030068e-06
  7.679871e-02    2.987861e-06
  7.709764e-02    2.984474e-06
  7.739657e-02    2.944746e-06
  7.769550e-02    2.885064e-06
  7.799443e-02    2.909897e-06
  7.829336e-02    2.944989e-06
  7.859229e-02    2.909032e-06
  7.889122e-02    2.910471e-06
  7.919015e-02    2.911216e-06
  7.948908e-02    2.927481e-06
  7.978801e-02    2.921925e-06
  8.008694e-02    2.923462e-06
  8.038587e-02    2.937119e-06
  8.068480e-02    2.940875e-06
  8.098373e-02    2.905451e-06
  8.128266e-02    2.875516e-06
  8.158159e-02    2.866658e-06
  8.188052e-02    2.808531e-06
  8.217945e-02    2.813304e-06
  8.247838e-02    2.855670e-06
  8.277731e-02    2.872563e-06
  8.307624e-02    2.856581e-06
  8.337518e-02    2.849741e-06
  8.367411e-02    2.848289e-06
  8.397304e-02    2.904736e-06
  8.427197e-02    2.891936e-06
  8.457090e-02    2.872403e-06
  8.486983e-02    2.810566e-06
  8.516876e-02    2.783106e-06
  8.546769e-02    2.801258e-06
  8.576662e-02    2.806987e-06
  8.606555e-02    2.801342e-06
  8.636448e-02    2.812644e-06
  8.666341e-02    2.812573e-06
  8.696234e-02    2.831294e-06
  8.726127e-02    2.864462e-06
  8.756020e-02    2.820693e-06
  8.785913e-02    2.796018e-06
  8.815806e-02    2.748735e-06
  8.845699e-02    2.786234e-06
  8.875592e-02    2.797069e-06
  8.905485e-02    2.766657e-06
  8.935378e-02    2.784045e-06
  8.965271e-02    2.819015e-06
  8.995164e-02    2.827938e-06
  9.025057e-02    2.762057e-06
  9.054950e-02    2.759703e-06
  9.084843e-02    2.781296e-06
  9.114737e-02    2.791321e-06
  9.144630e-02    2.781958e-06
  9.174523e-02    2.756186e-06
  9.204416e-02    2.764851e-06
  9.234309e-02    2.806287e-06
  9.264202e-02    2.761293e-06
  9.294095e-02    2.683712e-06
  9.323988e-02    2.710795e-06
  9.353881e-02    2.742536e-06
  9.383774e-02    2.739883e-06
  9.413667e-02    2.716981e-06
  9.443560e-02    2.706679e-06
  9.473453e-02    2.706562e-06
  9.503346e-02    2.725964e-06
  9.533239e-02    2.761494e-06
  9.563132e-02    2.776199e-06
  9.593025e-02    2.703726e-06
  9.622918e-02    2.734029e-06
  9.652811e-02    2.799085e-06
  9.682704e-02    2.803068e-06
  9.712597e-02    2.782907e-06
  9.742490e-02    2.772406e-06
  9.772383e-02    2.800403e-06
  9.802276e-02    2.761927e-06
  9.832169e-02    2.711548e-06
  9.862062e-02    2.652603e-06
  9.891956e-02    2.719217e-06
  9.921849e-02    2.742470e-06
  9.951742e-02    2.714989e-06
  9.981635e-02    2.748076e-06
  1.001153e-01    2.733532e-06
  1.004142e-01    2.681019e-06
  1.007131e-01    2.647561e-06
  1.010121e-01    2.715609e-06
  1.013110e-01    2.763563e-06
  1.016099e-01    2.730174e-06
  1.019089e-01    2.707082e-06
  1.022078e-01    2.689755e-06
  1.025067e-01    2.677060e-06
  1.028057e-01    2.702897e-06
  1.031046e-01    2.669613e-06
  1.034035e-01    2.678302e-06
  1.037024e-01    2.710404e-06
  1.040014e-01    2.684619e-06
  1.043003e-01    2.690292e-06
  1.045992e-01    2.687876e-06
  1.048982e-01    2.692487e-06
  1.051971e-01    2.648797e-06
  1.054960e-01    2.577422e-06
  1.057950e-01    2.625764e-06
  1.060939e-01    2.595554e-06
  1.063928e-01    2.564849e-06
  1.066917e-01    2.600936e-06
  1.069907e-01    2.654356e-06
  1.072896e-01    2.647500e-06
  1.075885e-01    2.622359e-06
  1.078875e-01    2.599459e-06
  1.081864e-01    2.607306e-06
  1.084853e-01    2.615519e-06
  1.087843e-01    2.673368e-06
  1.090832e-01    2.674454e-06
  1.093821e-01    2.654252e-06
  1.096810e-01    2.626703e-06
  1.099800e-01    2.612544e-06
  1.102789e-01    2.584303e-06
  1.105778e-01    2.550659e-06
  1.108768e-01    2.515916e-06
  1.111757e-01    2.461917e-06
  1.114746e-01    2.429177e-06
  1.117736e-01    2.442524e-06
  1.120725e-01    2.436905e-06
  1.123714e-01    2.460857e-06
  1.126704e-01    2.460388e-06
  1.129693e-01    2.330329e-06
  1.132682e-01    2.297259e-06
  1.135671e-01    2.355250e-06
  1.138661e-01    2.373211e-06
  1.141650e-01    2.343963e-06
  1.144639e-01    2.353001e-06
  1.147629e-01    2.356470e-06
  1.150618e-01    2.326827e-06
  1.153607e-01    2.399270e-06
  1.156597e-01    2.461890e-06
  1.159586e-01    2.419020e-06
  1.162575e-01    2.446913e-06
  1.165564e-01    2.425547e-06
  1.168554e-01    2.281867e-06
  1.171543e-01    2.312445e-06
  1.174532e-01    2.246553e-06
  1.177522e-01    2.126847e-06
  1.180511e-01    2.216903e-06
  1.183500e-01    2.274801e-06
  1.186490e-01    2.224109e-06
  1.189479e-01    2.134285e-06
  1.192468e-01    2.126029e-06
  1.195458e-01    2.195306e-06
  1.198447e-01    2.126890e-06
  1.201436e-01    1.919694e-06
  1.204425e-01    1.914498e-06
  1.207415e-01    2.200037e-06
  1.210404e-01    3.339896e-06
  1.213393e-01    0.000000e+00
  1.216383e-01    0.000000e+00
  1.219372e-01    0.000000e+00
  1.222361e-01    0.000000e+00
  1.225351e-01    0.000000e+00
  1.228340e-01    0.000000e+00
  1.231329e-01    0.000000e+00
  1.234318e-01    0.000000e+00
  1.237308e-01    0.000000e+00
  1.240297e-01    0.000000e+00
  1.243286e-01    0.000000e+00
  1.246276e-01    0.000000e+00
  1.249265e-01    0.000000e+00
  1.252254e-01    0.000000e+00
  1.255244e-01    0.000000e+00
  1.258233e-01    0.000000e+00
  1.261222e-01    0.000000e+00
  1.264212e-01    0.000000e+00
  1.267201e-01    0.000000e+00
  1.270190e-01    0.000000e+00
  1.273179e-01    0.000000e+00
  1.276169e-01    0.000000e+00
  1.279158e-01    0.000000e+00
  1.282147e-01    0.000000e+00
  1.285137e-01    0.000000e+00
  1.288126e-01    0.000000e+00
  1.291115e-01    0.000000e+00
  1.294105e-01    0.000000e+00
  1.297094e-01    0.000000e+00
  1.300083e-01    0.000000e+00
  1.303072e-01    0.000000e+00
  1.306062e-01    0.000000e+00
  1.309051e-01    0.000000e+00
  1.312040e-01    0.000000e+00
  1.315030e-01    0.000000e+00
  1.318019e-01    0.000000e+00
  1.321008e-01    0.000000e+00
  1.323998e-01    0.000000e+00
  1.326987e-01    0.000000e+00
  1.329976e-01    0.000000e+00
  1.332965e-01    0.000000e+00
  1.335955e-01    0.000000e+00
  1.338944e-01    0.000000e+00
  1.341933e-01    0.000000e+00
  1.344923e-01    0.000000e+00
  1.347912e-01    0.000000e+00
  1.350901e-01    0.000000e+00
  1.353891e-01    0.000000e+00
  1.356880e-01    0.000000e+00
  1.359869e-01    0.000000e+00
  1.362859e-01    0.000000e+00
  1.365848e-01    0.000000e+00
  1.368837e-01    0.000000e+00
  1.371826e-01    0.000000e+00
  1.374816e-01    0.000000e+00
  1.377805e-01    0.000000e+00
  1.380794e-01    0.000000e+00
  1.383784e-01    0.000000e+00
  1.386773e-01    0.000000e+00
  1.389762e-01    0.000000e+00
  1.392752e-01    0.000000e+00
  1.395741e-01    0.000000e+00
  1.398730e-01    0.000000e+00
  1.401719e-01    0.000000e+00
  1.404709e-01    0.000000e+00
  1.407698e-01    0.000000e+00
  1.410687e-01    0.000000e+00
  1.413677e-01    0.000000e+00
  1.416666e-01    0.000000e+00
  1.419655e-01    0.000000e+00
  1.422645e-01    0.000000e+00
  1.425634e-01    0.000000e+00
  1.428623e-01    0.000000e+00
  1.431613e-01    0.000000e+00
  1.434602e-01    0.000000e+00
  1.437591e-01    0.000000e+00
  1.440580e-01    0.000000e+00
  1.443570e-01    0.000000e+00
  1.446559e-01    0.000000e+00
  1.449548e-01    0.000000e+00
  1.452538e-01    0.000000e+00
  1.455527e-01    0.000000e+00
  1.458516e-01    0.000000e+00
  1.461506e-01    0.000000e+00
  1.464495e-01    0.000000e+00
  1.467484e-01    0.000000e+00
  1.470473e-01    0.000000e+00
  1.473463e-01    0.000000e+00
  1.476452e-01    0.000000e+00
  1.479441e-01    0.000000e+00
  1.482431e-01    0.000000e+00
  1.485420e-01    0.000000e+00
  1.488409e-01    0.000000e+00
  1.491399e-01    0.000000e+00
  1.494388e-01    0.000000e+00
  1.497377e-01    0.000000e+00
  1.500367e-01    0.000000e+00
  1.503356e-01    0.000000e+00
  1.506345e-01    0.000000e+00
  1.509334e-01    0.000000e+00
  1.512324e-01    0.000000e+00
  1.515313e-01    0.000000e+00
  1.518302e-01    0.000000e+00
  1.521292e-01    0.000000e+00
  1.524281e-01    0.000000e+00
  1.527270e-01    0.000000e+00
  1.530260e-01    0.000000e+00
  1.533249e-01    0.000000e+00
  1.536238e-01    0.000000e+00
