# == pyFAI calibration ==
# Distance Sample to Detector: 2.266 m
# PONI: 5.659e-02, 4.293e-02 m
# Rotations: 0.000000 0.000000 0.000000 rad
# 
# == Fit2d calibration ==
# Distance Sample-beamCenter: 2266.000 mm
# Center: x=249.594, y=329.012 pix
# Tilt: 0.000 deg  TiltPlanRot: 0.000 deg
# 
# Detector Pilatus 300k	 PixelSize= 1.720e-04, 1.720e-04 m
#    Detector has a mask: True 
#    Detector has a dark current: False 
#    detector has a flat field: False 
# 
# Wavelength: 1.27818e-10 m
# Mask applied: user provided
# Dark current applied: False
# Flat field applied: False
# Polarization factor: None
# Normalization factor: 792859.8
# --> F127_144.943_NaCl_72.471_limonene_144.943mgml_0_r1d.csv
#        q_A^-1             I 
  4.457554e-03    3.382307e-02
  4.756484e-03    2.635457e-02
  5.055415e-03    1.861053e-02
  5.354345e-03    1.311980e-02
  5.653276e-03    1.008750e-02
  5.952206e-03    1.602871e-02
  6.251136e-03    1.463718e-02
  6.550067e-03    1.270821e-02
  6.848997e-03    1.081531e-02
  7.147927e-03    9.152506e-03
  7.446858e-03    7.813445e-03
  7.745788e-03    6.709216e-03
  8.044719e-03    5.784090e-03
  8.343649e-03    5.038872e-03
  8.642579e-03    4.404365e-03
  8.941510e-03    3.879057e-03
  9.240440e-03    3.441577e-03
  9.539371e-03    3.052181e-03
  9.838301e-03    2.712870e-03
  1.013723e-02    2.431755e-03
  1.043616e-02    2.190293e-03
  1.073509e-02    1.967319e-03
  1.103402e-02    1.781737e-03
  1.133295e-02    1.613216e-03
  1.163188e-02    1.467177e-03
  1.193081e-02    1.344654e-03
  1.222974e-02    1.228757e-03
  1.252867e-02    1.128322e-03
  1.282760e-02    1.037652e-03
  1.312654e-02    9.559495e-04
  1.342547e-02    8.881894e-04
  1.372440e-02    8.247803e-04
  1.402333e-02    7.648154e-04
  1.432226e-02    7.110794e-04
  1.462119e-02    6.640581e-04
  1.492012e-02    6.211093e-04
  1.521905e-02    5.805267e-04
  1.551798e-02    5.463003e-04
  1.581691e-02    5.133289e-04
  1.611584e-02    4.833624e-04
  1.641477e-02    4.571907e-04
  1.671370e-02    4.326119e-04
  1.701263e-02    4.092013e-04
  1.731156e-02    3.909327e-04
  1.761049e-02    3.716323e-04
  1.790942e-02    3.558303e-04
  1.820835e-02    3.399722e-04
  1.850728e-02    3.242564e-04
  1.880621e-02    3.104340e-04
  1.910514e-02    2.978142e-04
  1.940407e-02    2.868099e-04
  1.970300e-02    2.762709e-04
  2.000193e-02    2.666978e-04
  2.030086e-02    2.572704e-04
  2.059979e-02    2.484543e-04
  2.089873e-02    2.409332e-04
  2.119766e-02    2.344789e-04
  2.149659e-02    2.261274e-04
  2.179552e-02    2.195081e-04
  2.209445e-02    2.135707e-04
  2.239338e-02    2.088522e-04
  2.269231e-02    2.047310e-04
  2.299124e-02    2.007144e-04
  2.329017e-02    1.961151e-04
  2.358910e-02    1.925354e-04
  2.388803e-02    1.894158e-04
  2.418696e-02    1.860854e-04
  2.448589e-02    1.845549e-04
  2.478482e-02    1.816739e-04
  2.508375e-02    1.784322e-04
  2.538268e-02    1.764920e-04
  2.568161e-02    1.746479e-04
  2.598054e-02    1.714825e-04
  2.627947e-02    1.691724e-04
  2.657840e-02    1.670996e-04
  2.687733e-02    1.653569e-04
  2.717626e-02    1.634449e-04
  2.747519e-02    1.609923e-04
  2.777412e-02    1.586934e-04
  2.807305e-02    1.566549e-04
  2.837198e-02    1.539864e-04
  2.867092e-02    1.507736e-04
  2.896985e-02    1.486260e-04
  2.926878e-02    1.465089e-04
  2.956771e-02    1.447671e-04
  2.986664e-02    1.442467e-04
  3.016557e-02    1.424233e-04
  3.046450e-02    1.394048e-04
  3.076343e-02    1.368838e-04
  3.106236e-02    1.348138e-04
  3.136129e-02    1.347206e-04
  3.166022e-02    1.328903e-04
  3.195915e-02    1.310449e-04
  3.225808e-02    1.293066e-04
  3.255701e-02    1.281012e-04
  3.285594e-02    1.271595e-04
  3.315487e-02    1.254348e-04
  3.345380e-02    1.243721e-04
  3.375273e-02    1.229942e-04
  3.405166e-02    1.209744e-04
  3.435059e-02    1.195090e-04
  3.464952e-02    1.185845e-04
  3.494845e-02    1.181145e-04
  3.524738e-02    1.169033e-04
  3.554631e-02    1.157307e-04
  3.584524e-02    1.146216e-04
  3.614417e-02    1.138255e-04
  3.644310e-02    1.132793e-04
  3.674204e-02    1.120299e-04
  3.704097e-02    1.110980e-04
  3.733990e-02    1.101546e-04
  3.763883e-02    1.094686e-04
  3.793776e-02    1.092080e-04
  3.823669e-02    1.088878e-04
  3.853562e-02    1.080677e-04
  3.883455e-02    1.073382e-04
  3.913348e-02    1.066780e-04
  3.943241e-02    1.062424e-04
  3.973134e-02    1.054075e-04
  4.003027e-02    1.050421e-04
  4.032920e-02    1.051599e-04
  4.062813e-02    1.045120e-04
  4.092706e-02    1.036569e-04
  4.122599e-02    1.033062e-04
  4.152492e-02    1.034728e-04
  4.182385e-02    1.032342e-04
  4.212278e-02    1.031628e-04
  4.242171e-02    1.027310e-04
  4.272064e-02    1.024936e-04
  4.301957e-02    1.018818e-04
  4.331850e-02    1.019603e-04
  4.361743e-02    1.017495e-04
  4.391636e-02    1.009541e-04
  4.421529e-02    1.006670e-04
  4.451423e-02    1.005153e-04
  4.481316e-02    1.006662e-04
  4.511209e-02    1.004420e-04
  4.541102e-02    1.000918e-04
  4.570995e-02    9.995682e-05
  4.600888e-02    1.001599e-04
  4.630781e-02    1.003387e-04
  4.660674e-02    1.003661e-04
  4.690567e-02    1.000263e-04
  4.720460e-02    9.981572e-05
  4.750353e-02    9.995550e-05
  4.780246e-02    9.968169e-05
  4.810139e-02    9.988867e-05
  4.840032e-02    9.923487e-05
  4.869925e-02    9.859799e-05
  4.899818e-02    9.834300e-05
  4.929711e-02    9.825799e-05
  4.959604e-02    9.786430e-05
  4.989497e-02    9.752395e-05
  5.019390e-02    9.761426e-05
  5.049283e-02    9.752845e-05
  5.079176e-02    9.757231e-05
  5.109069e-02    9.837539e-05
  5.138962e-02    9.874327e-05
  5.168855e-02    9.980297e-05
  5.198748e-02    1.010515e-04
  5.228642e-02    9.952949e-05
  5.258535e-02    9.715812e-05
  5.288428e-02    9.591718e-05
  5.318321e-02    9.563809e-05
  5.348214e-02    9.481730e-05
  5.378107e-02    9.515364e-05
  5.408000e-02    9.454363e-05
  5.437893e-02    9.456097e-05
  5.467786e-02    9.455680e-05
  5.497679e-02    9.427983e-05
  5.527572e-02    9.399143e-05
  5.557465e-02    9.421521e-05
  5.587358e-02    9.428246e-05
  5.617251e-02    9.404989e-05
  5.647144e-02    9.312287e-05
  5.677037e-02    9.285723e-05
  5.706930e-02    9.280716e-05
  5.736823e-02    9.342916e-05
  5.766716e-02    9.284325e-05
  5.796609e-02    9.244677e-05
  5.826502e-02    9.257899e-05
  5.856395e-02    9.289831e-05
  5.886288e-02    9.255061e-05
  5.916181e-02    9.195581e-05
  5.946074e-02    9.203647e-05
  5.975967e-02    9.240382e-05
  6.005861e-02    9.225265e-05
  6.035754e-02    9.241856e-05
  6.065647e-02    9.270648e-05
  6.095540e-02    9.266685e-05
  6.125433e-02    9.416784e-05
  6.155326e-02    9.453054e-05
  6.185219e-02    9.283653e-05
  6.215112e-02    9.194324e-05
  6.245005e-02    9.177539e-05
  6.274898e-02    9.143732e-05
  6.304791e-02    9.155193e-05
  6.334684e-02    9.164886e-05
  6.364577e-02    9.128349e-05
  6.394470e-02    9.148424e-05
  6.424363e-02    9.187830e-05
  6.454256e-02    9.212336e-05
  6.484149e-02    9.194257e-05
  6.514042e-02    9.174348e-05
  6.543935e-02    9.162915e-05
  6.573828e-02    9.146590e-05
  6.603721e-02    9.141135e-05
  6.633614e-02    9.207104e-05
  6.663507e-02    9.219342e-05
  6.693400e-02    9.184595e-05
  6.723293e-02    9.171684e-05
  6.753186e-02    9.194756e-05
  6.783080e-02    9.176831e-05
  6.812973e-02    9.198208e-05
  6.842866e-02    9.226817e-05
  6.872759e-02    9.196848e-05
  6.902652e-02    9.195918e-05
  6.932545e-02    9.204581e-05
  6.962438e-02    9.207582e-05
  6.992331e-02    9.214971e-05
  7.022224e-02    9.229382e-05
  7.052117e-02    9.272740e-05
  7.082010e-02    9.259341e-05
  7.111903e-02    9.265198e-05
  7.141796e-02    9.310485e-05
  7.171689e-02    9.304877e-05
  7.201582e-02    9.287829e-05
  7.231475e-02    9.312663e-05
  7.261368e-02    9.304718e-05
  7.291261e-02    9.291874e-05
  7.321154e-02    9.253541e-05
  7.351047e-02    9.298640e-05
  7.380940e-02    9.265319e-05
  7.410833e-02    9.239980e-05
  7.440726e-02    9.231007e-05
  7.470619e-02    9.278419e-05
  7.500512e-02    9.282657e-05
  7.530405e-02    9.235079e-05
  7.560299e-02    9.231757e-05
  7.590192e-02    9.229868e-05
  7.620085e-02    9.235244e-05
  7.649978e-02    9.223996e-05
  7.679871e-02    9.190250e-05
  7.709764e-02    9.186042e-05
  7.739657e-02    9.179290e-05
  7.769550e-02    9.173903e-05
  7.799443e-02    9.156266e-05
  7.829336e-02    9.215894e-05
  7.859229e-02    9.213683e-05
  7.889122e-02    9.195213e-05
  7.919015e-02    9.160605e-05
  7.948908e-02    9.133889e-05
  7.978801e-02    9.135834e-05
  8.008694e-02    9.120262e-05
  8.038587e-02    9.110720e-05
  8.068480e-02    9.126569e-05
  8.098373e-02    9.104759e-05
  8.128266e-02    9.104755e-05
  8.158159e-02    9.068714e-05
  8.188052e-02    9.058890e-05
  8.217945e-02    9.060860e-05
  8.247838e-02    9.034351e-05
  8.277731e-02    9.013731e-05
  8.307624e-02    8.996968e-05
  8.337518e-02    8.976235e-05
  8.367411e-02    8.981519e-05
  8.397304e-02    8.984163e-05
  8.427197e-02    8.949517e-05
  8.457090e-02    8.976942e-05
  8.486983e-02    8.955165e-05
  8.516876e-02    8.884764e-05
  8.546769e-02    8.882500e-05
  8.576662e-02    8.850486e-05
  8.606555e-02    8.866834e-05
  8.636448e-02    8.885554e-05
  8.666341e-02    8.843043e-05
  8.696234e-02    8.840809e-05
  8.726127e-02    8.877092e-05
  8.756020e-02    8.849659e-05
  8.785913e-02    8.796641e-05
  8.815806e-02    8.739272e-05
  8.845699e-02    8.732080e-05
  8.875592e-02    8.732967e-05
  8.905485e-02    8.722597e-05
  8.935378e-02    8.695567e-05
  8.965271e-02    8.691500e-05
  8.995164e-02    8.650236e-05
  9.025057e-02    8.633765e-05
  9.054950e-02    8.644898e-05
  9.084843e-02    8.628655e-05
  9.114737e-02    8.609537e-05
  9.144630e-02    8.593041e-05
  9.174523e-02    8.597446e-05
  9.204416e-02    8.602474e-05
  9.234309e-02    8.548871e-05
  9.264202e-02    8.501609e-05
  9.294095e-02    8.551936e-05
  9.323988e-02    8.531774e-05
  9.353881e-02    8.482362e-05
  9.383774e-02    8.463491e-05
  9.413667e-02    8.452559e-05
  9.443560e-02    8.448670e-05
  9.473453e-02    8.463437e-05
  9.503346e-02    8.454047e-05
  9.533239e-02    8.455022e-05
  9.563132e-02    8.418493e-05
  9.593025e-02    8.417813e-05
  9.622918e-02    8.438020e-05
  9.652811e-02    8.460403e-05
  9.682704e-02    8.429218e-05
  9.712597e-02    8.423814e-05
  9.742490e-02    8.438249e-05
  9.772383e-02    8.403899e-05
  9.802276e-02    8.325068e-05
  9.832169e-02    8.271843e-05
  9.862062e-02    8.256497e-05
  9.891956e-02    8.247176e-05
  9.921849e-02    8.216325e-05
  9.951742e-02    8.200834e-05
  9.981635e-02    8.201018e-05
  1.001153e-01    8.191666e-05
  1.004142e-01    8.166886e-05
  1.007131e-01    8.138394e-05
  1.010121e-01    8.128447e-05
  1.013110e-01    8.150903e-05
  1.016099e-01    8.120919e-05
  1.019089e-01    8.101097e-05
  1.022078e-01    8.067302e-05
  1.025067e-01    8.040567e-05
  1.028057e-01    8.009230e-05
  1.031046e-01    7.995942e-05
  1.034035e-01    7.996921e-05
  1.037024e-01    8.014869e-05
  1.040014e-01    8.019865e-05
  1.043003e-01    7.971252e-05
  1.045992e-01    7.938041e-05
  1.048982e-01    7.922008e-05
  1.051971e-01    7.895919e-05
  1.054960e-01    7.887181e-05
  1.057950e-01    7.887537e-05
  1.060939e-01    7.887698e-05
  1.063928e-01    7.867720e-05
  1.066917e-01    7.877307e-05
  1.069907e-01    7.906901e-05
  1.072896e-01    7.859889e-05
  1.075885e-01    7.822175e-05
  1.078875e-01    7.845307e-05
  1.081864e-01    7.846009e-05
  1.084853e-01    7.810495e-05
  1.087843e-01    7.802793e-05
  1.090832e-01    7.822387e-05
  1.093821e-01    7.803954e-05
  1.096810e-01    7.741171e-05
  1.099800e-01    7.717222e-05
  1.102789e-01    7.714307e-05
  1.105778e-01    7.675534e-05
  1.108768e-01    7.673493e-05
  1.111757e-01    7.640370e-05
  1.114746e-01    7.569895e-05
  1.117736e-01    7.571097e-05
  1.120725e-01    7.499844e-05
  1.123714e-01    7.508510e-05
  1.126704e-01    7.525198e-05
  1.129693e-01    7.469311e-05
  1.132682e-01    7.378664e-05
  1.135671e-01    7.367224e-05
  1.138661e-01    7.381068e-05
  1.141650e-01    7.377187e-05
  1.144639e-01    7.370911e-05
  1.147629e-01    7.384748e-05
  1.150618e-01    7.285552e-05
  1.153607e-01    7.289825e-05
  1.156597e-01    7.290590e-05
  1.159586e-01    7.243049e-05
  1.162575e-01    7.215583e-05
  1.165564e-01    7.273251e-05
  1.168554e-01    7.257966e-05
  1.171543e-01    7.136345e-05
  1.174532e-01    7.186384e-05
  1.177522e-01    7.164488e-05
  1.180511e-01    7.199636e-05
  1.183500e-01    7.218678e-05
  1.186490e-01    7.136007e-05
  1.189479e-01    7.171989e-05
  1.192468e-01    7.238912e-05
  1.195458e-01    7.204225e-05
  1.198447e-01    7.141325e-05
  1.201436e-01    6.986116e-05
  1.204425e-01    7.040380e-05
  1.207415e-01    6.439844e-05
  1.210404e-01    6.816957e-05
  1.213393e-01    0.000000e+00
  1.216383e-01    0.000000e+00
  1.219372e-01    0.000000e+00
  1.222361e-01    0.000000e+00
  1.225351e-01    0.000000e+00
  1.228340e-01    0.000000e+00
  1.231329e-01    0.000000e+00
  1.234318e-01    0.000000e+00
  1.237308e-01    0.000000e+00
  1.240297e-01    0.000000e+00
  1.243286e-01    0.000000e+00
  1.246276e-01    0.000000e+00
  1.249265e-01    0.000000e+00
  1.252254e-01    0.000000e+00
  1.255244e-01    0.000000e+00
  1.258233e-01    0.000000e+00
  1.261222e-01    0.000000e+00
  1.264212e-01    0.000000e+00
  1.267201e-01    0.000000e+00
  1.270190e-01    0.000000e+00
  1.273179e-01    0.000000e+00
  1.276169e-01    0.000000e+00
  1.279158e-01    0.000000e+00
  1.282147e-01    0.000000e+00
  1.285137e-01    0.000000e+00
  1.288126e-01    0.000000e+00
  1.291115e-01    0.000000e+00
  1.294105e-01    0.000000e+00
  1.297094e-01    0.000000e+00
  1.300083e-01    0.000000e+00
  1.303072e-01    0.000000e+00
  1.306062e-01    0.000000e+00
  1.309051e-01    0.000000e+00
  1.312040e-01    0.000000e+00
  1.315030e-01    0.000000e+00
  1.318019e-01    0.000000e+00
  1.321008e-01    0.000000e+00
  1.323998e-01    0.000000e+00
  1.326987e-01    0.000000e+00
  1.329976e-01    0.000000e+00
  1.332965e-01    0.000000e+00
  1.335955e-01    0.000000e+00
  1.338944e-01    0.000000e+00
  1.341933e-01    0.000000e+00
  1.344923e-01    0.000000e+00
  1.347912e-01    0.000000e+00
  1.350901e-01    0.000000e+00
  1.353891e-01    0.000000e+00
  1.356880e-01    0.000000e+00
  1.359869e-01    0.000000e+00
  1.362859e-01    0.000000e+00
  1.365848e-01    0.000000e+00
  1.368837e-01    0.000000e+00
  1.371826e-01    0.000000e+00
  1.374816e-01    0.000000e+00
  1.377805e-01    0.000000e+00
  1.380794e-01    0.000000e+00
  1.383784e-01    0.000000e+00
  1.386773e-01    0.000000e+00
  1.389762e-01    0.000000e+00
  1.392752e-01    0.000000e+00
  1.395741e-01    0.000000e+00
  1.398730e-01    0.000000e+00
  1.401719e-01    0.000000e+00
  1.404709e-01    0.000000e+00
  1.407698e-01    0.000000e+00
  1.410687e-01    0.000000e+00
  1.413677e-01    0.000000e+00
  1.416666e-01    0.000000e+00
  1.419655e-01    0.000000e+00
  1.422645e-01    0.000000e+00
  1.425634e-01    0.000000e+00
  1.428623e-01    0.000000e+00
  1.431613e-01    0.000000e+00
  1.434602e-01    0.000000e+00
  1.437591e-01    0.000000e+00
  1.440580e-01    0.000000e+00
  1.443570e-01    0.000000e+00
  1.446559e-01    0.000000e+00
  1.449548e-01    0.000000e+00
  1.452538e-01    0.000000e+00
  1.455527e-01    0.000000e+00
  1.458516e-01    0.000000e+00
  1.461506e-01    0.000000e+00
  1.464495e-01    0.000000e+00
  1.467484e-01    0.000000e+00
  1.470473e-01    0.000000e+00
  1.473463e-01    0.000000e+00
  1.476452e-01    0.000000e+00
  1.479441e-01    0.000000e+00
  1.482431e-01    0.000000e+00
  1.485420e-01    0.000000e+00
  1.488409e-01    0.000000e+00
  1.491399e-01    0.000000e+00
  1.494388e-01    0.000000e+00
  1.497377e-01    0.000000e+00
  1.500367e-01    0.000000e+00
  1.503356e-01    0.000000e+00
  1.506345e-01    0.000000e+00
  1.509334e-01    0.000000e+00
  1.512324e-01    0.000000e+00
  1.515313e-01    0.000000e+00
  1.518302e-01    0.000000e+00
  1.521292e-01    0.000000e+00
  1.524281e-01    0.000000e+00
  1.527270e-01    0.000000e+00
  1.530260e-01    0.000000e+00
  1.533249e-01    0.000000e+00
  1.536238e-01    0.000000e+00
