# == pyFAI calibration ==
# Distance Sample to Detector: 2.266 m
# PONI: 5.659e-02, 4.293e-02 m
# Rotations: 0.000000 0.000000 0.000000 rad
# 
# == Fit2d calibration ==
# Distance Sample-beamCenter: 2266.000 mm
# Center: x=249.594, y=329.012 pix
# Tilt: 0.000 deg  TiltPlanRot: 0.000 deg
# 
# Detector Pilatus 300k	 PixelSize= 1.720e-04, 1.720e-04 m
#    Detector has a mask: True 
#    Detector has a dark current: False 
#    detector has a flat field: False 
# 
# Wavelength: 1.27818e-10 m
# Mask applied: user provided
# Dark current applied: False
# Flat field applied: False
# Polarization factor: None
# Normalization factor: 4506823.600000001
# --> F127_51.078_NaCl_19.702_limonene_0.000mgml_2_r1d.csv
#        q_A^-1             I 
  4.457554e-03    2.381738e-03
  4.756484e-03    1.871834e-03
  5.055415e-03    1.317956e-03
  5.354345e-03    8.981532e-04
  5.653276e-03    6.592057e-04
  5.952206e-03    9.871973e-04
  6.251136e-03    8.977152e-04
  6.550067e-03    7.814996e-04
  6.848997e-03    6.691022e-04
  7.147927e-03    5.685163e-04
  7.446858e-03    4.874432e-04
  7.745788e-03    4.194276e-04
  8.044719e-03    3.630350e-04
  8.343649e-03    3.184908e-04
  8.642579e-03    2.808362e-04
  8.941510e-03    2.496597e-04
  9.240440e-03    2.229081e-04
  9.539371e-03    1.999848e-04
  9.838301e-03    1.790875e-04
  1.013723e-02    1.617718e-04
  1.043616e-02    1.473612e-04
  1.073509e-02    1.337100e-04
  1.103402e-02    1.223596e-04
  1.133295e-02    1.124736e-04
  1.163188e-02    1.037453e-04
  1.193081e-02    9.605585e-05
  1.222974e-02    8.947172e-05
  1.252867e-02    8.331825e-05
  1.282760e-02    7.780400e-05
  1.312654e-02    7.284991e-05
  1.342547e-02    6.855332e-05
  1.372440e-02    6.483682e-05
  1.402333e-02    6.053251e-05
  1.432226e-02    5.701367e-05
  1.462119e-02    5.422555e-05
  1.492012e-02    5.137104e-05
  1.521905e-02    4.902668e-05
  1.551798e-02    4.685256e-05
  1.581691e-02    4.496394e-05
  1.611584e-02    4.311375e-05
  1.641477e-02    4.117105e-05
  1.671370e-02    3.920615e-05
  1.701263e-02    3.788617e-05
  1.731156e-02    3.658978e-05
  1.761049e-02    3.522748e-05
  1.790942e-02    3.407630e-05
  1.820835e-02    3.284142e-05
  1.850728e-02    3.181091e-05
  1.880621e-02    3.080771e-05
  1.910514e-02    2.989824e-05
  1.940407e-02    2.900916e-05
  1.970300e-02    2.796660e-05
  2.000193e-02    2.716937e-05
  2.030086e-02    2.635984e-05
  2.059979e-02    2.554251e-05
  2.089873e-02    2.485734e-05
  2.119766e-02    2.420164e-05
  2.149659e-02    2.362258e-05
  2.179552e-02    2.311085e-05
  2.209445e-02    2.247186e-05
  2.239338e-02    2.192239e-05
  2.269231e-02    2.132400e-05
  2.299124e-02    2.074971e-05
  2.329017e-02    2.019871e-05
  2.358910e-02    1.981524e-05
  2.388803e-02    1.939398e-05
  2.418696e-02    1.891633e-05
  2.448589e-02    1.851167e-05
  2.478482e-02    1.808680e-05
  2.508375e-02    1.765165e-05
  2.538268e-02    1.727905e-05
  2.568161e-02    1.687758e-05
  2.598054e-02    1.664538e-05
  2.627947e-02    1.634969e-05
  2.657840e-02    1.598886e-05
  2.687733e-02    1.564527e-05
  2.717626e-02    1.530157e-05
  2.747519e-02    1.497734e-05
  2.777412e-02    1.470689e-05
  2.807305e-02    1.440579e-05
  2.837198e-02    1.414788e-05
  2.867092e-02    1.387456e-05
  2.896985e-02    1.360716e-05
  2.926878e-02    1.329399e-05
  2.956771e-02    1.309998e-05
  2.986664e-02    1.283945e-05
  3.016557e-02    1.254747e-05
  3.046450e-02    1.231262e-05
  3.076343e-02    1.213027e-05
  3.106236e-02    1.199312e-05
  3.136129e-02    1.181157e-05
  3.166022e-02    1.156858e-05
  3.195915e-02    1.138274e-05
  3.225808e-02    1.122140e-05
  3.255701e-02    1.111368e-05
  3.285594e-02    1.092833e-05
  3.315487e-02    1.071942e-05
  3.345380e-02    1.053222e-05
  3.375273e-02    1.032889e-05
  3.405166e-02    1.011599e-05
  3.435059e-02    9.987172e-06
  3.464952e-02    9.892331e-06
  3.494845e-02    9.834413e-06
  3.524738e-02    9.747734e-06
  3.554631e-02    9.613966e-06
  3.584524e-02    9.477671e-06
  3.614417e-02    9.439591e-06
  3.644310e-02    9.345165e-06
  3.674204e-02    9.224319e-06
  3.704097e-02    9.101173e-06
  3.733990e-02    9.009098e-06
  3.763883e-02    8.922960e-06
  3.793776e-02    8.892602e-06
  3.823669e-02    8.715398e-06
  3.853562e-02    8.698474e-06
  3.883455e-02    8.666735e-06
  3.913348e-02    8.575523e-06
  3.943241e-02    8.470155e-06
  3.973134e-02    8.417207e-06
  4.003027e-02    8.315861e-06
  4.032920e-02    8.247167e-06
  4.062813e-02    8.243744e-06
  4.092706e-02    8.284557e-06
  4.122599e-02    8.217327e-06
  4.152492e-02    8.150502e-06
  4.182385e-02    8.079755e-06
  4.212278e-02    8.091740e-06
  4.242171e-02    8.092862e-06
  4.272064e-02    8.037448e-06
  4.301957e-02    7.977071e-06
  4.331850e-02    7.929001e-06
  4.361743e-02    7.918830e-06
  4.391636e-02    7.936634e-06
  4.421529e-02    7.864259e-06
  4.451423e-02    7.871455e-06
  4.481316e-02    7.814098e-06
  4.511209e-02    7.761756e-06
  4.541102e-02    7.754034e-06
  4.570995e-02    7.874910e-06
  4.600888e-02    7.838595e-06
  4.630781e-02    7.853876e-06
  4.660674e-02    7.867244e-06
  4.690567e-02    7.815198e-06
  4.720460e-02    7.803514e-06
  4.750353e-02    7.817524e-06
  4.780246e-02    7.761893e-06
  4.810139e-02    7.677935e-06
  4.840032e-02    7.654308e-06
  4.869925e-02    7.678000e-06
  4.899818e-02    7.720694e-06
  4.929711e-02    7.695688e-06
  4.959604e-02    7.705083e-06
  4.989497e-02    7.711488e-06
  5.019390e-02    7.770140e-06
  5.049283e-02    7.804101e-06
  5.079176e-02    7.756022e-06
  5.109069e-02    7.765867e-06
  5.138962e-02    7.781213e-06
  5.168855e-02    7.859355e-06
  5.198748e-02    7.947907e-06
  5.228642e-02    7.939389e-06
  5.258535e-02    7.763406e-06
  5.288428e-02    7.673291e-06
  5.318321e-02    7.667395e-06
  5.348214e-02    7.685359e-06
  5.378107e-02    7.696579e-06
  5.408000e-02    7.753398e-06
  5.437893e-02    7.760495e-06
  5.467786e-02    7.754245e-06
  5.497679e-02    7.734340e-06
  5.527572e-02    7.693653e-06
  5.557465e-02    7.701131e-06
  5.587358e-02    7.678793e-06
  5.617251e-02    7.678319e-06
  5.647144e-02    7.681131e-06
  5.677037e-02    7.715990e-06
  5.706930e-02    7.690536e-06
  5.736823e-02    7.735648e-06
  5.766716e-02    7.763840e-06
  5.796609e-02    7.722606e-06
  5.826502e-02    7.694753e-06
  5.856395e-02    7.672263e-06
  5.886288e-02    7.720539e-06
  5.916181e-02    7.759049e-06
  5.946074e-02    7.729202e-06
  5.975967e-02    7.747085e-06
  6.005861e-02    7.740306e-06
  6.035754e-02    7.751561e-06
  6.065647e-02    7.782032e-06
  6.095540e-02    7.752677e-06
  6.125433e-02    7.805063e-06
  6.155326e-02    7.845543e-06
  6.185219e-02    7.884174e-06
  6.215112e-02    7.856226e-06
  6.245005e-02    7.820549e-06
  6.274898e-02    7.813881e-06
  6.304791e-02    7.772437e-06
  6.334684e-02    7.800762e-06
  6.364577e-02    7.787848e-06
  6.394470e-02    7.782920e-06
  6.424363e-02    7.836957e-06
  6.454256e-02    7.778714e-06
  6.484149e-02    7.789577e-06
  6.514042e-02    7.854325e-06
  6.543935e-02    7.825273e-06
  6.573828e-02    7.777561e-06
  6.603721e-02    7.756059e-06
  6.633614e-02    7.820260e-06
  6.663507e-02    7.827266e-06
  6.693400e-02    7.903490e-06
  6.723293e-02    7.865683e-06
  6.753186e-02    7.826154e-06
  6.783080e-02    7.831889e-06
  6.812973e-02    7.838642e-06
  6.842866e-02    7.851570e-06
  6.872759e-02    7.853801e-06
  6.902652e-02    7.853419e-06
  6.932545e-02    7.907297e-06
  6.962438e-02    7.891837e-06
  6.992331e-02    7.879654e-06
  7.022224e-02    7.877628e-06
  7.052117e-02    7.871397e-06
  7.082010e-02    7.863906e-06
  7.111903e-02    7.899371e-06
  7.141796e-02    7.867288e-06
  7.171689e-02    7.868776e-06
  7.201582e-02    7.886930e-06
  7.231475e-02    7.877551e-06
  7.261368e-02    7.868774e-06
  7.291261e-02    7.894449e-06
  7.321154e-02    7.939547e-06
  7.351047e-02    7.892942e-06
  7.380940e-02    7.835494e-06
  7.410833e-02    7.883447e-06
  7.440726e-02    7.939545e-06
  7.470619e-02    7.901336e-06
  7.500512e-02    7.891329e-06
  7.530405e-02    7.968466e-06
  7.560299e-02    7.977848e-06
  7.590192e-02    7.940141e-06
  7.620085e-02    7.955797e-06
  7.649978e-02    7.901945e-06
  7.679871e-02    7.888351e-06
  7.709764e-02    7.936800e-06
  7.739657e-02    7.947073e-06
  7.769550e-02    7.897162e-06
  7.799443e-02    7.870393e-06
  7.829336e-02    7.888440e-06
  7.859229e-02    7.885006e-06
  7.889122e-02    7.892719e-06
  7.919015e-02    7.907393e-06
  7.948908e-02    7.922014e-06
  7.978801e-02    7.945143e-06
  8.008694e-02    7.908989e-06
  8.038587e-02    7.878788e-06
  8.068480e-02    7.816440e-06
  8.098373e-02    7.799932e-06
  8.128266e-02    7.877597e-06
  8.158159e-02    7.839079e-06
  8.188052e-02    7.763231e-06
  8.217945e-02    7.776718e-06
  8.247838e-02    7.766270e-06
  8.277731e-02    7.738095e-06
  8.307624e-02    7.737553e-06
  8.337518e-02    7.779138e-06
  8.367411e-02    7.763621e-06
  8.397304e-02    7.757226e-06
  8.427197e-02    7.797676e-06
  8.457090e-02    7.761001e-06
  8.486983e-02    7.777733e-06
  8.516876e-02    7.783200e-06
  8.546769e-02    7.721041e-06
  8.576662e-02    7.696793e-06
  8.606555e-02    7.727958e-06
  8.636448e-02    7.717921e-06
  8.666341e-02    7.708214e-06
  8.696234e-02    7.699443e-06
  8.726127e-02    7.666393e-06
  8.756020e-02    7.651243e-06
  8.785913e-02    7.617359e-06
  8.815806e-02    7.618760e-06
  8.845699e-02    7.638274e-06
  8.875592e-02    7.645763e-06
  8.905485e-02    7.628271e-06
  8.935378e-02    7.628232e-06
  8.965271e-02    7.631056e-06
  8.995164e-02    7.596326e-06
  9.025057e-02    7.584049e-06
  9.054950e-02    7.559224e-06
  9.084843e-02    7.560691e-06
  9.114737e-02    7.595915e-06
  9.144630e-02    7.617155e-06
  9.174523e-02    7.605273e-06
  9.204416e-02    7.545470e-06
  9.234309e-02    7.490887e-06
  9.264202e-02    7.486137e-06
  9.294095e-02    7.431525e-06
  9.323988e-02    7.414337e-06
  9.353881e-02    7.425137e-06
  9.383774e-02    7.453909e-06
  9.413667e-02    7.426762e-06
  9.443560e-02    7.419841e-06
  9.473453e-02    7.423573e-06
  9.503346e-02    7.411215e-06
  9.533239e-02    7.423150e-06
  9.563132e-02    7.427409e-06
  9.593025e-02    7.438782e-06
  9.622918e-02    7.412590e-06
  9.652811e-02    7.402275e-06
  9.682704e-02    7.415747e-06
  9.712597e-02    7.387310e-06
  9.742490e-02    7.393084e-06
  9.772383e-02    7.396557e-06
  9.802276e-02    7.339801e-06
  9.832169e-02    7.313682e-06
  9.862062e-02    7.370285e-06
  9.891956e-02    7.327059e-06
  9.921849e-02    7.262272e-06
  9.951742e-02    7.261906e-06
  9.981635e-02    7.246676e-06
  1.001153e-01    7.267596e-06
  1.004142e-01    7.278887e-06
  1.007131e-01    7.231546e-06
  1.010121e-01    7.191249e-06
  1.013110e-01    7.214604e-06
  1.016099e-01    7.215945e-06
  1.019089e-01    7.234577e-06
  1.022078e-01    7.242586e-06
  1.025067e-01    7.220640e-06
  1.028057e-01    7.234041e-06
  1.031046e-01    7.181473e-06
  1.034035e-01    7.165063e-06
  1.037024e-01    7.089294e-06
  1.040014e-01    7.119239e-06
  1.043003e-01    7.126604e-06
  1.045992e-01    7.102576e-06
  1.048982e-01    7.064696e-06
  1.051971e-01    7.037594e-06
  1.054960e-01    7.048031e-06
  1.057950e-01    7.012547e-06
  1.060939e-01    6.994536e-06
  1.063928e-01    7.045187e-06
  1.066917e-01    7.063397e-06
  1.069907e-01    7.070643e-06
  1.072896e-01    7.097829e-06
  1.075885e-01    7.094695e-06
  1.078875e-01    7.089287e-06
  1.081864e-01    7.064915e-06
  1.084853e-01    7.039705e-06
  1.087843e-01    7.087032e-06
  1.090832e-01    7.076610e-06
  1.093821e-01    7.031600e-06
  1.096810e-01    7.041265e-06
  1.099800e-01    7.014552e-06
  1.102789e-01    6.956592e-06
  1.105778e-01    6.948255e-06
  1.108768e-01    6.908899e-06
  1.111757e-01    6.880701e-06
  1.114746e-01    6.851172e-06
  1.117736e-01    6.823587e-06
  1.120725e-01    6.806031e-06
  1.123714e-01    6.800959e-06
  1.126704e-01    6.751206e-06
  1.129693e-01    6.702133e-06
  1.132682e-01    6.677651e-06
  1.135671e-01    6.595384e-06
  1.138661e-01    6.537095e-06
  1.141650e-01    6.431078e-06
  1.144639e-01    6.418421e-06
  1.147629e-01    6.339784e-06
  1.150618e-01    6.301697e-06
  1.153607e-01    6.277995e-06
  1.156597e-01    6.271889e-06
  1.159586e-01    6.283075e-06
  1.162575e-01    6.248308e-06
  1.165564e-01    6.217400e-06
  1.168554e-01    6.340850e-06
  1.171543e-01    6.385881e-06
  1.174532e-01    6.416839e-06
  1.177522e-01    6.396054e-06
  1.180511e-01    6.394519e-06
  1.183500e-01    6.297080e-06
  1.186490e-01    6.204748e-06
  1.189479e-01    6.239039e-06
  1.192468e-01    6.261898e-06
  1.195458e-01    6.282555e-06
  1.198447e-01    6.202078e-06
  1.201436e-01    6.011358e-06
  1.204425e-01    5.988252e-06
  1.207415e-01    6.337393e-06
  1.210404e-01    5.552170e-06
  1.213393e-01    0.000000e+00
  1.216383e-01    0.000000e+00
  1.219372e-01    0.000000e+00
  1.222361e-01    0.000000e+00
  1.225351e-01    0.000000e+00
  1.228340e-01    0.000000e+00
  1.231329e-01    0.000000e+00
  1.234318e-01    0.000000e+00
  1.237308e-01    0.000000e+00
  1.240297e-01    0.000000e+00
  1.243286e-01    0.000000e+00
  1.246276e-01    0.000000e+00
  1.249265e-01    0.000000e+00
  1.252254e-01    0.000000e+00
  1.255244e-01    0.000000e+00
  1.258233e-01    0.000000e+00
  1.261222e-01    0.000000e+00
  1.264212e-01    0.000000e+00
  1.267201e-01    0.000000e+00
  1.270190e-01    0.000000e+00
  1.273179e-01    0.000000e+00
  1.276169e-01    0.000000e+00
  1.279158e-01    0.000000e+00
  1.282147e-01    0.000000e+00
  1.285137e-01    0.000000e+00
  1.288126e-01    0.000000e+00
  1.291115e-01    0.000000e+00
  1.294105e-01    0.000000e+00
  1.297094e-01    0.000000e+00
  1.300083e-01    0.000000e+00
  1.303072e-01    0.000000e+00
  1.306062e-01    0.000000e+00
  1.309051e-01    0.000000e+00
  1.312040e-01    0.000000e+00
  1.315030e-01    0.000000e+00
  1.318019e-01    0.000000e+00
  1.321008e-01    0.000000e+00
  1.323998e-01    0.000000e+00
  1.326987e-01    0.000000e+00
  1.329976e-01    0.000000e+00
  1.332965e-01    0.000000e+00
  1.335955e-01    0.000000e+00
  1.338944e-01    0.000000e+00
  1.341933e-01    0.000000e+00
  1.344923e-01    0.000000e+00
  1.347912e-01    0.000000e+00
  1.350901e-01    0.000000e+00
  1.353891e-01    0.000000e+00
  1.356880e-01    0.000000e+00
  1.359869e-01    0.000000e+00
  1.362859e-01    0.000000e+00
  1.365848e-01    0.000000e+00
  1.368837e-01    0.000000e+00
  1.371826e-01    0.000000e+00
  1.374816e-01    0.000000e+00
  1.377805e-01    0.000000e+00
  1.380794e-01    0.000000e+00
  1.383784e-01    0.000000e+00
  1.386773e-01    0.000000e+00
  1.389762e-01    0.000000e+00
  1.392752e-01    0.000000e+00
  1.395741e-01    0.000000e+00
  1.398730e-01    0.000000e+00
  1.401719e-01    0.000000e+00
  1.404709e-01    0.000000e+00
  1.407698e-01    0.000000e+00
  1.410687e-01    0.000000e+00
  1.413677e-01    0.000000e+00
  1.416666e-01    0.000000e+00
  1.419655e-01    0.000000e+00
  1.422645e-01    0.000000e+00
  1.425634e-01    0.000000e+00
  1.428623e-01    0.000000e+00
  1.431613e-01    0.000000e+00
  1.434602e-01    0.000000e+00
  1.437591e-01    0.000000e+00
  1.440580e-01    0.000000e+00
  1.443570e-01    0.000000e+00
  1.446559e-01    0.000000e+00
  1.449548e-01    0.000000e+00
  1.452538e-01    0.000000e+00
  1.455527e-01    0.000000e+00
  1.458516e-01    0.000000e+00
  1.461506e-01    0.000000e+00
  1.464495e-01    0.000000e+00
  1.467484e-01    0.000000e+00
  1.470473e-01    0.000000e+00
  1.473463e-01    0.000000e+00
  1.476452e-01    0.000000e+00
  1.479441e-01    0.000000e+00
  1.482431e-01    0.000000e+00
  1.485420e-01    0.000000e+00
  1.488409e-01    0.000000e+00
  1.491399e-01    0.000000e+00
  1.494388e-01    0.000000e+00
  1.497377e-01    0.000000e+00
  1.500367e-01    0.000000e+00
  1.503356e-01    0.000000e+00
  1.506345e-01    0.000000e+00
  1.509334e-01    0.000000e+00
  1.512324e-01    0.000000e+00
  1.515313e-01    0.000000e+00
  1.518302e-01    0.000000e+00
  1.521292e-01    0.000000e+00
  1.524281e-01    0.000000e+00
  1.527270e-01    0.000000e+00
  1.530260e-01    0.000000e+00
  1.533249e-01    0.000000e+00
  1.536238e-01    0.000000e+00
