# == pyFAI calibration ==
# Distance Sample to Detector: 2.266 m
# PONI: 5.659e-02, 4.293e-02 m
# Rotations: 0.000000 0.000000 0.000000 rad
# 
# == Fit2d calibration ==
# Distance Sample-beamCenter: 2266.000 mm
# Center: x=249.594, y=329.012 pix
# Tilt: 0.000 deg  TiltPlanRot: 0.000 deg
# 
# Detector Pilatus 300k	 PixelSize= 1.720e-04, 1.720e-04 m
#    Detector has a mask: True 
#    Detector has a dark current: False 
#    detector has a flat field: False 
# 
# Wavelength: 1.27818e-10 m
# Mask applied: user provided
# Dark current applied: False
# Flat field applied: False
# Polarization factor: None
# Normalization factor: 6741386.0
# --> F127_48.873_NaCl_52.364_limonene_36.306mgml_2_r1d.csv
#        q_A^-1             I 
  4.457554e-03    7.346939e-03
  4.756484e-03    5.869448e-03
  5.055415e-03    4.298151e-03
  5.354345e-03    3.141885e-03
  5.653276e-03    2.496500e-03
  5.952206e-03    4.008830e-03
  6.251136e-03    3.635101e-03
  6.550067e-03    3.127905e-03
  6.848997e-03    2.642450e-03
  7.147927e-03    2.230502e-03
  7.446858e-03    1.906673e-03
  7.745788e-03    1.637034e-03
  8.044719e-03    1.414608e-03
  8.343649e-03    1.237380e-03
  8.642579e-03    1.082712e-03
  8.941510e-03    9.542272e-04
  9.240440e-03    8.465153e-04
  9.539371e-03    7.518948e-04
  9.838301e-03    6.689461e-04
  1.013723e-02    5.989125e-04
  1.043616e-02    5.393050e-04
  1.073509e-02    4.845974e-04
  1.103402e-02    4.385176e-04
  1.133295e-02    3.975070e-04
  1.163188e-02    3.621615e-04
  1.193081e-02    3.312732e-04
  1.222974e-02    3.025925e-04
  1.252867e-02    2.766640e-04
  1.282760e-02    2.544490e-04
  1.312654e-02    2.351323e-04
  1.342547e-02    2.177729e-04
  1.372440e-02    2.018159e-04
  1.402333e-02    1.872551e-04
  1.432226e-02    1.736950e-04
  1.462119e-02    1.612945e-04
  1.492012e-02    1.508082e-04
  1.521905e-02    1.409029e-04
  1.551798e-02    1.321094e-04
  1.581691e-02    1.242214e-04
  1.611584e-02    1.166331e-04
  1.641477e-02    1.097934e-04
  1.671370e-02    1.034879e-04
  1.701263e-02    9.810780e-05
  1.731156e-02    9.294424e-05
  1.761049e-02    8.814312e-05
  1.790942e-02    8.375840e-05
  1.820835e-02    7.957884e-05
  1.850728e-02    7.585635e-05
  1.880621e-02    7.273493e-05
  1.910514e-02    6.939987e-05
  1.940407e-02    6.627999e-05
  1.970300e-02    6.361026e-05
  2.000193e-02    6.102494e-05
  2.030086e-02    5.861524e-05
  2.059979e-02    5.669260e-05
  2.089873e-02    5.470445e-05
  2.119766e-02    5.268863e-05
  2.149659e-02    5.085886e-05
  2.179552e-02    4.902463e-05
  2.209445e-02    4.756362e-05
  2.239338e-02    4.618580e-05
  2.269231e-02    4.476528e-05
  2.299124e-02    4.347861e-05
  2.329017e-02    4.223314e-05
  2.358910e-02    4.110591e-05
  2.388803e-02    4.004864e-05
  2.418696e-02    3.890712e-05
  2.448589e-02    3.808982e-05
  2.478482e-02    3.733067e-05
  2.508375e-02    3.665174e-05
  2.538268e-02    3.587574e-05
  2.568161e-02    3.509738e-05
  2.598054e-02    3.433702e-05
  2.627947e-02    3.360760e-05
  2.657840e-02    3.328809e-05
  2.687733e-02    3.268701e-05
  2.717626e-02    3.203985e-05
  2.747519e-02    3.153873e-05
  2.777412e-02    3.097910e-05
  2.807305e-02    3.053086e-05
  2.837198e-02    3.014393e-05
  2.867092e-02    2.976090e-05
  2.896985e-02    2.929511e-05
  2.926878e-02    2.892603e-05
  2.956771e-02    2.854733e-05
  2.986664e-02    2.814216e-05
  3.016557e-02    2.781557e-05
  3.046450e-02    2.744552e-05
  3.076343e-02    2.723118e-05
  3.106236e-02    2.700161e-05
  3.136129e-02    2.668440e-05
  3.166022e-02    2.643789e-05
  3.195915e-02    2.623349e-05
  3.225808e-02    2.591761e-05
  3.255701e-02    2.567899e-05
  3.285594e-02    2.540474e-05
  3.315487e-02    2.510912e-05
  3.345380e-02    2.484537e-05
  3.375273e-02    2.454223e-05
  3.405166e-02    2.428111e-05
  3.435059e-02    2.423643e-05
  3.464952e-02    2.400859e-05
  3.494845e-02    2.385036e-05
  3.524738e-02    2.361444e-05
  3.554631e-02    2.340434e-05
  3.584524e-02    2.319764e-05
  3.614417e-02    2.303460e-05
  3.644310e-02    2.287474e-05
  3.674204e-02    2.265833e-05
  3.704097e-02    2.247989e-05
  3.733990e-02    2.240842e-05
  3.763883e-02    2.228039e-05
  3.793776e-02    2.213576e-05
  3.823669e-02    2.184955e-05
  3.853562e-02    2.167676e-05
  3.883455e-02    2.159913e-05
  3.913348e-02    2.147409e-05
  3.943241e-02    2.141362e-05
  3.973134e-02    2.132972e-05
  4.003027e-02    2.127405e-05
  4.032920e-02    2.114127e-05
  4.062813e-02    2.118972e-05
  4.092706e-02    2.103817e-05
  4.122599e-02    2.089943e-05
  4.152492e-02    2.077693e-05
  4.182385e-02    2.068779e-05
  4.212278e-02    2.060339e-05
  4.242171e-02    2.053770e-05
  4.272064e-02    2.046509e-05
  4.301957e-02    2.038040e-05
  4.331850e-02    2.035498e-05
  4.361743e-02    2.032402e-05
  4.391636e-02    2.027951e-05
  4.421529e-02    2.024209e-05
  4.451423e-02    2.012259e-05
  4.481316e-02    2.012635e-05
  4.511209e-02    2.007885e-05
  4.541102e-02    2.008898e-05
  4.570995e-02    2.018230e-05
  4.600888e-02    2.017857e-05
  4.630781e-02    2.010720e-05
  4.660674e-02    2.000435e-05
  4.690567e-02    2.001969e-05
  4.720460e-02    1.998382e-05
  4.750353e-02    1.995005e-05
  4.780246e-02    1.998267e-05
  4.810139e-02    1.989696e-05
  4.840032e-02    1.985315e-05
  4.869925e-02    1.983060e-05
  4.899818e-02    1.987333e-05
  4.929711e-02    1.992788e-05
  4.959604e-02    1.983128e-05
  4.989497e-02    1.992983e-05
  5.019390e-02    1.998077e-05
  5.049283e-02    1.993546e-05
  5.079176e-02    1.987693e-05
  5.109069e-02    1.997139e-05
  5.138962e-02    2.010856e-05
  5.168855e-02    2.037099e-05
  5.198748e-02    2.057474e-05
  5.228642e-02    2.041573e-05
  5.258535e-02    2.002891e-05
  5.288428e-02    1.996326e-05
  5.318321e-02    1.994623e-05
  5.348214e-02    1.989056e-05
  5.378107e-02    1.985068e-05
  5.408000e-02    1.992104e-05
  5.437893e-02    1.998962e-05
  5.467786e-02    1.990769e-05
  5.497679e-02    1.994371e-05
  5.527572e-02    1.993602e-05
  5.557465e-02    1.996576e-05
  5.587358e-02    1.996393e-05
  5.617251e-02    1.993702e-05
  5.647144e-02    2.004855e-05
  5.677037e-02    1.996507e-05
  5.706930e-02    1.998207e-05
  5.736823e-02    2.003536e-05
  5.766716e-02    2.005234e-05
  5.796609e-02    2.008405e-05
  5.826502e-02    2.020349e-05
  5.856395e-02    2.022065e-05
  5.886288e-02    2.024301e-05
  5.916181e-02    2.030046e-05
  5.946074e-02    2.032913e-05
  5.975967e-02    2.034725e-05
  6.005861e-02    2.037589e-05
  6.035754e-02    2.045221e-05
  6.065647e-02    2.048675e-05
  6.095540e-02    2.063702e-05
  6.125433e-02    2.082475e-05
  6.155326e-02    2.089431e-05
  6.185219e-02    2.072632e-05
  6.215112e-02    2.070146e-05
  6.245005e-02    2.066128e-05
  6.274898e-02    2.063405e-05
  6.304791e-02    2.065859e-05
  6.334684e-02    2.076174e-05
  6.364577e-02    2.078232e-05
  6.394470e-02    2.075490e-05
  6.424363e-02    2.078631e-05
  6.454256e-02    2.083006e-05
  6.484149e-02    2.082076e-05
  6.514042e-02    2.087452e-05
  6.543935e-02    2.097654e-05
  6.573828e-02    2.109560e-05
  6.603721e-02    2.107818e-05
  6.633614e-02    2.108132e-05
  6.663507e-02    2.107047e-05
  6.693400e-02    2.110340e-05
  6.723293e-02    2.112721e-05
  6.753186e-02    2.115386e-05
  6.783080e-02    2.124781e-05
  6.812973e-02    2.128914e-05
  6.842866e-02    2.124382e-05
  6.872759e-02    2.121615e-05
  6.902652e-02    2.134180e-05
  6.932545e-02    2.138738e-05
  6.962438e-02    2.143521e-05
  6.992331e-02    2.143302e-05
  7.022224e-02    2.147886e-05
  7.052117e-02    2.157729e-05
  7.082010e-02    2.160166e-05
  7.111903e-02    2.156499e-05
  7.141796e-02    2.156548e-05
  7.171689e-02    2.157552e-05
  7.201582e-02    2.165281e-05
  7.231475e-02    2.171304e-05
  7.261368e-02    2.170519e-05
  7.291261e-02    2.183390e-05
  7.321154e-02    2.182253e-05
  7.351047e-02    2.176367e-05
  7.380940e-02    2.171500e-05
  7.410833e-02    2.178384e-05
  7.440726e-02    2.183032e-05
  7.470619e-02    2.179234e-05
  7.500512e-02    2.187267e-05
  7.530405e-02    2.182260e-05
  7.560299e-02    2.183262e-05
  7.590192e-02    2.189157e-05
  7.620085e-02    2.190266e-05
  7.649978e-02    2.188594e-05
  7.679871e-02    2.184534e-05
  7.709764e-02    2.184915e-05
  7.739657e-02    2.179974e-05
  7.769550e-02    2.182321e-05
  7.799443e-02    2.185798e-05
  7.829336e-02    2.193108e-05
  7.859229e-02    2.186849e-05
  7.889122e-02    2.181696e-05
  7.919015e-02    2.188224e-05
  7.948908e-02    2.185237e-05
  7.978801e-02    2.179149e-05
  8.008694e-02    2.173512e-05
  8.038587e-02    2.172696e-05
  8.068480e-02    2.170360e-05
  8.098373e-02    2.168327e-05
  8.128266e-02    2.171840e-05
  8.158159e-02    2.163258e-05
  8.188052e-02    2.162854e-05
  8.217945e-02    2.165125e-05
  8.247838e-02    2.163902e-05
  8.277731e-02    2.167017e-05
  8.307624e-02    2.159943e-05
  8.337518e-02    2.159251e-05
  8.367411e-02    2.160385e-05
  8.397304e-02    2.158462e-05
  8.427197e-02    2.159063e-05
  8.457090e-02    2.153550e-05
  8.486983e-02    2.145067e-05
  8.516876e-02    2.146763e-05
  8.546769e-02    2.144113e-05
  8.576662e-02    2.140089e-05
  8.606555e-02    2.139819e-05
  8.636448e-02    2.131259e-05
  8.666341e-02    2.120058e-05
  8.696234e-02    2.119376e-05
  8.726127e-02    2.120857e-05
  8.756020e-02    2.123858e-05
  8.785913e-02    2.121742e-05
  8.815806e-02    2.114074e-05
  8.845699e-02    2.108377e-05
  8.875592e-02    2.103792e-05
  8.905485e-02    2.103584e-05
  8.935378e-02    2.101386e-05
  8.965271e-02    2.095001e-05
  8.995164e-02    2.088598e-05
  9.025057e-02    2.084239e-05
  9.054950e-02    2.084157e-05
  9.084843e-02    2.082260e-05
  9.114737e-02    2.082691e-05
  9.144630e-02    2.079201e-05
  9.174523e-02    2.075120e-05
  9.204416e-02    2.067803e-05
  9.234309e-02    2.063879e-05
  9.264202e-02    2.063219e-05
  9.294095e-02    2.065048e-05
  9.323988e-02    2.054045e-05
  9.353881e-02    2.045959e-05
  9.383774e-02    2.051114e-05
  9.413667e-02    2.050907e-05
  9.443560e-02    2.046596e-05
  9.473453e-02    2.047344e-05
  9.503346e-02    2.034966e-05
  9.533239e-02    2.033350e-05
  9.563132e-02    2.032236e-05
  9.593025e-02    2.031621e-05
  9.622918e-02    2.029622e-05
  9.652811e-02    2.027874e-05
  9.682704e-02    2.025829e-05
  9.712597e-02    2.021270e-05
  9.742490e-02    2.014423e-05
  9.772383e-02    2.001693e-05
  9.802276e-02    1.996057e-05
  9.832169e-02    1.996340e-05
  9.862062e-02    1.993313e-05
  9.891956e-02    1.979279e-05
  9.921849e-02    1.973839e-05
  9.951742e-02    1.980971e-05
  9.981635e-02    1.970618e-05
  1.001153e-01    1.965159e-05
  1.004142e-01    1.963439e-05
  1.007131e-01    1.953744e-05
  1.010121e-01    1.955959e-05
  1.013110e-01    1.955026e-05
  1.016099e-01    1.949138e-05
  1.019089e-01    1.937115e-05
  1.022078e-01    1.928763e-05
  1.025067e-01    1.928421e-05
  1.028057e-01    1.924752e-05
  1.031046e-01    1.921960e-05
  1.034035e-01    1.920230e-05
  1.037024e-01    1.921296e-05
  1.040014e-01    1.915175e-05
  1.043003e-01    1.906521e-05
  1.045992e-01    1.910045e-05
  1.048982e-01    1.915912e-05
  1.051971e-01    1.901055e-05
  1.054960e-01    1.889100e-05
  1.057950e-01    1.887548e-05
  1.060939e-01    1.884906e-05
  1.063928e-01    1.882400e-05
  1.066917e-01    1.877379e-05
  1.069907e-01    1.877390e-05
  1.072896e-01    1.874001e-05
  1.075885e-01    1.868687e-05
  1.078875e-01    1.865059e-05
  1.081864e-01    1.865352e-05
  1.084853e-01    1.860608e-05
  1.087843e-01    1.859645e-05
  1.090832e-01    1.852148e-05
  1.093821e-01    1.849502e-05
  1.096810e-01    1.844403e-05
  1.099800e-01    1.834097e-05
  1.102789e-01    1.830096e-05
  1.105778e-01    1.822520e-05
  1.108768e-01    1.814479e-05
  1.111757e-01    1.806405e-05
  1.114746e-01    1.802369e-05
  1.117736e-01    1.803749e-05
  1.120725e-01    1.796259e-05
  1.123714e-01    1.791343e-05
  1.126704e-01    1.800500e-05
  1.129693e-01    1.798109e-05
  1.132682e-01    1.786079e-05
  1.135671e-01    1.779324e-05
  1.138661e-01    1.775132e-05
  1.141650e-01    1.769781e-05
  1.144639e-01    1.766130e-05
  1.147629e-01    1.760716e-05
  1.150618e-01    1.755158e-05
  1.153607e-01    1.764289e-05
  1.156597e-01    1.761883e-05
  1.159586e-01    1.763542e-05
  1.162575e-01    1.753117e-05
  1.165564e-01    1.749049e-05
  1.168554e-01    1.754284e-05
  1.171543e-01    1.760236e-05
  1.174532e-01    1.760601e-05
  1.177522e-01    1.751537e-05
  1.180511e-01    1.740330e-05
  1.183500e-01    1.742477e-05
  1.186490e-01    1.742901e-05
  1.189479e-01    1.734186e-05
  1.192468e-01    1.732241e-05
  1.195458e-01    1.736299e-05
  1.198447e-01    1.739560e-05
  1.201436e-01    1.729775e-05
  1.204425e-01    1.705451e-05
  1.207415e-01    1.711467e-05
  1.210404e-01    1.677732e-05
  1.213393e-01    0.000000e+00
  1.216383e-01    0.000000e+00
  1.219372e-01    0.000000e+00
  1.222361e-01    0.000000e+00
  1.225351e-01    0.000000e+00
  1.228340e-01    0.000000e+00
  1.231329e-01    0.000000e+00
  1.234318e-01    0.000000e+00
  1.237308e-01    0.000000e+00
  1.240297e-01    0.000000e+00
  1.243286e-01    0.000000e+00
  1.246276e-01    0.000000e+00
  1.249265e-01    0.000000e+00
  1.252254e-01    0.000000e+00
  1.255244e-01    0.000000e+00
  1.258233e-01    0.000000e+00
  1.261222e-01    0.000000e+00
  1.264212e-01    0.000000e+00
  1.267201e-01    0.000000e+00
  1.270190e-01    0.000000e+00
  1.273179e-01    0.000000e+00
  1.276169e-01    0.000000e+00
  1.279158e-01    0.000000e+00
  1.282147e-01    0.000000e+00
  1.285137e-01    0.000000e+00
  1.288126e-01    0.000000e+00
  1.291115e-01    0.000000e+00
  1.294105e-01    0.000000e+00
  1.297094e-01    0.000000e+00
  1.300083e-01    0.000000e+00
  1.303072e-01    0.000000e+00
  1.306062e-01    0.000000e+00
  1.309051e-01    0.000000e+00
  1.312040e-01    0.000000e+00
  1.315030e-01    0.000000e+00
  1.318019e-01    0.000000e+00
  1.321008e-01    0.000000e+00
  1.323998e-01    0.000000e+00
  1.326987e-01    0.000000e+00
  1.329976e-01    0.000000e+00
  1.332965e-01    0.000000e+00
  1.335955e-01    0.000000e+00
  1.338944e-01    0.000000e+00
  1.341933e-01    0.000000e+00
  1.344923e-01    0.000000e+00
  1.347912e-01    0.000000e+00
  1.350901e-01    0.000000e+00
  1.353891e-01    0.000000e+00
  1.356880e-01    0.000000e+00
  1.359869e-01    0.000000e+00
  1.362859e-01    0.000000e+00
  1.365848e-01    0.000000e+00
  1.368837e-01    0.000000e+00
  1.371826e-01    0.000000e+00
  1.374816e-01    0.000000e+00
  1.377805e-01    0.000000e+00
  1.380794e-01    0.000000e+00
  1.383784e-01    0.000000e+00
  1.386773e-01    0.000000e+00
  1.389762e-01    0.000000e+00
  1.392752e-01    0.000000e+00
  1.395741e-01    0.000000e+00
  1.398730e-01    0.000000e+00
  1.401719e-01    0.000000e+00
  1.404709e-01    0.000000e+00
  1.407698e-01    0.000000e+00
  1.410687e-01    0.000000e+00
  1.413677e-01    0.000000e+00
  1.416666e-01    0.000000e+00
  1.419655e-01    0.000000e+00
  1.422645e-01    0.000000e+00
  1.425634e-01    0.000000e+00
  1.428623e-01    0.000000e+00
  1.431613e-01    0.000000e+00
  1.434602e-01    0.000000e+00
  1.437591e-01    0.000000e+00
  1.440580e-01    0.000000e+00
  1.443570e-01    0.000000e+00
  1.446559e-01    0.000000e+00
  1.449548e-01    0.000000e+00
  1.452538e-01    0.000000e+00
  1.455527e-01    0.000000e+00
  1.458516e-01    0.000000e+00
  1.461506e-01    0.000000e+00
  1.464495e-01    0.000000e+00
  1.467484e-01    0.000000e+00
  1.470473e-01    0.000000e+00
  1.473463e-01    0.000000e+00
  1.476452e-01    0.000000e+00
  1.479441e-01    0.000000e+00
  1.482431e-01    0.000000e+00
  1.485420e-01    0.000000e+00
  1.488409e-01    0.000000e+00
  1.491399e-01    0.000000e+00
  1.494388e-01    0.000000e+00
  1.497377e-01    0.000000e+00
  1.500367e-01    0.000000e+00
  1.503356e-01    0.000000e+00
  1.506345e-01    0.000000e+00
  1.509334e-01    0.000000e+00
  1.512324e-01    0.000000e+00
  1.515313e-01    0.000000e+00
  1.518302e-01    0.000000e+00
  1.521292e-01    0.000000e+00
  1.524281e-01    0.000000e+00
  1.527270e-01    0.000000e+00
  1.530260e-01    0.000000e+00
  1.533249e-01    0.000000e+00
  1.536238e-01    0.000000e+00
