# == pyFAI calibration ==
# Distance Sample to Detector: 2.266 m
# PONI: 5.659e-02, 4.293e-02 m
# Rotations: 0.000000 0.000000 0.000000 rad
# 
# == Fit2d calibration ==
# Distance Sample-beamCenter: 2266.000 mm
# Center: x=249.594, y=329.012 pix
# Tilt: 0.000 deg  TiltPlanRot: 0.000 deg
# 
# Detector Pilatus 300k	 PixelSize= 1.720e-04, 1.720e-04 m
#    Detector has a mask: True 
#    Detector has a dark current: False 
#    detector has a flat field: False 
# 
# Wavelength: 1.27818e-10 m
# Mask applied: user provided
# Dark current applied: False
# Flat field applied: False
# Polarization factor: None
# Normalization factor: 8245925.2
# --> F127_109.453_NaCl_37.214_limonene_0.000mgml_1_r1d.csv
#        q_A^-1             I 
  4.457554e-03    2.038032e-03
  4.756484e-03    1.629724e-03
  5.055415e-03    1.187099e-03
  5.354345e-03    8.476327e-04
  5.653276e-03    6.688905e-04
  5.952206e-03    1.045361e-03
  6.251136e-03    9.454541e-04
  6.550067e-03    8.140901e-04
  6.848997e-03    6.898729e-04
  7.147927e-03    5.847935e-04
  7.446858e-03    5.013786e-04
  7.745788e-03    4.335516e-04
  8.044719e-03    3.773833e-04
  8.343649e-03    3.322761e-04
  8.642579e-03    2.935451e-04
  8.941510e-03    2.613146e-04
  9.240440e-03    2.342566e-04
  9.539371e-03    2.104239e-04
  9.838301e-03    1.895049e-04
  1.013723e-02    1.720563e-04
  1.043616e-02    1.572539e-04
  1.073509e-02    1.437811e-04
  1.103402e-02    1.322526e-04
  1.133295e-02    1.221695e-04
  1.163188e-02    1.134477e-04
  1.193081e-02    1.054692e-04
  1.222974e-02    9.867680e-05
  1.252867e-02    9.241544e-05
  1.282760e-02    8.635104e-05
  1.312654e-02    8.105869e-05
  1.342547e-02    7.711163e-05
  1.372440e-02    7.301573e-05
  1.402333e-02    6.935631e-05
  1.432226e-02    6.596297e-05
  1.462119e-02    6.288564e-05
  1.492012e-02    6.038046e-05
  1.521905e-02    5.811752e-05
  1.551798e-02    5.591982e-05
  1.581691e-02    5.383120e-05
  1.611584e-02    5.199726e-05
  1.641477e-02    5.015522e-05
  1.671370e-02    4.866570e-05
  1.701263e-02    4.738868e-05
  1.731156e-02    4.619822e-05
  1.761049e-02    4.482390e-05
  1.790942e-02    4.368801e-05
  1.820835e-02    4.256867e-05
  1.850728e-02    4.166514e-05
  1.880621e-02    4.085316e-05
  1.910514e-02    3.992593e-05
  1.940407e-02    3.918981e-05
  1.970300e-02    3.838636e-05
  2.000193e-02    3.756778e-05
  2.030086e-02    3.686244e-05
  2.059979e-02    3.610556e-05
  2.089873e-02    3.562650e-05
  2.119766e-02    3.492467e-05
  2.149659e-02    3.432462e-05
  2.179552e-02    3.371027e-05
  2.209445e-02    3.301470e-05
  2.239338e-02    3.240515e-05
  2.269231e-02    3.180599e-05
  2.299124e-02    3.116543e-05
  2.329017e-02    3.055899e-05
  2.358910e-02    2.991581e-05
  2.388803e-02    2.913376e-05
  2.418696e-02    2.846627e-05
  2.448589e-02    2.782124e-05
  2.478482e-02    2.718026e-05
  2.508375e-02    2.637547e-05
  2.538268e-02    2.575932e-05
  2.568161e-02    2.517991e-05
  2.598054e-02    2.441105e-05
  2.627947e-02    2.379110e-05
  2.657840e-02    2.320429e-05
  2.687733e-02    2.256567e-05
  2.717626e-02    2.191522e-05
  2.747519e-02    2.125920e-05
  2.777412e-02    2.062294e-05
  2.807305e-02    2.005094e-05
  2.837198e-02    1.945428e-05
  2.867092e-02    1.875528e-05
  2.896985e-02    1.823055e-05
  2.926878e-02    1.777835e-05
  2.956771e-02    1.713275e-05
  2.986664e-02    1.656800e-05
  3.016557e-02    1.615708e-05
  3.046450e-02    1.571258e-05
  3.076343e-02    1.520765e-05
  3.106236e-02    1.484720e-05
  3.136129e-02    1.439045e-05
  3.166022e-02    1.398025e-05
  3.195915e-02    1.366397e-05
  3.225808e-02    1.329856e-05
  3.255701e-02    1.291306e-05
  3.285594e-02    1.257267e-05
  3.315487e-02    1.229672e-05
  3.345380e-02    1.201856e-05
  3.375273e-02    1.177098e-05
  3.405166e-02    1.149266e-05
  3.435059e-02    1.124197e-05
  3.464952e-02    1.101239e-05
  3.494845e-02    1.079119e-05
  3.524738e-02    1.058799e-05
  3.554631e-02    1.036410e-05
  3.584524e-02    1.013394e-05
  3.614417e-02    1.002098e-05
  3.644310e-02    9.947784e-06
  3.674204e-02    9.775707e-06
  3.704097e-02    9.665110e-06
  3.733990e-02    9.615179e-06
  3.763883e-02    9.480803e-06
  3.793776e-02    9.294798e-06
  3.823669e-02    9.109599e-06
  3.853562e-02    9.039831e-06
  3.883455e-02    8.987269e-06
  3.913348e-02    8.885154e-06
  3.943241e-02    8.808757e-06
  3.973134e-02    8.797078e-06
  4.003027e-02    8.751945e-06
  4.032920e-02    8.650035e-06
  4.062813e-02    8.565575e-06
  4.092706e-02    8.523317e-06
  4.122599e-02    8.526988e-06
  4.152492e-02    8.501745e-06
  4.182385e-02    8.465043e-06
  4.212278e-02    8.397196e-06
  4.242171e-02    8.342458e-06
  4.272064e-02    8.389861e-06
  4.301957e-02    8.338062e-06
  4.331850e-02    8.294319e-06
  4.361743e-02    8.292131e-06
  4.391636e-02    8.259429e-06
  4.421529e-02    8.256855e-06
  4.451423e-02    8.266665e-06
  4.481316e-02    8.218552e-06
  4.511209e-02    8.249436e-06
  4.541102e-02    8.272012e-06
  4.570995e-02    8.250540e-06
  4.600888e-02    8.276908e-06
  4.630781e-02    8.198506e-06
  4.660674e-02    8.206637e-06
  4.690567e-02    8.244260e-06
  4.720460e-02    8.256066e-06
  4.750353e-02    8.276361e-06
  4.780246e-02    8.295872e-06
  4.810139e-02    8.281081e-06
  4.840032e-02    8.275603e-06
  4.869925e-02    8.270010e-06
  4.899818e-02    8.267431e-06
  4.929711e-02    8.309107e-06
  4.959604e-02    8.345613e-06
  4.989497e-02    8.369261e-06
  5.019390e-02    8.335107e-06
  5.049283e-02    8.376245e-06
  5.079176e-02    8.441079e-06
  5.109069e-02    8.471974e-06
  5.138962e-02    8.445716e-06
  5.168855e-02    8.486847e-06
  5.198748e-02    8.573345e-06
  5.228642e-02    8.573427e-06
  5.258535e-02    8.519591e-06
  5.288428e-02    8.457547e-06
  5.318321e-02    8.485140e-06
  5.348214e-02    8.480506e-06
  5.378107e-02    8.458584e-06
  5.408000e-02    8.535403e-06
  5.437893e-02    8.537168e-06
  5.467786e-02    8.511255e-06
  5.497679e-02    8.492589e-06
  5.527572e-02    8.493117e-06
  5.557465e-02    8.533631e-06
  5.587358e-02    8.567223e-06
  5.617251e-02    8.539901e-06
  5.647144e-02    8.549828e-06
  5.677037e-02    8.555573e-06
  5.706930e-02    8.558004e-06
  5.736823e-02    8.519894e-06
  5.766716e-02    8.578249e-06
  5.796609e-02    8.579344e-06
  5.826502e-02    8.555370e-06
  5.856395e-02    8.547780e-06
  5.886288e-02    8.531893e-06
  5.916181e-02    8.524610e-06
  5.946074e-02    8.544995e-06
  5.975967e-02    8.568725e-06
  6.005861e-02    8.575117e-06
  6.035754e-02    8.570477e-06
  6.065647e-02    8.608173e-06
  6.095540e-02    8.672434e-06
  6.125433e-02    8.689792e-06
  6.155326e-02    8.680301e-06
  6.185219e-02    8.626087e-06
  6.215112e-02    8.590443e-06
  6.245005e-02    8.604064e-06
  6.274898e-02    8.588806e-06
  6.304791e-02    8.533074e-06
  6.334684e-02    8.522110e-06
  6.364577e-02    8.551000e-06
  6.394470e-02    8.571215e-06
  6.424363e-02    8.568557e-06
  6.454256e-02    8.562503e-06
  6.484149e-02    8.535902e-06
  6.514042e-02    8.550327e-06
  6.543935e-02    8.583920e-06
  6.573828e-02    8.583098e-06
  6.603721e-02    8.550896e-06
  6.633614e-02    8.562487e-06
  6.663507e-02    8.562267e-06
  6.693400e-02    8.555886e-06
  6.723293e-02    8.595029e-06
  6.753186e-02    8.539058e-06
  6.783080e-02    8.552560e-06
  6.812973e-02    8.574009e-06
  6.842866e-02    8.555280e-06
  6.872759e-02    8.542897e-06
  6.902652e-02    8.560244e-06
  6.932545e-02    8.589355e-06
  6.962438e-02    8.548456e-06
  6.992331e-02    8.529435e-06
  7.022224e-02    8.524807e-06
  7.052117e-02    8.549951e-06
  7.082010e-02    8.536727e-06
  7.111903e-02    8.572197e-06
  7.141796e-02    8.569723e-06
  7.171689e-02    8.561714e-06
  7.201582e-02    8.585379e-06
  7.231475e-02    8.538067e-06
  7.261368e-02    8.529577e-06
  7.291261e-02    8.554607e-06
  7.321154e-02    8.581915e-06
  7.351047e-02    8.564900e-06
  7.380940e-02    8.553326e-06
  7.410833e-02    8.529575e-06
  7.440726e-02    8.528446e-06
  7.470619e-02    8.511756e-06
  7.500512e-02    8.456086e-06
  7.530405e-02    8.469951e-06
  7.560299e-02    8.478232e-06
  7.590192e-02    8.472700e-06
  7.620085e-02    8.452061e-06
  7.649978e-02    8.468180e-06
  7.679871e-02    8.468068e-06
  7.709764e-02    8.453543e-06
  7.739657e-02    8.435286e-06
  7.769550e-02    8.423818e-06
  7.799443e-02    8.423971e-06
  7.829336e-02    8.446493e-06
  7.859229e-02    8.452262e-06
  7.889122e-02    8.397334e-06
  7.919015e-02    8.436267e-06
  7.948908e-02    8.437300e-06
  7.978801e-02    8.391799e-06
  8.008694e-02    8.397355e-06
  8.038587e-02    8.394482e-06
  8.068480e-02    8.371915e-06
  8.098373e-02    8.387397e-06
  8.128266e-02    8.354834e-06
  8.158159e-02    8.304358e-06
  8.188052e-02    8.313157e-06
  8.217945e-02    8.285298e-06
  8.247838e-02    8.266305e-06
  8.277731e-02    8.229244e-06
  8.307624e-02    8.253041e-06
  8.337518e-02    8.262188e-06
  8.367411e-02    8.230740e-06
  8.397304e-02    8.225647e-06
  8.427197e-02    8.227114e-06
  8.457090e-02    8.262500e-06
  8.486983e-02    8.200246e-06
  8.516876e-02    8.169467e-06
  8.546769e-02    8.234277e-06
  8.576662e-02    8.229167e-06
  8.606555e-02    8.173614e-06
  8.636448e-02    8.176284e-06
  8.666341e-02    8.161096e-06
  8.696234e-02    8.136750e-06
  8.726127e-02    8.106097e-06
  8.756020e-02    8.113252e-06
  8.785913e-02    8.100986e-06
  8.815806e-02    8.113047e-06
  8.845699e-02    8.110132e-06
  8.875592e-02    8.129183e-06
  8.905485e-02    8.116042e-06
  8.935378e-02    8.094883e-06
  8.965271e-02    8.104804e-06
  8.995164e-02    8.066453e-06
  9.025057e-02    8.050072e-06
  9.054950e-02    8.055063e-06
  9.084843e-02    8.017769e-06
  9.114737e-02    8.025757e-06
  9.144630e-02    8.037850e-06
  9.174523e-02    8.041681e-06
  9.204416e-02    8.016603e-06
  9.234309e-02    7.952954e-06
  9.264202e-02    7.975834e-06
  9.294095e-02    7.968992e-06
  9.323988e-02    7.942474e-06
  9.353881e-02    7.932467e-06
  9.383774e-02    7.895915e-06
  9.413667e-02    7.874419e-06
  9.443560e-02    7.876719e-06
  9.473453e-02    7.849056e-06
  9.503346e-02    7.872634e-06
  9.533239e-02    7.886452e-06
  9.563132e-02    7.879998e-06
  9.593025e-02    7.864834e-06
  9.622918e-02    7.846286e-06
  9.652811e-02    7.837207e-06
  9.682704e-02    7.838551e-06
  9.712597e-02    7.864070e-06
  9.742490e-02    7.851318e-06
  9.772383e-02    7.802350e-06
  9.802276e-02    7.788373e-06
  9.832169e-02    7.757194e-06
  9.862062e-02    7.755260e-06
  9.891956e-02    7.753843e-06
  9.921849e-02    7.758294e-06
  9.951742e-02    7.776166e-06
  9.981635e-02    7.754503e-06
  1.001153e-01    7.678183e-06
  1.004142e-01    7.690875e-06
  1.007131e-01    7.699341e-06
  1.010121e-01    7.680505e-06
  1.013110e-01    7.721579e-06
  1.016099e-01    7.709960e-06
  1.019089e-01    7.649730e-06
  1.022078e-01    7.614139e-06
  1.025067e-01    7.614711e-06
  1.028057e-01    7.666168e-06
  1.031046e-01    7.629082e-06
  1.034035e-01    7.608736e-06
  1.037024e-01    7.618370e-06
  1.040014e-01    7.613306e-06
  1.043003e-01    7.622235e-06
  1.045992e-01    7.588290e-06
  1.048982e-01    7.560915e-06
  1.051971e-01    7.564212e-06
  1.054960e-01    7.543280e-06
  1.057950e-01    7.546075e-06
  1.060939e-01    7.517719e-06
  1.063928e-01    7.473440e-06
  1.066917e-01    7.454107e-06
  1.069907e-01    7.456115e-06
  1.072896e-01    7.479694e-06
  1.075885e-01    7.473629e-06
  1.078875e-01    7.449675e-06
  1.081864e-01    7.469297e-06
  1.084853e-01    7.481040e-06
  1.087843e-01    7.470504e-06
  1.090832e-01    7.448636e-06
  1.093821e-01    7.411445e-06
  1.096810e-01    7.442992e-06
  1.099800e-01    7.443413e-06
  1.102789e-01    7.397534e-06
  1.105778e-01    7.363772e-06
  1.108768e-01    7.375430e-06
  1.111757e-01    7.324743e-06
  1.114746e-01    7.299386e-06
  1.117736e-01    7.289555e-06
  1.120725e-01    7.245219e-06
  1.123714e-01    7.134325e-06
  1.126704e-01    7.142796e-06
  1.129693e-01    7.144453e-06
  1.132682e-01    7.076361e-06
  1.135671e-01    6.952940e-06
  1.138661e-01    6.885653e-06
  1.141650e-01    6.849197e-06
  1.144639e-01    6.889694e-06
  1.147629e-01    6.929299e-06
  1.150618e-01    6.926853e-06
  1.153607e-01    6.933842e-06
  1.156597e-01    6.915972e-06
  1.159586e-01    6.932750e-06
  1.162575e-01    6.950629e-06
  1.165564e-01    6.925755e-06
  1.168554e-01    6.890696e-06
  1.171543e-01    6.801996e-06
  1.174532e-01    6.783658e-06
  1.177522e-01    6.840374e-06
  1.180511e-01    6.860016e-06
  1.183500e-01    6.811410e-06
  1.186490e-01    6.755828e-06
  1.189479e-01    6.766352e-06
  1.192468e-01    6.758031e-06
  1.195458e-01    6.763852e-06
  1.198447e-01    6.698064e-06
  1.201436e-01    6.744679e-06
  1.204425e-01    6.922970e-06
  1.207415e-01    6.929260e-06
  1.210404e-01    6.918767e-06
  1.213393e-01    0.000000e+00
  1.216383e-01    0.000000e+00
  1.219372e-01    0.000000e+00
  1.222361e-01    0.000000e+00
  1.225351e-01    0.000000e+00
  1.228340e-01    0.000000e+00
  1.231329e-01    0.000000e+00
  1.234318e-01    0.000000e+00
  1.237308e-01    0.000000e+00
  1.240297e-01    0.000000e+00
  1.243286e-01    0.000000e+00
  1.246276e-01    0.000000e+00
  1.249265e-01    0.000000e+00
  1.252254e-01    0.000000e+00
  1.255244e-01    0.000000e+00
  1.258233e-01    0.000000e+00
  1.261222e-01    0.000000e+00
  1.264212e-01    0.000000e+00
  1.267201e-01    0.000000e+00
  1.270190e-01    0.000000e+00
  1.273179e-01    0.000000e+00
  1.276169e-01    0.000000e+00
  1.279158e-01    0.000000e+00
  1.282147e-01    0.000000e+00
  1.285137e-01    0.000000e+00
  1.288126e-01    0.000000e+00
  1.291115e-01    0.000000e+00
  1.294105e-01    0.000000e+00
  1.297094e-01    0.000000e+00
  1.300083e-01    0.000000e+00
  1.303072e-01    0.000000e+00
  1.306062e-01    0.000000e+00
  1.309051e-01    0.000000e+00
  1.312040e-01    0.000000e+00
  1.315030e-01    0.000000e+00
  1.318019e-01    0.000000e+00
  1.321008e-01    0.000000e+00
  1.323998e-01    0.000000e+00
  1.326987e-01    0.000000e+00
  1.329976e-01    0.000000e+00
  1.332965e-01    0.000000e+00
  1.335955e-01    0.000000e+00
  1.338944e-01    0.000000e+00
  1.341933e-01    0.000000e+00
  1.344923e-01    0.000000e+00
  1.347912e-01    0.000000e+00
  1.350901e-01    0.000000e+00
  1.353891e-01    0.000000e+00
  1.356880e-01    0.000000e+00
  1.359869e-01    0.000000e+00
  1.362859e-01    0.000000e+00
  1.365848e-01    0.000000e+00
  1.368837e-01    0.000000e+00
  1.371826e-01    0.000000e+00
  1.374816e-01    0.000000e+00
  1.377805e-01    0.000000e+00
  1.380794e-01    0.000000e+00
  1.383784e-01    0.000000e+00
  1.386773e-01    0.000000e+00
  1.389762e-01    0.000000e+00
  1.392752e-01    0.000000e+00
  1.395741e-01    0.000000e+00
  1.398730e-01    0.000000e+00
  1.401719e-01    0.000000e+00
  1.404709e-01    0.000000e+00
  1.407698e-01    0.000000e+00
  1.410687e-01    0.000000e+00
  1.413677e-01    0.000000e+00
  1.416666e-01    0.000000e+00
  1.419655e-01    0.000000e+00
  1.422645e-01    0.000000e+00
  1.425634e-01    0.000000e+00
  1.428623e-01    0.000000e+00
  1.431613e-01    0.000000e+00
  1.434602e-01    0.000000e+00
  1.437591e-01    0.000000e+00
  1.440580e-01    0.000000e+00
  1.443570e-01    0.000000e+00
  1.446559e-01    0.000000e+00
  1.449548e-01    0.000000e+00
  1.452538e-01    0.000000e+00
  1.455527e-01    0.000000e+00
  1.458516e-01    0.000000e+00
  1.461506e-01    0.000000e+00
  1.464495e-01    0.000000e+00
  1.467484e-01    0.000000e+00
  1.470473e-01    0.000000e+00
  1.473463e-01    0.000000e+00
  1.476452e-01    0.000000e+00
  1.479441e-01    0.000000e+00
  1.482431e-01    0.000000e+00
  1.485420e-01    0.000000e+00
  1.488409e-01    0.000000e+00
  1.491399e-01    0.000000e+00
  1.494388e-01    0.000000e+00
  1.497377e-01    0.000000e+00
  1.500367e-01    0.000000e+00
  1.503356e-01    0.000000e+00
  1.506345e-01    0.000000e+00
  1.509334e-01    0.000000e+00
  1.512324e-01    0.000000e+00
  1.515313e-01    0.000000e+00
  1.518302e-01    0.000000e+00
  1.521292e-01    0.000000e+00
  1.524281e-01    0.000000e+00
  1.527270e-01    0.000000e+00
  1.530260e-01    0.000000e+00
  1.533249e-01    0.000000e+00
  1.536238e-01    0.000000e+00
