# == pyFAI calibration ==
# Distance Sample to Detector: 2.266 m
# PONI: 5.659e-02, 4.293e-02 m
# Rotations: 0.000000 0.000000 0.000000 rad
# 
# == Fit2d calibration ==
# Distance Sample-beamCenter: 2266.000 mm
# Center: x=249.594, y=329.012 pix
# Tilt: 0.000 deg  TiltPlanRot: 0.000 deg
# 
# Detector Pilatus 300k	 PixelSize= 1.720e-04, 1.720e-04 m
#    Detector has a mask: True 
#    Detector has a dark current: False 
#    detector has a flat field: False 
# 
# Wavelength: 1.27818e-10 m
# Mask applied: user provided
# Dark current applied: False
# Flat field applied: False
# Polarization factor: None
# Normalization factor: 18896452.400000002
# --> F127_152.040_hexanes_76.020_EtOH_65.087_NaCl_100.000mgml_0_r1d.csv
#        q_A^-1             I 
  4.457554e-03    1.340634e-03
  4.756484e-03    1.051477e-03
  5.055415e-03    7.552652e-04
  5.354345e-03    5.350790e-04
  5.653276e-03    4.130716e-04
  5.952206e-03    6.857473e-04
  6.251136e-03    6.259402e-04
  6.550067e-03    5.433691e-04
  6.848997e-03    4.613188e-04
  7.147927e-03    3.894629e-04
  7.446858e-03    3.326421e-04
  7.745788e-03    2.850931e-04
  8.044719e-03    2.454496e-04
  8.343649e-03    2.141908e-04
  8.642579e-03    1.875786e-04
  8.941510e-03    1.651765e-04
  9.240440e-03    1.463188e-04
  9.539371e-03    1.301299e-04
  9.838301e-03    1.159199e-04
  1.013723e-02    1.037660e-04
  1.043616e-02    9.328229e-05
  1.073509e-02    8.368162e-05
  1.103402e-02    7.584803e-05
  1.133295e-02    6.899428e-05
  1.163188e-02    6.284065e-05
  1.193081e-02    5.737799e-05
  1.222974e-02    5.255832e-05
  1.252867e-02    4.818688e-05
  1.282760e-02    4.432421e-05
  1.312654e-02    4.085834e-05
  1.342547e-02    3.792199e-05
  1.372440e-02    3.511524e-05
  1.402333e-02    3.253229e-05
  1.432226e-02    3.039316e-05
  1.462119e-02    2.842129e-05
  1.492012e-02    2.654349e-05
  1.521905e-02    2.481840e-05
  1.551798e-02    2.338102e-05
  1.581691e-02    2.195217e-05
  1.611584e-02    2.077459e-05
  1.641477e-02    1.956471e-05
  1.671370e-02    1.843621e-05
  1.701263e-02    1.750049e-05
  1.731156e-02    1.658123e-05
  1.761049e-02    1.577039e-05
  1.790942e-02    1.509141e-05
  1.820835e-02    1.443109e-05
  1.850728e-02    1.366620e-05
  1.880621e-02    1.307294e-05
  1.910514e-02    1.249747e-05
  1.940407e-02    1.191717e-05
  1.970300e-02    1.145072e-05
  2.000193e-02    1.103542e-05
  2.030086e-02    1.063638e-05
  2.059979e-02    1.022156e-05
  2.089873e-02    9.896613e-06
  2.119766e-02    9.565139e-06
  2.149659e-02    9.283764e-06
  2.179552e-02    9.025172e-06
  2.209445e-02    8.805428e-06
  2.239338e-02    8.580344e-06
  2.269231e-02    8.291433e-06
  2.299124e-02    8.041096e-06
  2.329017e-02    7.821172e-06
  2.358910e-02    7.611357e-06
  2.388803e-02    7.433475e-06
  2.418696e-02    7.294833e-06
  2.448589e-02    7.124687e-06
  2.478482e-02    6.975021e-06
  2.508375e-02    6.819628e-06
  2.538268e-02    6.678256e-06
  2.568161e-02    6.572946e-06
  2.598054e-02    6.436338e-06
  2.627947e-02    6.292253e-06
  2.657840e-02    6.199517e-06
  2.687733e-02    6.091936e-06
  2.717626e-02    6.010242e-06
  2.747519e-02    5.960692e-06
  2.777412e-02    5.866610e-06
  2.807305e-02    5.806812e-06
  2.837198e-02    5.722299e-06
  2.867092e-02    5.591979e-06
  2.896985e-02    5.519375e-06
  2.926878e-02    5.496863e-06
  2.956771e-02    5.410826e-06
  2.986664e-02    5.351929e-06
  3.016557e-02    5.276197e-06
  3.046450e-02    5.187524e-06
  3.076343e-02    5.186988e-06
  3.106236e-02    5.161456e-06
  3.136129e-02    5.079984e-06
  3.166022e-02    5.012263e-06
  3.195915e-02    4.957734e-06
  3.225808e-02    4.878593e-06
  3.255701e-02    4.830576e-06
  3.285594e-02    4.819714e-06
  3.315487e-02    4.769882e-06
  3.345380e-02    4.729189e-06
  3.375273e-02    4.683708e-06
  3.405166e-02    4.640975e-06
  3.435059e-02    4.583370e-06
  3.464952e-02    4.551317e-06
  3.494845e-02    4.519644e-06
  3.524738e-02    4.482093e-06
  3.554631e-02    4.457696e-06
  3.584524e-02    4.411821e-06
  3.614417e-02    4.371438e-06
  3.644310e-02    4.338770e-06
  3.674204e-02    4.300644e-06
  3.704097e-02    4.242739e-06
  3.733990e-02    4.182814e-06
  3.763883e-02    4.183974e-06
  3.793776e-02    4.152260e-06
  3.823669e-02    4.113586e-06
  3.853562e-02    4.085173e-06
  3.883455e-02    4.056717e-06
  3.913348e-02    4.048316e-06
  3.943241e-02    4.007570e-06
  3.973134e-02    3.976410e-06
  4.003027e-02    3.984250e-06
  4.032920e-02    3.958151e-06
  4.062813e-02    3.947072e-06
  4.092706e-02    3.946613e-06
  4.122599e-02    3.915463e-06
  4.152492e-02    3.925477e-06
  4.182385e-02    3.908304e-06
  4.212278e-02    3.867872e-06
  4.242171e-02    3.852677e-06
  4.272064e-02    3.838291e-06
  4.301957e-02    3.826568e-06
  4.331850e-02    3.785666e-06
  4.361743e-02    3.782833e-06
  4.391636e-02    3.794937e-06
  4.421529e-02    3.777464e-06
  4.451423e-02    3.762734e-06
  4.481316e-02    3.758359e-06
  4.511209e-02    3.757180e-06
  4.541102e-02    3.745780e-06
  4.570995e-02    3.739454e-06
  4.600888e-02    3.737336e-06
  4.630781e-02    3.728696e-06
  4.660674e-02    3.713921e-06
  4.690567e-02    3.716743e-06
  4.720460e-02    3.725974e-06
  4.750353e-02    3.724925e-06
  4.780246e-02    3.710120e-06
  4.810139e-02    3.687154e-06
  4.840032e-02    3.685968e-06
  4.869925e-02    3.706488e-06
  4.899818e-02    3.713453e-06
  4.929711e-02    3.709026e-06
  4.959604e-02    3.699115e-06
  4.989497e-02    3.686275e-06
  5.019390e-02    3.680512e-06
  5.049283e-02    3.677465e-06
  5.079176e-02    3.698545e-06
  5.109069e-02    3.721228e-06
  5.138962e-02    3.738625e-06
  5.168855e-02    3.796787e-06
  5.198748e-02    3.859363e-06
  5.228642e-02    3.835898e-06
  5.258535e-02    3.739954e-06
  5.288428e-02    3.675789e-06
  5.318321e-02    3.656021e-06
  5.348214e-02    3.645906e-06
  5.378107e-02    3.668170e-06
  5.408000e-02    3.686305e-06
  5.437893e-02    3.693455e-06
  5.467786e-02    3.675609e-06
  5.497679e-02    3.665687e-06
  5.527572e-02    3.678751e-06
  5.557465e-02    3.676701e-06
  5.587358e-02    3.672945e-06
  5.617251e-02    3.679921e-06
  5.647144e-02    3.679026e-06
  5.677037e-02    3.679912e-06
  5.706930e-02    3.693687e-06
  5.736823e-02    3.685226e-06
  5.766716e-02    3.674674e-06
  5.796609e-02    3.668535e-06
  5.826502e-02    3.677244e-06
  5.856395e-02    3.697647e-06
  5.886288e-02    3.713855e-06
  5.916181e-02    3.717136e-06
  5.946074e-02    3.721755e-06
  5.975967e-02    3.731197e-06
  6.005861e-02    3.727158e-06
  6.035754e-02    3.750917e-06
  6.065647e-02    3.754022e-06
  6.095540e-02    3.766486e-06
  6.125433e-02    3.795225e-06
  6.155326e-02    3.823159e-06
  6.185219e-02    3.795841e-06
  6.215112e-02    3.770472e-06
  6.245005e-02    3.764227e-06
  6.274898e-02    3.747641e-06
  6.304791e-02    3.729640e-06
  6.334684e-02    3.756540e-06
  6.364577e-02    3.758566e-06
  6.394470e-02    3.759762e-06
  6.424363e-02    3.765802e-06
  6.454256e-02    3.777881e-06
  6.484149e-02    3.785503e-06
  6.514042e-02    3.787021e-06
  6.543935e-02    3.771248e-06
  6.573828e-02    3.782762e-06
  6.603721e-02    3.811020e-06
  6.633614e-02    3.793920e-06
  6.663507e-02    3.805080e-06
  6.693400e-02    3.813813e-06
  6.723293e-02    3.810427e-06
  6.753186e-02    3.805313e-06
  6.783080e-02    3.827306e-06
  6.812973e-02    3.837603e-06
  6.842866e-02    3.843841e-06
  6.872759e-02    3.838885e-06
  6.902652e-02    3.840473e-06
  6.932545e-02    3.848766e-06
  6.962438e-02    3.846951e-06
  6.992331e-02    3.842608e-06
  7.022224e-02    3.859388e-06
  7.052117e-02    3.877727e-06
  7.082010e-02    3.872586e-06
  7.111903e-02    3.865609e-06
  7.141796e-02    3.855665e-06
  7.171689e-02    3.871173e-06
  7.201582e-02    3.886185e-06
  7.231475e-02    3.893590e-06
  7.261368e-02    3.892964e-06
  7.291261e-02    3.888267e-06
  7.321154e-02    3.894917e-06
  7.351047e-02    3.899330e-06
  7.380940e-02    3.881782e-06
  7.410833e-02    3.884547e-06
  7.440726e-02    3.884282e-06
  7.470619e-02    3.864611e-06
  7.500512e-02    3.885357e-06
  7.530405e-02    3.887511e-06
  7.560299e-02    3.886190e-06
  7.590192e-02    3.875688e-06
  7.620085e-02    3.872612e-06
  7.649978e-02    3.898761e-06
  7.679871e-02    3.897851e-06
  7.709764e-02    3.870166e-06
  7.739657e-02    3.874353e-06
  7.769550e-02    3.888115e-06
  7.799443e-02    3.889082e-06
  7.829336e-02    3.879247e-06
  7.859229e-02    3.864182e-06
  7.889122e-02    3.869640e-06
  7.919015e-02    3.871863e-06
  7.948908e-02    3.869522e-06
  7.978801e-02    3.865597e-06
  8.008694e-02    3.847047e-06
  8.038587e-02    3.857980e-06
  8.068480e-02    3.853404e-06
  8.098373e-02    3.839423e-06
  8.128266e-02    3.824478e-06
  8.158159e-02    3.833655e-06
  8.188052e-02    3.852841e-06
  8.217945e-02    3.846982e-06
  8.247838e-02    3.837406e-06
  8.277731e-02    3.833442e-06
  8.307624e-02    3.811014e-06
  8.337518e-02    3.809179e-06
  8.367411e-02    3.820884e-06
  8.397304e-02    3.810126e-06
  8.427197e-02    3.812680e-06
  8.457090e-02    3.793237e-06
  8.486983e-02    3.780408e-06
  8.516876e-02    3.791273e-06
  8.546769e-02    3.781717e-06
  8.576662e-02    3.764229e-06
  8.606555e-02    3.767331e-06
  8.636448e-02    3.776028e-06
  8.666341e-02    3.758040e-06
  8.696234e-02    3.741932e-06
  8.726127e-02    3.734872e-06
  8.756020e-02    3.744688e-06
  8.785913e-02    3.735312e-06
  8.815806e-02    3.722837e-06
  8.845699e-02    3.718582e-06
  8.875592e-02    3.720046e-06
  8.905485e-02    3.710368e-06
  8.935378e-02    3.696412e-06
  8.965271e-02    3.692731e-06
  8.995164e-02    3.701941e-06
  9.025057e-02    3.685999e-06
  9.054950e-02    3.678030e-06
  9.084843e-02    3.676191e-06
  9.114737e-02    3.677614e-06
  9.144630e-02    3.667794e-06
  9.174523e-02    3.645806e-06
  9.204416e-02    3.624913e-06
  9.234309e-02    3.628382e-06
  9.264202e-02    3.627926e-06
  9.294095e-02    3.621622e-06
  9.323988e-02    3.600113e-06
  9.353881e-02    3.605571e-06
  9.383774e-02    3.602287e-06
  9.413667e-02    3.599692e-06
  9.443560e-02    3.617582e-06
  9.473453e-02    3.619303e-06
  9.503346e-02    3.587702e-06
  9.533239e-02    3.567430e-06
  9.563132e-02    3.566608e-06
  9.593025e-02    3.573136e-06
  9.622918e-02    3.596308e-06
  9.652811e-02    3.589742e-06
  9.682704e-02    3.593960e-06
  9.712597e-02    3.597790e-06
  9.742490e-02    3.595890e-06
  9.772383e-02    3.582466e-06
  9.802276e-02    3.555104e-06
  9.832169e-02    3.524790e-06
  9.862062e-02    3.516357e-06
  9.891956e-02    3.512685e-06
  9.921849e-02    3.492456e-06
  9.951742e-02    3.465879e-06
  9.981635e-02    3.463782e-06
  1.001153e-01    3.467140e-06
  1.004142e-01    3.481128e-06
  1.007131e-01    3.476407e-06
  1.010121e-01    3.465058e-06
  1.013110e-01    3.455296e-06
  1.016099e-01    3.454568e-06
  1.019089e-01    3.458510e-06
  1.022078e-01    3.433665e-06
  1.025067e-01    3.429357e-06
  1.028057e-01    3.422323e-06
  1.031046e-01    3.408663e-06
  1.034035e-01    3.425197e-06
  1.037024e-01    3.411312e-06
  1.040014e-01    3.405100e-06
  1.043003e-01    3.395807e-06
  1.045992e-01    3.379170e-06
  1.048982e-01    3.378605e-06
  1.051971e-01    3.381606e-06
  1.054960e-01    3.361723e-06
  1.057950e-01    3.349950e-06
  1.060939e-01    3.341075e-06
  1.063928e-01    3.336792e-06
  1.066917e-01    3.331098e-06
  1.069907e-01    3.339797e-06
  1.072896e-01    3.346770e-06
  1.075885e-01    3.333063e-06
  1.078875e-01    3.316927e-06
  1.081864e-01    3.300948e-06
  1.084853e-01    3.293010e-06
  1.087843e-01    3.302834e-06
  1.090832e-01    3.323479e-06
  1.093821e-01    3.308778e-06
  1.096810e-01    3.285388e-06
  1.099800e-01    3.270101e-06
  1.102789e-01    3.259062e-06
  1.105778e-01    3.247625e-06
  1.108768e-01    3.235655e-06
  1.111757e-01    3.232887e-06
  1.114746e-01    3.210099e-06
  1.117736e-01    3.209970e-06
  1.120725e-01    3.217712e-06
  1.123714e-01    3.214820e-06
  1.126704e-01    3.191294e-06
  1.129693e-01    3.170422e-06
  1.132682e-01    3.164731e-06
  1.135671e-01    3.134521e-06
  1.138661e-01    3.116133e-06
  1.141650e-01    3.117945e-06
  1.144639e-01    3.136077e-06
  1.147629e-01    3.126223e-06
  1.150618e-01    3.107863e-06
  1.153607e-01    3.119439e-06
  1.156597e-01    3.112603e-06
  1.159586e-01    3.085316e-06
  1.162575e-01    3.107020e-06
  1.165564e-01    3.124362e-06
  1.168554e-01    3.135258e-06
  1.171543e-01    3.132696e-06
  1.174532e-01    3.101223e-06
  1.177522e-01    3.122281e-06
  1.180511e-01    3.100195e-06
  1.183500e-01    3.114428e-06
  1.186490e-01    3.098851e-06
  1.189479e-01    3.079791e-06
  1.192468e-01    3.071244e-06
  1.195458e-01    3.095312e-06
  1.198447e-01    3.100161e-06
  1.201436e-01    3.037607e-06
  1.204425e-01    2.946416e-06
  1.207415e-01    2.851748e-06
  1.210404e-01    3.284011e-06
  1.213393e-01    0.000000e+00
  1.216383e-01    0.000000e+00
  1.219372e-01    0.000000e+00
  1.222361e-01    0.000000e+00
  1.225351e-01    0.000000e+00
  1.228340e-01    0.000000e+00
  1.231329e-01    0.000000e+00
  1.234318e-01    0.000000e+00
  1.237308e-01    0.000000e+00
  1.240297e-01    0.000000e+00
  1.243286e-01    0.000000e+00
  1.246276e-01    0.000000e+00
  1.249265e-01    0.000000e+00
  1.252254e-01    0.000000e+00
  1.255244e-01    0.000000e+00
  1.258233e-01    0.000000e+00
  1.261222e-01    0.000000e+00
  1.264212e-01    0.000000e+00
  1.267201e-01    0.000000e+00
  1.270190e-01    0.000000e+00
  1.273179e-01    0.000000e+00
  1.276169e-01    0.000000e+00
  1.279158e-01    0.000000e+00
  1.282147e-01    0.000000e+00
  1.285137e-01    0.000000e+00
  1.288126e-01    0.000000e+00
  1.291115e-01    0.000000e+00
  1.294105e-01    0.000000e+00
  1.297094e-01    0.000000e+00
  1.300083e-01    0.000000e+00
  1.303072e-01    0.000000e+00
  1.306062e-01    0.000000e+00
  1.309051e-01    0.000000e+00
  1.312040e-01    0.000000e+00
  1.315030e-01    0.000000e+00
  1.318019e-01    0.000000e+00
  1.321008e-01    0.000000e+00
  1.323998e-01    0.000000e+00
  1.326987e-01    0.000000e+00
  1.329976e-01    0.000000e+00
  1.332965e-01    0.000000e+00
  1.335955e-01    0.000000e+00
  1.338944e-01    0.000000e+00
  1.341933e-01    0.000000e+00
  1.344923e-01    0.000000e+00
  1.347912e-01    0.000000e+00
  1.350901e-01    0.000000e+00
  1.353891e-01    0.000000e+00
  1.356880e-01    0.000000e+00
  1.359869e-01    0.000000e+00
  1.362859e-01    0.000000e+00
  1.365848e-01    0.000000e+00
  1.368837e-01    0.000000e+00
  1.371826e-01    0.000000e+00
  1.374816e-01    0.000000e+00
  1.377805e-01    0.000000e+00
  1.380794e-01    0.000000e+00
  1.383784e-01    0.000000e+00
  1.386773e-01    0.000000e+00
  1.389762e-01    0.000000e+00
  1.392752e-01    0.000000e+00
  1.395741e-01    0.000000e+00
  1.398730e-01    0.000000e+00
  1.401719e-01    0.000000e+00
  1.404709e-01    0.000000e+00
  1.407698e-01    0.000000e+00
  1.410687e-01    0.000000e+00
  1.413677e-01    0.000000e+00
  1.416666e-01    0.000000e+00
  1.419655e-01    0.000000e+00
  1.422645e-01    0.000000e+00
  1.425634e-01    0.000000e+00
  1.428623e-01    0.000000e+00
  1.431613e-01    0.000000e+00
  1.434602e-01    0.000000e+00
  1.437591e-01    0.000000e+00
  1.440580e-01    0.000000e+00
  1.443570e-01    0.000000e+00
  1.446559e-01    0.000000e+00
  1.449548e-01    0.000000e+00
  1.452538e-01    0.000000e+00
  1.455527e-01    0.000000e+00
  1.458516e-01    0.000000e+00
  1.461506e-01    0.000000e+00
  1.464495e-01    0.000000e+00
  1.467484e-01    0.000000e+00
  1.470473e-01    0.000000e+00
  1.473463e-01    0.000000e+00
  1.476452e-01    0.000000e+00
  1.479441e-01    0.000000e+00
  1.482431e-01    0.000000e+00
  1.485420e-01    0.000000e+00
  1.488409e-01    0.000000e+00
  1.491399e-01    0.000000e+00
  1.494388e-01    0.000000e+00
  1.497377e-01    0.000000e+00
  1.500367e-01    0.000000e+00
  1.503356e-01    0.000000e+00
  1.506345e-01    0.000000e+00
  1.509334e-01    0.000000e+00
  1.512324e-01    0.000000e+00
  1.515313e-01    0.000000e+00
  1.518302e-01    0.000000e+00
  1.521292e-01    0.000000e+00
  1.524281e-01    0.000000e+00
  1.527270e-01    0.000000e+00
  1.530260e-01    0.000000e+00
  1.533249e-01    0.000000e+00
  1.536238e-01    0.000000e+00
