# == pyFAI calibration ==
# Distance Sample to Detector: 2.266 m
# PONI: 5.659e-02, 4.293e-02 m
# Rotations: 0.000000 0.000000 0.000000 rad
# 
# == Fit2d calibration ==
# Distance Sample-beamCenter: 2266.000 mm
# Center: x=249.594, y=329.012 pix
# Tilt: 0.000 deg  TiltPlanRot: 0.000 deg
# 
# Detector Pilatus 300k	 PixelSize= 1.720e-04, 1.720e-04 m
#    Detector has a mask: True 
#    Detector has a dark current: False 
#    detector has a flat field: False 
# 
# Wavelength: 1.27818e-10 m
# Mask applied: user provided
# Dark current applied: False
# Flat field applied: False
# Polarization factor: None
# Normalization factor: 39684.07
# --> latex_CL3252_TiO2_R706_phiT_0.070_PVC_1.000_DOP_0.020_0_r1d.csv
#        q_A^-1             I 
  4.457554e-03    7.704491e-02
  4.756484e-03    6.528072e-02
  5.055415e-03    5.220595e-02
  5.354345e-03    4.155380e-02
  5.653276e-03    3.474055e-02
  5.952206e-03    7.431189e-02
  6.251136e-03    6.812450e-02
  6.550067e-03    5.926665e-02
  6.848997e-03    4.975018e-02
  7.147927e-03    4.100763e-02
  7.446858e-03    3.399964e-02
  7.745788e-03    2.836790e-02
  8.044719e-03    2.386650e-02
  8.343649e-03    2.028084e-02
  8.642579e-03    1.729306e-02
  8.941510e-03    1.489664e-02
  9.240440e-03    1.292899e-02
  9.539371e-03    1.121809e-02
  9.838301e-03    9.887939e-03
  1.013723e-02    8.660862e-03
  1.043616e-02    7.609976e-03
  1.073509e-02    6.720001e-03
  1.103402e-02    5.951775e-03
  1.133295e-02    5.275309e-03
  1.163188e-02    4.740723e-03
  1.193081e-02    4.277925e-03
  1.222974e-02    3.868113e-03
  1.252867e-02    3.502865e-03
  1.282760e-02    3.174410e-03
  1.312654e-02    2.872207e-03
  1.342547e-02    2.619191e-03
  1.372440e-02    2.395468e-03
  1.402333e-02    2.191338e-03
  1.432226e-02    1.997871e-03
  1.462119e-02    1.835070e-03
  1.492012e-02    1.712203e-03
  1.521905e-02    1.591896e-03
  1.551798e-02    1.464576e-03
  1.581691e-02    1.348870e-03
  1.611584e-02    1.247805e-03
  1.641477e-02    1.169415e-03
  1.671370e-02    1.079002e-03
  1.701263e-02    9.991436e-04
  1.731156e-02    9.360845e-04
  1.761049e-02    8.741309e-04
  1.790942e-02    8.148622e-04
  1.820835e-02    7.606807e-04
  1.850728e-02    7.151598e-04
  1.880621e-02    6.699867e-04
  1.910514e-02    6.323272e-04
  1.940407e-02    5.981321e-04
  1.970300e-02    5.590071e-04
  2.000193e-02    5.301376e-04
  2.030086e-02    5.039517e-04
  2.059979e-02    4.815313e-04
  2.089873e-02    4.502374e-04
  2.119766e-02    4.332269e-04
  2.149659e-02    4.132886e-04
  2.179552e-02    3.881875e-04
  2.209445e-02    3.669525e-04
  2.239338e-02    3.474196e-04
  2.269231e-02    3.306292e-04
  2.299124e-02    3.182351e-04
  2.329017e-02    3.123487e-04
  2.358910e-02    2.960300e-04
  2.388803e-02    2.776760e-04
  2.418696e-02    2.620819e-04
  2.448589e-02    2.533995e-04
  2.478482e-02    2.442755e-04
  2.508375e-02    2.414521e-04
  2.538268e-02    2.307606e-04
  2.568161e-02    2.195376e-04
  2.598054e-02    2.148613e-04
  2.627947e-02    2.090571e-04
  2.657840e-02    2.020001e-04
  2.687733e-02    1.912269e-04
  2.717626e-02    1.823887e-04
  2.747519e-02    1.820715e-04
  2.777412e-02    1.760319e-04
  2.807305e-02    1.692826e-04
  2.837198e-02    1.647839e-04
  2.867092e-02    1.627777e-04
  2.896985e-02    1.608633e-04
  2.926878e-02    1.541235e-04
  2.956771e-02    1.470968e-04
  2.986664e-02    1.421288e-04
  3.016557e-02    1.445535e-04
  3.046450e-02    1.422077e-04
  3.076343e-02    1.365949e-04
  3.106236e-02    1.301475e-04
  3.136129e-02    1.296634e-04
  3.166022e-02    1.269074e-04
  3.195915e-02    1.269575e-04
  3.225808e-02    1.231496e-04
  3.255701e-02    1.184478e-04
  3.285594e-02    1.186970e-04
  3.315487e-02    1.164339e-04
  3.345380e-02    1.130481e-04
  3.375273e-02    1.127796e-04
  3.405166e-02    1.085101e-04
  3.435059e-02    1.055126e-04
  3.464952e-02    1.026380e-04
  3.494845e-02    9.973189e-05
  3.524738e-02    9.872352e-05
  3.554631e-02    9.846433e-05
  3.584524e-02    9.761599e-05
  3.614417e-02    9.277130e-05
  3.644310e-02    9.138627e-05
  3.674204e-02    9.320182e-05
  3.704097e-02    9.023339e-05
  3.733990e-02    8.823583e-05
  3.763883e-02    8.913305e-05
  3.793776e-02    8.702362e-05
  3.823669e-02    8.530689e-05
  3.853562e-02    8.337614e-05
  3.883455e-02    8.270449e-05
  3.913348e-02    8.217606e-05
  3.943241e-02    8.179033e-05
  3.973134e-02    8.040079e-05
  4.003027e-02    8.030661e-05
  4.032920e-02    7.836364e-05
  4.062813e-02    7.546122e-05
  4.092706e-02    7.621674e-05
  4.122599e-02    7.577121e-05
  4.152492e-02    7.560561e-05
  4.182385e-02    7.225275e-05
  4.212278e-02    7.274608e-05
  4.242171e-02    7.313106e-05
  4.272064e-02    6.980501e-05
  4.301957e-02    7.006762e-05
  4.331850e-02    7.120629e-05
  4.361743e-02    7.076100e-05
  4.391636e-02    7.062476e-05
  4.421529e-02    7.074975e-05
  4.451423e-02    7.046758e-05
  4.481316e-02    6.869028e-05
  4.511209e-02    6.800128e-05
  4.541102e-02    6.916346e-05
  4.570995e-02    6.762557e-05
  4.600888e-02    6.629496e-05
  4.630781e-02    6.660331e-05
  4.660674e-02    6.688929e-05
  4.690567e-02    6.737137e-05
  4.720460e-02    6.775865e-05
  4.750353e-02    6.667544e-05
  4.780246e-02    6.533052e-05
  4.810139e-02    6.358861e-05
  4.840032e-02    6.474678e-05
  4.869925e-02    6.558578e-05
  4.899818e-02    6.496341e-05
  4.929711e-02    6.464706e-05
  4.959604e-02    6.365074e-05
  4.989497e-02    6.285661e-05
  5.019390e-02    6.444602e-05
  5.049283e-02    6.354100e-05
  5.079176e-02    6.301286e-05
  5.109069e-02    6.306867e-05
  5.138962e-02    6.424208e-05
  5.168855e-02    6.704184e-05
  5.198748e-02    6.717279e-05
  5.228642e-02    6.529515e-05
  5.258535e-02    6.512772e-05
  5.288428e-02    6.418238e-05
  5.318321e-02    6.414656e-05
  5.348214e-02    6.484910e-05
  5.378107e-02    6.444872e-05
  5.408000e-02    6.400336e-05
  5.437893e-02    6.245543e-05
  5.467786e-02    6.229877e-05
  5.497679e-02    6.174630e-05
  5.527572e-02    6.183189e-05
  5.557465e-02    6.189186e-05
  5.587358e-02    6.163201e-05
  5.617251e-02    6.116951e-05
  5.647144e-02    6.173499e-05
  5.677037e-02    6.080297e-05
  5.706930e-02    6.213087e-05
  5.736823e-02    6.142747e-05
  5.766716e-02    6.038190e-05
  5.796609e-02    6.131509e-05
  5.826502e-02    5.970652e-05
  5.856395e-02    5.917458e-05
  5.886288e-02    6.007023e-05
  5.916181e-02    5.879787e-05
  5.946074e-02    5.845417e-05
  5.975967e-02    6.112173e-05
  6.005861e-02    6.074738e-05
  6.035754e-02    6.028505e-05
  6.065647e-02    6.098491e-05
  6.095540e-02    6.145114e-05
  6.125433e-02    6.289795e-05
  6.155326e-02    6.300542e-05
  6.185219e-02    6.241537e-05
  6.215112e-02    6.144027e-05
  6.245005e-02    6.158616e-05
  6.274898e-02    6.151104e-05
  6.304791e-02    6.294827e-05
  6.334684e-02    6.243931e-05
  6.364577e-02    6.186782e-05
  6.394470e-02    6.037177e-05
  6.424363e-02    6.033360e-05
  6.454256e-02    6.129054e-05
  6.484149e-02    6.057916e-05
  6.514042e-02    5.873294e-05
  6.543935e-02    6.082716e-05
  6.573828e-02    6.138966e-05
  6.603721e-02    6.017673e-05
  6.633614e-02    6.180485e-05
  6.663507e-02    6.337315e-05
  6.693400e-02    6.337027e-05
  6.723293e-02    6.188620e-05
  6.753186e-02    6.221091e-05
  6.783080e-02    6.225392e-05
  6.812973e-02    6.247406e-05
  6.842866e-02    6.242391e-05
  6.872759e-02    6.161513e-05
  6.902652e-02    6.174977e-05
  6.932545e-02    6.458299e-05
  6.962438e-02    6.263680e-05
  6.992331e-02    6.099211e-05
  7.022224e-02    6.103221e-05
  7.052117e-02    6.208124e-05
  7.082010e-02    6.305453e-05
  7.111903e-02    6.260247e-05
  7.141796e-02    6.174889e-05
  7.171689e-02    6.188470e-05
  7.201582e-02    6.250638e-05
  7.231475e-02    6.135230e-05
  7.261368e-02    5.999157e-05
  7.291261e-02    6.335556e-05
  7.321154e-02    6.381134e-05
  7.351047e-02    6.453347e-05
  7.380940e-02    6.448854e-05
  7.410833e-02    6.202770e-05
  7.440726e-02    6.067268e-05
  7.470619e-02    6.110515e-05
  7.500512e-02    6.139088e-05
  7.530405e-02    6.164570e-05
  7.560299e-02    5.990346e-05
  7.590192e-02    6.050913e-05
  7.620085e-02    6.102413e-05
  7.649978e-02    6.012849e-05
  7.679871e-02    6.208442e-05
  7.709764e-02    6.346153e-05
  7.739657e-02    6.201219e-05
  7.769550e-02    6.149549e-05
  7.799443e-02    6.222149e-05
  7.829336e-02    6.191290e-05
  7.859229e-02    6.156228e-05
  7.889122e-02    6.058054e-05
  7.919015e-02    6.043733e-05
  7.948908e-02    6.151228e-05
  7.978801e-02    6.102780e-05
  8.008694e-02    6.108409e-05
  8.038587e-02    6.068562e-05
  8.068480e-02    6.043817e-05
  8.098373e-02    6.116504e-05
  8.128266e-02    6.127349e-05
  8.158159e-02    5.955168e-05
  8.188052e-02    5.888155e-05
  8.217945e-02    6.150715e-05
  8.247838e-02    6.158347e-05
  8.277731e-02    5.879690e-05
  8.307624e-02    5.875636e-05
  8.337518e-02    6.119320e-05
  8.367411e-02    6.125747e-05
  8.397304e-02    6.149813e-05
  8.427197e-02    6.100304e-05
  8.457090e-02    6.083905e-05
  8.486983e-02    6.059249e-05
  8.516876e-02    5.845708e-05
  8.546769e-02    5.913213e-05
  8.576662e-02    5.923955e-05
  8.606555e-02    5.824129e-05
  8.636448e-02    5.811440e-05
  8.666341e-02    5.837128e-05
  8.696234e-02    5.882047e-05
  8.726127e-02    5.965043e-05
  8.756020e-02    6.023964e-05
  8.785913e-02    6.032787e-05
  8.815806e-02    5.961107e-05
  8.845699e-02    6.029454e-05
  8.875592e-02    5.977670e-05
  8.905485e-02    5.739663e-05
  8.935378e-02    5.781297e-05
  8.965271e-02    5.822888e-05
  8.995164e-02    5.734534e-05
  9.025057e-02    5.763142e-05
  9.054950e-02    5.712733e-05
  9.084843e-02    5.738718e-05
  9.114737e-02    5.738251e-05
  9.144630e-02    5.678571e-05
  9.174523e-02    5.639607e-05
  9.204416e-02    5.637262e-05
  9.234309e-02    5.591831e-05
  9.264202e-02    5.568205e-05
  9.294095e-02    5.666732e-05
  9.323988e-02    5.717491e-05
  9.353881e-02    5.553238e-05
  9.383774e-02    5.521299e-05
  9.413667e-02    5.601057e-05
  9.443560e-02    5.559508e-05
  9.473453e-02    5.682310e-05
  9.503346e-02    5.681061e-05
  9.533239e-02    5.615783e-05
  9.563132e-02    5.610408e-05
  9.593025e-02    5.567979e-05
  9.622918e-02    5.485638e-05
  9.652811e-02    5.610853e-05
  9.682704e-02    5.586217e-05
  9.712597e-02    5.394483e-05
  9.742490e-02    5.316218e-05
  9.772383e-02    5.306383e-05
  9.802276e-02    5.429575e-05
  9.832169e-02    5.507038e-05
  9.862062e-02    5.435829e-05
  9.891956e-02    5.460346e-05
  9.921849e-02    5.334781e-05
  9.951742e-02    5.295909e-05
  9.981635e-02    5.354617e-05
  1.001153e-01    5.539871e-05
  1.004142e-01    5.430187e-05
  1.007131e-01    5.469896e-05
  1.010121e-01    5.482027e-05
  1.013110e-01    5.385233e-05
  1.016099e-01    5.374907e-05
  1.019089e-01    5.328655e-05
  1.022078e-01    5.305660e-05
  1.025067e-01    5.257325e-05
  1.028057e-01    5.304586e-05
  1.031046e-01    5.329947e-05
  1.034035e-01    5.268278e-05
  1.037024e-01    5.258533e-05
  1.040014e-01    5.361113e-05
  1.043003e-01    5.199678e-05
  1.045992e-01    5.183739e-05
  1.048982e-01    5.245088e-05
  1.051971e-01    5.255736e-05
  1.054960e-01    5.304927e-05
  1.057950e-01    5.210974e-05
  1.060939e-01    5.041876e-05
  1.063928e-01    5.115583e-05
  1.066917e-01    5.178777e-05
  1.069907e-01    5.229852e-05
  1.072896e-01    5.281393e-05
  1.075885e-01    5.362340e-05
  1.078875e-01    5.251378e-05
  1.081864e-01    5.115075e-05
  1.084853e-01    5.156975e-05
  1.087843e-01    5.160384e-05
  1.090832e-01    5.168224e-05
  1.093821e-01    5.073464e-05
  1.096810e-01    4.966768e-05
  1.099800e-01    4.933401e-05
  1.102789e-01    5.067946e-05
  1.105778e-01    4.906961e-05
  1.108768e-01    4.943449e-05
  1.111757e-01    5.054666e-05
  1.114746e-01    5.073411e-05
  1.117736e-01    4.992261e-05
  1.120725e-01    5.050369e-05
  1.123714e-01    5.105945e-05
  1.126704e-01    4.995650e-05
  1.129693e-01    4.837408e-05
  1.132682e-01    4.778701e-05
  1.135671e-01    4.655278e-05
  1.138661e-01    4.755047e-05
  1.141650e-01    4.895136e-05
  1.144639e-01    4.804203e-05
  1.147629e-01    4.791331e-05
  1.150618e-01    4.700304e-05
  1.153607e-01    4.748170e-05
  1.156597e-01    4.884577e-05
  1.159586e-01    4.776821e-05
  1.162575e-01    4.743674e-05
  1.165564e-01    4.690066e-05
  1.168554e-01    4.775858e-05
  1.171543e-01    4.948496e-05
  1.174532e-01    4.812930e-05
  1.177522e-01    4.926947e-05
  1.180511e-01    4.821071e-05
  1.183500e-01    4.780273e-05
  1.186490e-01    5.237489e-05
  1.189479e-01    4.826617e-05
  1.192468e-01    4.561469e-05
  1.195458e-01    4.542131e-05
  1.198447e-01    4.296016e-05
  1.201436e-01    4.100274e-05
  1.204425e-01    4.643311e-05
  1.207415e-01    4.884274e-05
  1.210404e-01    5.044371e-05
  1.213393e-01    0.000000e+00
  1.216383e-01    0.000000e+00
  1.219372e-01    0.000000e+00
  1.222361e-01    0.000000e+00
  1.225351e-01    0.000000e+00
  1.228340e-01    0.000000e+00
  1.231329e-01    0.000000e+00
  1.234318e-01    0.000000e+00
  1.237308e-01    0.000000e+00
  1.240297e-01    0.000000e+00
  1.243286e-01    0.000000e+00
  1.246276e-01    0.000000e+00
  1.249265e-01    0.000000e+00
  1.252254e-01    0.000000e+00
  1.255244e-01    0.000000e+00
  1.258233e-01    0.000000e+00
  1.261222e-01    0.000000e+00
  1.264212e-01    0.000000e+00
  1.267201e-01    0.000000e+00
  1.270190e-01    0.000000e+00
  1.273179e-01    0.000000e+00
  1.276169e-01    0.000000e+00
  1.279158e-01    0.000000e+00
  1.282147e-01    0.000000e+00
  1.285137e-01    0.000000e+00
  1.288126e-01    0.000000e+00
  1.291115e-01    0.000000e+00
  1.294105e-01    0.000000e+00
  1.297094e-01    0.000000e+00
  1.300083e-01    0.000000e+00
  1.303072e-01    0.000000e+00
  1.306062e-01    0.000000e+00
  1.309051e-01    0.000000e+00
  1.312040e-01    0.000000e+00
  1.315030e-01    0.000000e+00
  1.318019e-01    0.000000e+00
  1.321008e-01    0.000000e+00
  1.323998e-01    0.000000e+00
  1.326987e-01    0.000000e+00
  1.329976e-01    0.000000e+00
  1.332965e-01    0.000000e+00
  1.335955e-01    0.000000e+00
  1.338944e-01    0.000000e+00
  1.341933e-01    0.000000e+00
  1.344923e-01    0.000000e+00
  1.347912e-01    0.000000e+00
  1.350901e-01    0.000000e+00
  1.353891e-01    0.000000e+00
  1.356880e-01    0.000000e+00
  1.359869e-01    0.000000e+00
  1.362859e-01    0.000000e+00
  1.365848e-01    0.000000e+00
  1.368837e-01    0.000000e+00
  1.371826e-01    0.000000e+00
  1.374816e-01    0.000000e+00
  1.377805e-01    0.000000e+00
  1.380794e-01    0.000000e+00
  1.383784e-01    0.000000e+00
  1.386773e-01    0.000000e+00
  1.389762e-01    0.000000e+00
  1.392752e-01    0.000000e+00
  1.395741e-01    0.000000e+00
  1.398730e-01    0.000000e+00
  1.401719e-01    0.000000e+00
  1.404709e-01    0.000000e+00
  1.407698e-01    0.000000e+00
  1.410687e-01    0.000000e+00
  1.413677e-01    0.000000e+00
  1.416666e-01    0.000000e+00
  1.419655e-01    0.000000e+00
  1.422645e-01    0.000000e+00
  1.425634e-01    0.000000e+00
  1.428623e-01    0.000000e+00
  1.431613e-01    0.000000e+00
  1.434602e-01    0.000000e+00
  1.437591e-01    0.000000e+00
  1.440580e-01    0.000000e+00
  1.443570e-01    0.000000e+00
  1.446559e-01    0.000000e+00
  1.449548e-01    0.000000e+00
  1.452538e-01    0.000000e+00
  1.455527e-01    0.000000e+00
  1.458516e-01    0.000000e+00
  1.461506e-01    0.000000e+00
  1.464495e-01    0.000000e+00
  1.467484e-01    0.000000e+00
  1.470473e-01    0.000000e+00
  1.473463e-01    0.000000e+00
  1.476452e-01    0.000000e+00
  1.479441e-01    0.000000e+00
  1.482431e-01    0.000000e+00
  1.485420e-01    0.000000e+00
  1.488409e-01    0.000000e+00
  1.491399e-01    0.000000e+00
  1.494388e-01    0.000000e+00
  1.497377e-01    0.000000e+00
  1.500367e-01    0.000000e+00
  1.503356e-01    0.000000e+00
  1.506345e-01    0.000000e+00
  1.509334e-01    0.000000e+00
  1.512324e-01    0.000000e+00
  1.515313e-01    0.000000e+00
  1.518302e-01    0.000000e+00
  1.521292e-01    0.000000e+00
  1.524281e-01    0.000000e+00
  1.527270e-01    0.000000e+00
  1.530260e-01    0.000000e+00
  1.533249e-01    0.000000e+00
  1.536238e-01    0.000000e+00
