# == pyFAI calibration ==
# Distance Sample to Detector: 2.266 m
# PONI: 5.659e-02, 4.293e-02 m
# Rotations: 0.000000 0.000000 0.000000 rad
# 
# == Fit2d calibration ==
# Distance Sample-beamCenter: 2266.000 mm
# Center: x=249.594, y=329.012 pix
# Tilt: 0.000 deg  TiltPlanRot: 0.000 deg
# 
# Detector Pilatus 300k	 PixelSize= 1.720e-04, 1.720e-04 m
#    Detector has a mask: True 
#    Detector has a dark current: False 
#    detector has a flat field: False 
# 
# Wavelength: 1.27818e-10 m
# Mask applied: user provided
# Dark current applied: False
# Flat field applied: False
# Polarization factor: None
# Normalization factor: 332.59
# --> latex_CL3252_TiO2_R706_phiT_0.050_PVC_1.000_DOP_0.015_2_r1d.csv
#        q_A^-1             I 
  4.457554e-03    4.195825e+01
  4.756484e-03    3.677677e+01
  5.055415e-03    3.078392e+01
  5.354345e-03    2.516391e+01
  5.653276e-03    2.136091e+01
  5.952206e-03    5.033933e+01
  6.251136e-03    4.656447e+01
  6.550067e-03    4.033150e+01
  6.848997e-03    3.345568e+01
  7.147927e-03    2.724442e+01
  7.446858e-03    2.232473e+01
  7.745788e-03    1.828130e+01
  8.044719e-03    1.504333e+01
  8.343649e-03    1.258998e+01
  8.642579e-03    1.054255e+01
  8.941510e-03    8.905053e+00
  9.240440e-03    7.578841e+00
  9.539371e-03    6.462313e+00
  9.838301e-03    5.536739e+00
  1.013723e-02    4.785355e+00
  1.043616e-02    4.155848e+00
  1.073509e-02    3.584148e+00
  1.103402e-02    3.135780e+00
  1.133295e-02    2.757446e+00
  1.163188e-02    2.440367e+00
  1.193081e-02    2.163126e+00
  1.222974e-02    1.927043e+00
  1.252867e-02    1.730366e+00
  1.282760e-02    1.556190e+00
  1.312654e-02    1.399208e+00
  1.342547e-02    1.260475e+00
  1.372440e-02    1.135838e+00
  1.402333e-02    1.028732e+00
  1.432226e-02    9.318745e-01
  1.462119e-02    8.520085e-01
  1.492012e-02    7.798846e-01
  1.521905e-02    7.109943e-01
  1.551798e-02    6.506622e-01
  1.581691e-02    5.974070e-01
  1.611584e-02    5.481606e-01
  1.641477e-02    5.018362e-01
  1.671370e-02    4.656155e-01
  1.701263e-02    4.299904e-01
  1.731156e-02    3.946700e-01
  1.761049e-02    3.664677e-01
  1.790942e-02    3.397321e-01
  1.820835e-02    3.160412e-01
  1.850728e-02    2.948049e-01
  1.880621e-02    2.754356e-01
  1.910514e-02    2.559759e-01
  1.940407e-02    2.377887e-01
  1.970300e-02    2.242963e-01
  2.000193e-02    2.085259e-01
  2.030086e-02    1.928127e-01
  2.059979e-02    1.803465e-01
  2.089873e-02    1.702164e-01
  2.119766e-02    1.597966e-01
  2.149659e-02    1.500910e-01
  2.179552e-02    1.405790e-01
  2.209445e-02    1.327908e-01
  2.239338e-02    1.249679e-01
  2.269231e-02    1.183048e-01
  2.299124e-02    1.121126e-01
  2.329017e-02    1.067385e-01
  2.358910e-02    1.003088e-01
  2.388803e-02    9.522952e-02
  2.418696e-02    8.935343e-02
  2.448589e-02    8.299679e-02
  2.478482e-02    7.854580e-02
  2.508375e-02    7.420117e-02
  2.538268e-02    7.098731e-02
  2.568161e-02    6.673878e-02
  2.598054e-02    6.285565e-02
  2.627947e-02    5.976570e-02
  2.657840e-02    5.793321e-02
  2.687733e-02    5.549002e-02
  2.717626e-02    5.307715e-02
  2.747519e-02    5.018813e-02
  2.777412e-02    4.791750e-02
  2.807305e-02    4.556299e-02
  2.837198e-02    4.330321e-02
  2.867092e-02    4.114578e-02
  2.896985e-02    3.986747e-02
  2.926878e-02    3.810572e-02
  2.956771e-02    3.692291e-02
  2.986664e-02    3.572885e-02
  3.016557e-02    3.380675e-02
  3.046450e-02    3.201072e-02
  3.076343e-02    3.016055e-02
  3.106236e-02    2.897023e-02
  3.136129e-02    2.808068e-02
  3.166022e-02    2.676905e-02
  3.195915e-02    2.629542e-02
  3.225808e-02    2.529985e-02
  3.255701e-02    2.410416e-02
  3.285594e-02    2.292973e-02
  3.315487e-02    2.215659e-02
  3.345380e-02    2.129275e-02
  3.375273e-02    2.025243e-02
  3.405166e-02    1.949001e-02
  3.435059e-02    1.920511e-02
  3.464952e-02    1.857604e-02
  3.494845e-02    1.797329e-02
  3.524738e-02    1.721116e-02
  3.554631e-02    1.655217e-02
  3.584524e-02    1.560782e-02
  3.614417e-02    1.524169e-02
  3.644310e-02    1.473881e-02
  3.674204e-02    1.400397e-02
  3.704097e-02    1.404937e-02
  3.733990e-02    1.347404e-02
  3.763883e-02    1.274834e-02
  3.793776e-02    1.236697e-02
  3.823669e-02    1.180481e-02
  3.853562e-02    1.145592e-02
  3.883455e-02    1.102734e-02
  3.913348e-02    1.066737e-02
  3.943241e-02    1.034412e-02
  3.973134e-02    1.017048e-02
  4.003027e-02    9.801100e-03
  4.032920e-02    9.374953e-03
  4.062813e-02    9.327454e-03
  4.092706e-02    9.099719e-03
  4.122599e-02    8.755025e-03
  4.152492e-02    8.573895e-03
  4.182385e-02    8.100553e-03
  4.212278e-02    7.759983e-03
  4.242171e-02    7.800994e-03
  4.272064e-02    7.407229e-03
  4.301957e-02    7.161144e-03
  4.331850e-02    6.883260e-03
  4.361743e-02    6.710490e-03
  4.391636e-02    6.420419e-03
  4.421529e-02    6.358560e-03
  4.451423e-02    6.302977e-03
  4.481316e-02    6.345396e-03
  4.511209e-02    5.971806e-03
  4.541102e-02    5.727800e-03
  4.570995e-02    5.659054e-03
  4.600888e-02    5.455484e-03
  4.630781e-02    5.345497e-03
  4.660674e-02    5.303248e-03
  4.690567e-02    4.981190e-03
  4.720460e-02    4.896167e-03
  4.750353e-02    4.975718e-03
  4.780246e-02    4.605177e-03
  4.810139e-02    4.416517e-03
  4.840032e-02    4.408207e-03
  4.869925e-02    4.284943e-03
  4.899818e-02    4.276053e-03
  4.929711e-02    4.228555e-03
  4.959604e-02    3.977455e-03
  4.989497e-02    4.014712e-03
  5.019390e-02    4.072807e-03
  5.049283e-02    3.806013e-03
  5.079176e-02    3.706377e-03
  5.109069e-02    3.670056e-03
  5.138962e-02    3.662849e-03
  5.168855e-02    3.600552e-03
  5.198748e-02    3.581658e-03
  5.228642e-02    3.556008e-03
  5.258535e-02    3.472731e-03
  5.288428e-02    3.371493e-03
  5.318321e-02    3.345046e-03
  5.348214e-02    3.191066e-03
  5.378107e-02    3.086993e-03
  5.408000e-02    3.048849e-03
  5.437893e-02    2.981441e-03
  5.467786e-02    2.886847e-03
  5.497679e-02    2.870478e-03
  5.527572e-02    2.705139e-03
  5.557465e-02    2.648284e-03
  5.587358e-02    2.620819e-03
  5.617251e-02    2.533793e-03
  5.647144e-02    2.483975e-03
  5.677037e-02    2.446942e-03
  5.706930e-02    2.526003e-03
  5.736823e-02    2.566358e-03
  5.766716e-02    2.399592e-03
  5.796609e-02    2.339944e-03
  5.826502e-02    2.222980e-03
  5.856395e-02    2.216023e-03
  5.886288e-02    2.222889e-03
  5.916181e-02    2.078308e-03
  5.946074e-02    2.159436e-03
  5.975967e-02    2.276682e-03
  6.005861e-02    2.216087e-03
  6.035754e-02    2.185829e-03
  6.065647e-02    2.050468e-03
  6.095540e-02    1.928159e-03
  6.125433e-02    1.989513e-03
  6.155326e-02    1.948259e-03
  6.185219e-02    2.038442e-03
  6.215112e-02    1.944455e-03
  6.245005e-02    1.813419e-03
  6.274898e-02    1.895094e-03
  6.304791e-02    1.833938e-03
  6.334684e-02    1.821626e-03
  6.364577e-02    1.779323e-03
  6.394470e-02    1.677471e-03
  6.424363e-02    1.620276e-03
  6.454256e-02    1.578919e-03
  6.484149e-02    1.584727e-03
  6.514042e-02    1.535536e-03
  6.543935e-02    1.625425e-03
  6.573828e-02    1.562205e-03
  6.603721e-02    1.546448e-03
  6.633614e-02    1.567835e-03
  6.663507e-02    1.490394e-03
  6.693400e-02    1.460246e-03
  6.723293e-02    1.495150e-03
  6.753186e-02    1.484976e-03
  6.783080e-02    1.351542e-03
  6.812973e-02    1.473811e-03
  6.842866e-02    1.431912e-03
  6.872759e-02    1.406850e-03
  6.902652e-02    1.433215e-03
  6.932545e-02    1.420699e-03
  6.962438e-02    1.456071e-03
  6.992331e-02    1.355402e-03
  7.022224e-02    1.331480e-03
  7.052117e-02    1.263464e-03
  7.082010e-02    1.281855e-03
  7.111903e-02    1.327708e-03
  7.141796e-02    1.353379e-03
  7.171689e-02    1.334930e-03
  7.201582e-02    1.281518e-03
  7.231475e-02    1.243666e-03
  7.261368e-02    1.261404e-03
  7.291261e-02    1.210748e-03
  7.321154e-02    1.165196e-03
  7.351047e-02    1.184464e-03
  7.380940e-02    1.193380e-03
  7.410833e-02    1.242522e-03
  7.440726e-02    1.226614e-03
  7.470619e-02    1.155886e-03
  7.500512e-02    1.146216e-03
  7.530405e-02    1.153716e-03
  7.560299e-02    1.163655e-03
  7.590192e-02    1.113433e-03
  7.620085e-02    1.064786e-03
  7.649978e-02    1.134970e-03
  7.679871e-02    1.131629e-03
  7.709764e-02    1.115939e-03
  7.739657e-02    1.093537e-03
  7.769550e-02    1.035570e-03
  7.799443e-02    9.495958e-04
  7.829336e-02    1.009245e-03
  7.859229e-02    1.038685e-03
  7.889122e-02    1.040427e-03
  7.919015e-02    1.036992e-03
  7.948908e-02    9.763950e-04
  7.978801e-02    9.541851e-04
  8.008694e-02    1.000164e-03
  8.038587e-02    1.062468e-03
  8.068480e-02    1.009273e-03
  8.098373e-02    1.023614e-03
  8.128266e-02    1.045759e-03
  8.158159e-02    9.236507e-04
  8.188052e-02    8.869766e-04
  8.217945e-02    8.838683e-04
  8.247838e-02    8.547044e-04
  8.277731e-02    9.258681e-04
  8.307624e-02    9.992097e-04
  8.337518e-02    8.594695e-04
  8.367411e-02    8.322105e-04
  8.397304e-02    8.887529e-04
  8.427197e-02    8.678055e-04
  8.457090e-02    7.828754e-04
  8.486983e-02    8.342266e-04
  8.516876e-02    8.846720e-04
  8.546769e-02    8.495647e-04
  8.576662e-02    8.568170e-04
  8.606555e-02    8.267573e-04
  8.636448e-02    8.147135e-04
  8.666341e-02    8.280327e-04
  8.696234e-02    8.422797e-04
  8.726127e-02    8.702485e-04
  8.756020e-02    7.713241e-04
  8.785913e-02    7.728115e-04
  8.815806e-02    7.847492e-04
  8.845699e-02    7.439037e-04
  8.875592e-02    7.286372e-04
  8.905485e-02    7.855885e-04
  8.935378e-02    7.873815e-04
  8.965271e-02    7.725047e-04
  8.995164e-02    7.736352e-04
  9.025057e-02    7.871072e-04
  9.054950e-02    7.923391e-04
  9.084843e-02    7.797688e-04
  9.114737e-02    7.618545e-04
  9.144630e-02    7.315507e-04
  9.174523e-02    7.199750e-04
  9.204416e-02    7.517940e-04
  9.234309e-02    7.077107e-04
  9.264202e-02    6.635461e-04
  9.294095e-02    6.948423e-04
  9.323988e-02    6.964825e-04
  9.353881e-02    6.942986e-04
  9.383774e-02    6.734383e-04
  9.413667e-02    6.325186e-04
  9.443560e-02    6.206876e-04
  9.473453e-02    6.394483e-04
  9.503346e-02    6.663994e-04
  9.533239e-02    6.943762e-04
  9.563132e-02    6.979080e-04
  9.593025e-02    6.695825e-04
  9.622918e-02    6.166389e-04
  9.652811e-02    6.433463e-04
  9.682704e-02    6.286095e-04
  9.712597e-02    6.398572e-04
  9.742490e-02    6.795367e-04
  9.772383e-02    6.675336e-04
  9.802276e-02    6.638733e-04
  9.832169e-02    6.847432e-04
  9.862062e-02    6.735722e-04
  9.891956e-02    6.625100e-04
  9.921849e-02    6.837057e-04
  9.951742e-02    6.487353e-04
  9.981635e-02    6.146671e-04
  1.001153e-01    5.941517e-04
  1.004142e-01    5.643012e-04
  1.007131e-01    5.749186e-04
  1.010121e-01    5.875260e-04
  1.013110e-01    5.625483e-04
  1.016099e-01    5.764376e-04
  1.019089e-01    5.577172e-04
  1.022078e-01    5.506302e-04
  1.025067e-01    5.494924e-04
  1.028057e-01    5.877906e-04
  1.031046e-01    6.399599e-04
  1.034035e-01    5.854432e-04
  1.037024e-01    5.249298e-04
  1.040014e-01    5.473720e-04
  1.043003e-01    5.715600e-04
  1.045992e-01    5.620084e-04
  1.048982e-01    5.219516e-04
  1.051971e-01    5.259475e-04
  1.054960e-01    5.575686e-04
  1.057950e-01    5.766222e-04
  1.060939e-01    6.056544e-04
  1.063928e-01    5.991719e-04
  1.066917e-01    5.542382e-04
  1.069907e-01    5.497279e-04
  1.072896e-01    5.716477e-04
  1.075885e-01    5.365546e-04
  1.078875e-01    5.400201e-04
  1.081864e-01    5.454838e-04
  1.084853e-01    5.434369e-04
  1.087843e-01    5.001251e-04
  1.090832e-01    5.016650e-04
  1.093821e-01    5.602296e-04
  1.096810e-01    5.752962e-04
  1.099800e-01    5.837927e-04
  1.102789e-01    5.671419e-04
  1.105778e-01    5.716907e-04
  1.108768e-01    5.594621e-04
  1.111757e-01    5.470443e-04
  1.114746e-01    5.663303e-04
  1.117736e-01    5.231520e-04
  1.120725e-01    5.006799e-04
  1.123714e-01    5.350772e-04
  1.126704e-01    5.215297e-04
  1.129693e-01    4.956401e-04
  1.132682e-01    4.037823e-04
  1.135671e-01    3.832151e-04
  1.138661e-01    3.952498e-04
  1.141650e-01    4.509622e-04
  1.144639e-01    4.379216e-04
  1.147629e-01    4.503336e-04
  1.150618e-01    4.197180e-04
  1.153607e-01    3.462764e-04
  1.156597e-01    2.995998e-04
  1.159586e-01    3.144207e-04
  1.162575e-01    3.377232e-04
  1.165564e-01    2.589548e-04
  1.168554e-01    2.452845e-04
  1.171543e-01    4.123315e-04
  1.174532e-01    3.912447e-04
  1.177522e-01    3.426477e-04
  1.180511e-01    3.719308e-04
  1.183500e-01    3.636056e-04
  1.186490e-01    4.349602e-04
  1.189479e-01    5.051950e-04
  1.192468e-01    4.728416e-04
  1.195458e-01    3.696054e-04
  1.198447e-01    3.233825e-04
  1.201436e-01    4.407503e-04
  1.204425e-01    7.613951e-04
  1.207415e-01    5.915871e-04
  1.210404e-01    0.000000e+00
  1.213393e-01    0.000000e+00
  1.216383e-01    0.000000e+00
  1.219372e-01    0.000000e+00
  1.222361e-01    0.000000e+00
  1.225351e-01    0.000000e+00
  1.228340e-01    0.000000e+00
  1.231329e-01    0.000000e+00
  1.234318e-01    0.000000e+00
  1.237308e-01    0.000000e+00
  1.240297e-01    0.000000e+00
  1.243286e-01    0.000000e+00
  1.246276e-01    0.000000e+00
  1.249265e-01    0.000000e+00
  1.252254e-01    0.000000e+00
  1.255244e-01    0.000000e+00
  1.258233e-01    0.000000e+00
  1.261222e-01    0.000000e+00
  1.264212e-01    0.000000e+00
  1.267201e-01    0.000000e+00
  1.270190e-01    0.000000e+00
  1.273179e-01    0.000000e+00
  1.276169e-01    0.000000e+00
  1.279158e-01    0.000000e+00
  1.282147e-01    0.000000e+00
  1.285137e-01    0.000000e+00
  1.288126e-01    0.000000e+00
  1.291115e-01    0.000000e+00
  1.294105e-01    0.000000e+00
  1.297094e-01    0.000000e+00
  1.300083e-01    0.000000e+00
  1.303072e-01    0.000000e+00
  1.306062e-01    0.000000e+00
  1.309051e-01    0.000000e+00
  1.312040e-01    0.000000e+00
  1.315030e-01    0.000000e+00
  1.318019e-01    0.000000e+00
  1.321008e-01    0.000000e+00
  1.323998e-01    0.000000e+00
  1.326987e-01    0.000000e+00
  1.329976e-01    0.000000e+00
  1.332965e-01    0.000000e+00
  1.335955e-01    0.000000e+00
  1.338944e-01    0.000000e+00
  1.341933e-01    0.000000e+00
  1.344923e-01    0.000000e+00
  1.347912e-01    0.000000e+00
  1.350901e-01    0.000000e+00
  1.353891e-01    0.000000e+00
  1.356880e-01    0.000000e+00
  1.359869e-01    0.000000e+00
  1.362859e-01    0.000000e+00
  1.365848e-01    0.000000e+00
  1.368837e-01    0.000000e+00
  1.371826e-01    0.000000e+00
  1.374816e-01    0.000000e+00
  1.377805e-01    0.000000e+00
  1.380794e-01    0.000000e+00
  1.383784e-01    0.000000e+00
  1.386773e-01    0.000000e+00
  1.389762e-01    0.000000e+00
  1.392752e-01    0.000000e+00
  1.395741e-01    0.000000e+00
  1.398730e-01    0.000000e+00
  1.401719e-01    0.000000e+00
  1.404709e-01    0.000000e+00
  1.407698e-01    0.000000e+00
  1.410687e-01    0.000000e+00
  1.413677e-01    0.000000e+00
  1.416666e-01    0.000000e+00
  1.419655e-01    0.000000e+00
  1.422645e-01    0.000000e+00
  1.425634e-01    0.000000e+00
  1.428623e-01    0.000000e+00
  1.431613e-01    0.000000e+00
  1.434602e-01    0.000000e+00
  1.437591e-01    0.000000e+00
  1.440580e-01    0.000000e+00
  1.443570e-01    0.000000e+00
  1.446559e-01    0.000000e+00
  1.449548e-01    0.000000e+00
  1.452538e-01    0.000000e+00
  1.455527e-01    0.000000e+00
  1.458516e-01    0.000000e+00
  1.461506e-01    0.000000e+00
  1.464495e-01    0.000000e+00
  1.467484e-01    0.000000e+00
  1.470473e-01    0.000000e+00
  1.473463e-01    0.000000e+00
  1.476452e-01    0.000000e+00
  1.479441e-01    0.000000e+00
  1.482431e-01    0.000000e+00
  1.485420e-01    0.000000e+00
  1.488409e-01    0.000000e+00
  1.491399e-01    0.000000e+00
  1.494388e-01    0.000000e+00
  1.497377e-01    0.000000e+00
  1.500367e-01    0.000000e+00
  1.503356e-01    0.000000e+00
  1.506345e-01    0.000000e+00
  1.509334e-01    0.000000e+00
  1.512324e-01    0.000000e+00
  1.515313e-01    0.000000e+00
  1.518302e-01    0.000000e+00
  1.521292e-01    0.000000e+00
  1.524281e-01    0.000000e+00
  1.527270e-01    0.000000e+00
  1.530260e-01    0.000000e+00
  1.533249e-01    0.000000e+00
  1.536238e-01    0.000000e+00
