# == pyFAI calibration ==
# Distance Sample to Detector: 2.266 m
# PONI: 5.659e-02, 4.293e-02 m
# Rotations: 0.000000 0.000000 0.000000 rad
# 
# == Fit2d calibration ==
# Distance Sample-beamCenter: 2266.000 mm
# Center: x=249.594, y=329.012 pix
# Tilt: 0.000 deg  TiltPlanRot: 0.000 deg
# 
# Detector Pilatus 300k	 PixelSize= 1.720e-04, 1.720e-04 m
#    Detector has a mask: True 
#    Detector has a dark current: False 
#    detector has a flat field: False 
# 
# Wavelength: 1.27818e-10 m
# Mask applied: user provided
# Dark current applied: False
# Flat field applied: False
# Polarization factor: None
# Normalization factor: 21295.239999999998
# --> latex_CL3252_TiO2_R706_phiT_0.070_PVC_1.000_DOP_0.020_1_r1d.csv
#        q_A^-1             I 
  4.457554e-03    4.634807e-01
  4.756484e-03    4.056392e-01
  5.055415e-03    3.373840e-01
  5.354345e-03    2.757412e-01
  5.653276e-03    2.347266e-01
  5.952206e-03    4.925640e-01
  6.251136e-03    4.529516e-01
  6.550067e-03    3.924444e-01
  6.848997e-03    3.273953e-01
  7.147927e-03    2.700273e-01
  7.446858e-03    2.246909e-01
  7.745788e-03    1.871294e-01
  8.044719e-03    1.568455e-01
  8.343649e-03    1.334607e-01
  8.642579e-03    1.137339e-01
  8.941510e-03    9.761290e-02
  9.240440e-03    8.443397e-02
  9.539371e-03    7.323349e-02
  9.838301e-03    6.383105e-02
  1.013723e-02    5.590286e-02
  1.043616e-02    4.917169e-02
  1.073509e-02    4.306357e-02
  1.103402e-02    3.809770e-02
  1.133295e-02    3.377870e-02
  1.163188e-02    3.023967e-02
  1.193081e-02    2.728872e-02
  1.222974e-02    2.449302e-02
  1.252867e-02    2.204324e-02
  1.282760e-02    1.987195e-02
  1.312654e-02    1.809439e-02
  1.342547e-02    1.653663e-02
  1.372440e-02    1.502748e-02
  1.402333e-02    1.368582e-02
  1.432226e-02    1.256141e-02
  1.462119e-02    1.150959e-02
  1.492012e-02    1.056328e-02
  1.521905e-02    9.650774e-03
  1.551798e-02    8.912751e-03
  1.581691e-02    8.220129e-03
  1.611584e-02    7.615397e-03
  1.641477e-02    6.987683e-03
  1.671370e-02    6.514039e-03
  1.701263e-02    6.064357e-03
  1.731156e-02    5.598045e-03
  1.761049e-02    5.224269e-03
  1.790942e-02    4.903299e-03
  1.820835e-02    4.562185e-03
  1.850728e-02    4.258852e-03
  1.880621e-02    3.984048e-03
  1.910514e-02    3.734895e-03
  1.940407e-02    3.473964e-03
  1.970300e-02    3.234220e-03
  2.000193e-02    3.033763e-03
  2.030086e-02    2.849678e-03
  2.059979e-02    2.684393e-03
  2.089873e-02    2.537969e-03
  2.119766e-02    2.411204e-03
  2.149659e-02    2.264711e-03
  2.179552e-02    2.130252e-03
  2.209445e-02    2.020395e-03
  2.239338e-02    1.916029e-03
  2.269231e-02    1.795613e-03
  2.299124e-02    1.703347e-03
  2.329017e-02    1.633270e-03
  2.358910e-02    1.560981e-03
  2.388803e-02    1.467208e-03
  2.418696e-02    1.408218e-03
  2.448589e-02    1.339656e-03
  2.478482e-02    1.265765e-03
  2.508375e-02    1.209590e-03
  2.538268e-02    1.169836e-03
  2.568161e-02    1.120451e-03
  2.598054e-02    1.065301e-03
  2.627947e-02    1.013915e-03
  2.657840e-02    9.488664e-04
  2.687733e-02    9.166229e-04
  2.717626e-02    8.826769e-04
  2.747519e-02    8.492316e-04
  2.777412e-02    8.230527e-04
  2.807305e-02    7.896677e-04
  2.837198e-02    7.537730e-04
  2.867092e-02    7.292706e-04
  2.896985e-02    7.071910e-04
  2.926878e-02    6.788161e-04
  2.956771e-02    6.419127e-04
  2.986664e-02    6.157192e-04
  3.016557e-02    6.005470e-04
  3.046450e-02    5.821988e-04
  3.076343e-02    5.660246e-04
  3.106236e-02    5.440213e-04
  3.136129e-02    5.312506e-04
  3.166022e-02    5.132884e-04
  3.195915e-02    4.898820e-04
  3.225808e-02    4.726498e-04
  3.255701e-02    4.612054e-04
  3.285594e-02    4.501600e-04
  3.315487e-02    4.322557e-04
  3.345380e-02    4.209262e-04
  3.375273e-02    4.112610e-04
  3.405166e-02    3.988440e-04
  3.435059e-02    3.809892e-04
  3.464952e-02    3.761319e-04
  3.494845e-02    3.646511e-04
  3.524738e-02    3.481879e-04
  3.554631e-02    3.421532e-04
  3.584524e-02    3.341667e-04
  3.614417e-02    3.257689e-04
  3.644310e-02    3.182384e-04
  3.674204e-02    3.147614e-04
  3.704097e-02    3.037940e-04
  3.733990e-02    2.954275e-04
  3.763883e-02    2.972872e-04
  3.793776e-02    2.884143e-04
  3.823669e-02    2.742462e-04
  3.853562e-02    2.711902e-04
  3.883455e-02    2.646874e-04
  3.913348e-02    2.550359e-04
  3.943241e-02    2.498123e-04
  3.973134e-02    2.438372e-04
  4.003027e-02    2.392161e-04
  4.032920e-02    2.371686e-04
  4.062813e-02    2.365870e-04
  4.092706e-02    2.278859e-04
  4.122599e-02    2.246476e-04
  4.152492e-02    2.209629e-04
  4.182385e-02    2.186870e-04
  4.212278e-02    2.151507e-04
  4.242171e-02    2.093846e-04
  4.272064e-02    2.105364e-04
  4.301957e-02    2.042560e-04
  4.331850e-02    1.998760e-04
  4.361743e-02    1.954208e-04
  4.391636e-02    1.917044e-04
  4.421529e-02    1.911804e-04
  4.451423e-02    1.885398e-04
  4.481316e-02    1.793100e-04
  4.511209e-02    1.771990e-04
  4.541102e-02    1.798203e-04
  4.570995e-02    1.759799e-04
  4.600888e-02    1.704564e-04
  4.630781e-02    1.672176e-04
  4.660674e-02    1.699518e-04
  4.690567e-02    1.742322e-04
  4.720460e-02    1.674361e-04
  4.750353e-02    1.654126e-04
  4.780246e-02    1.667991e-04
  4.810139e-02    1.619439e-04
  4.840032e-02    1.585890e-04
  4.869925e-02    1.598492e-04
  4.899818e-02    1.595285e-04
  4.929711e-02    1.577541e-04
  4.959604e-02    1.566244e-04
  4.989497e-02    1.544229e-04
  5.019390e-02    1.501170e-04
  5.049283e-02    1.503848e-04
  5.079176e-02    1.504702e-04
  5.109069e-02    1.519568e-04
  5.138962e-02    1.532663e-04
  5.168855e-02    1.542642e-04
  5.198748e-02    1.567754e-04
  5.228642e-02    1.524912e-04
  5.258535e-02    1.486551e-04
  5.288428e-02    1.456374e-04
  5.318321e-02    1.405337e-04
  5.348214e-02    1.413316e-04
  5.378107e-02    1.398983e-04
  5.408000e-02    1.385091e-04
  5.437893e-02    1.397888e-04
  5.467786e-02    1.391920e-04
  5.497679e-02    1.416279e-04
  5.527572e-02    1.372975e-04
  5.557465e-02    1.330307e-04
  5.587358e-02    1.345589e-04
  5.617251e-02    1.365798e-04
  5.647144e-02    1.337164e-04
  5.677037e-02    1.327044e-04
  5.706930e-02    1.317045e-04
  5.736823e-02    1.316879e-04
  5.766716e-02    1.332372e-04
  5.796609e-02    1.320920e-04
  5.826502e-02    1.304668e-04
  5.856395e-02    1.274265e-04
  5.886288e-02    1.278323e-04
  5.916181e-02    1.299453e-04
  5.946074e-02    1.297114e-04
  5.975967e-02    1.305615e-04
  6.005861e-02    1.294787e-04
  6.035754e-02    1.277447e-04
  6.065647e-02    1.287493e-04
  6.095540e-02    1.270828e-04
  6.125433e-02    1.299532e-04
  6.155326e-02    1.305542e-04
  6.185219e-02    1.267794e-04
  6.215112e-02    1.277585e-04
  6.245005e-02    1.282196e-04
  6.274898e-02    1.270382e-04
  6.304791e-02    1.259593e-04
  6.334684e-02    1.248019e-04
  6.364577e-02    1.233806e-04
  6.394470e-02    1.233165e-04
  6.424363e-02    1.243351e-04
  6.454256e-02    1.259349e-04
  6.484149e-02    1.252564e-04
  6.514042e-02    1.250574e-04
  6.543935e-02    1.274548e-04
  6.573828e-02    1.246039e-04
  6.603721e-02    1.207111e-04
  6.633614e-02    1.214879e-04
  6.663507e-02    1.216719e-04
  6.693400e-02    1.233269e-04
  6.723293e-02    1.253478e-04
  6.753186e-02    1.233627e-04
  6.783080e-02    1.213697e-04
  6.812973e-02    1.209818e-04
  6.842866e-02    1.203656e-04
  6.872759e-02    1.227130e-04
  6.902652e-02    1.238409e-04
  6.932545e-02    1.223441e-04
  6.962438e-02    1.218581e-04
  6.992331e-02    1.241450e-04
  7.022224e-02    1.253407e-04
  7.052117e-02    1.236646e-04
  7.082010e-02    1.215352e-04
  7.111903e-02    1.203219e-04
  7.141796e-02    1.206250e-04
  7.171689e-02    1.217594e-04
  7.201582e-02    1.213653e-04
  7.231475e-02    1.234971e-04
  7.261368e-02    1.217858e-04
  7.291261e-02    1.225101e-04
  7.321154e-02    1.235696e-04
  7.351047e-02    1.239701e-04
  7.380940e-02    1.224182e-04
  7.410833e-02    1.239970e-04
  7.440726e-02    1.251155e-04
  7.470619e-02    1.218293e-04
  7.500512e-02    1.192597e-04
  7.530405e-02    1.203697e-04
  7.560299e-02    1.198343e-04
  7.590192e-02    1.194891e-04
  7.620085e-02    1.212682e-04
  7.649978e-02    1.187524e-04
  7.679871e-02    1.163009e-04
  7.709764e-02    1.167107e-04
  7.739657e-02    1.205661e-04
  7.769550e-02    1.211427e-04
  7.799443e-02    1.193890e-04
  7.829336e-02    1.182168e-04
  7.859229e-02    1.171723e-04
  7.889122e-02    1.171284e-04
  7.919015e-02    1.156683e-04
  7.948908e-02    1.158311e-04
  7.978801e-02    1.194016e-04
  8.008694e-02    1.183577e-04
  8.038587e-02    1.183211e-04
  8.068480e-02    1.179760e-04
  8.098373e-02    1.206251e-04
  8.128266e-02    1.180078e-04
  8.158159e-02    1.174308e-04
  8.188052e-02    1.169100e-04
  8.217945e-02    1.156961e-04
  8.247838e-02    1.152124e-04
  8.277731e-02    1.138539e-04
  8.307624e-02    1.114685e-04
  8.337518e-02    1.155795e-04
  8.367411e-02    1.173375e-04
  8.397304e-02    1.164467e-04
  8.427197e-02    1.144820e-04
  8.457090e-02    1.128642e-04
  8.486983e-02    1.118452e-04
  8.516876e-02    1.125309e-04
  8.546769e-02    1.146937e-04
  8.576662e-02    1.140275e-04
  8.606555e-02    1.148692e-04
  8.636448e-02    1.137470e-04
  8.666341e-02    1.136898e-04
  8.696234e-02    1.160911e-04
  8.726127e-02    1.155526e-04
  8.756020e-02    1.118174e-04
  8.785913e-02    1.108256e-04
  8.815806e-02    1.092463e-04
  8.845699e-02    1.088626e-04
  8.875592e-02    1.120792e-04
  8.905485e-02    1.099511e-04
  8.935378e-02    1.080805e-04
  8.965271e-02    1.093109e-04
  8.995164e-02    1.067209e-04
  9.025057e-02    1.075789e-04
  9.054950e-02    1.094298e-04
  9.084843e-02    1.067877e-04
  9.114737e-02    1.055635e-04
  9.144630e-02    1.085208e-04
  9.174523e-02    1.078944e-04
  9.204416e-02    1.069771e-04
  9.234309e-02    1.061053e-04
  9.264202e-02    1.059465e-04
  9.294095e-02    1.078257e-04
  9.323988e-02    1.076558e-04
  9.353881e-02    1.055777e-04
  9.383774e-02    1.042281e-04
  9.413667e-02    1.054985e-04
  9.443560e-02    1.051121e-04
  9.473453e-02    1.042265e-04
  9.503346e-02    1.043746e-04
  9.533239e-02    1.044173e-04
  9.563132e-02    1.033817e-04
  9.593025e-02    1.013721e-04
  9.622918e-02    1.019578e-04
  9.652811e-02    1.037049e-04
  9.682704e-02    1.032438e-04
  9.712597e-02    1.004169e-04
  9.742490e-02    1.023787e-04
  9.772383e-02    1.019297e-04
  9.802276e-02    1.001277e-04
  9.832169e-02    1.003549e-04
  9.862062e-02    9.755434e-05
  9.891956e-02    9.768661e-05
  9.921849e-02    1.011598e-04
  9.951742e-02    1.003898e-04
  9.981635e-02    1.006995e-04
  1.001153e-01    9.892565e-05
  1.004142e-01    9.762964e-05
  1.007131e-01    1.000673e-04
  1.010121e-01    9.897950e-05
  1.013110e-01    9.793638e-05
  1.016099e-01    9.934102e-05
  1.019089e-01    9.650266e-05
  1.022078e-01    9.565242e-05
  1.025067e-01    9.730693e-05
  1.028057e-01    9.669946e-05
  1.031046e-01    9.333017e-05
  1.034035e-01    9.581422e-05
  1.037024e-01    9.863209e-05
  1.040014e-01    9.726699e-05
  1.043003e-01    9.836275e-05
  1.045992e-01    9.813895e-05
  1.048982e-01    9.515335e-05
  1.051971e-01    9.340845e-05
  1.054960e-01    9.408870e-05
  1.057950e-01    9.626766e-05
  1.060939e-01    9.437650e-05
  1.063928e-01    9.253653e-05
  1.066917e-01    9.238098e-05
  1.069907e-01    9.265084e-05
  1.072896e-01    9.436504e-05
  1.075885e-01    9.535612e-05
  1.078875e-01    9.369825e-05
  1.081864e-01    9.318926e-05
  1.084853e-01    9.245880e-05
  1.087843e-01    9.521773e-05
  1.090832e-01    9.614962e-05
  1.093821e-01    9.304168e-05
  1.096810e-01    9.176823e-05
  1.099800e-01    9.320991e-05
  1.102789e-01    9.087670e-05
  1.105778e-01    9.216036e-05
  1.108768e-01    9.379205e-05
  1.111757e-01    9.547577e-05
  1.114746e-01    9.428250e-05
  1.117736e-01    9.078061e-05
  1.120725e-01    9.241671e-05
  1.123714e-01    9.208995e-05
  1.126704e-01    9.007063e-05
  1.129693e-01    9.100908e-05
  1.132682e-01    9.072157e-05
  1.135671e-01    9.249227e-05
  1.138661e-01    9.094262e-05
  1.141650e-01    9.029332e-05
  1.144639e-01    8.852845e-05
  1.147629e-01    8.627734e-05
  1.150618e-01    8.749055e-05
  1.153607e-01    9.173452e-05
  1.156597e-01    8.767996e-05
  1.159586e-01    8.507541e-05
  1.162575e-01    8.521965e-05
  1.165564e-01    8.729282e-05
  1.168554e-01    9.047537e-05
  1.171543e-01    8.787904e-05
  1.174532e-01    8.486955e-05
  1.177522e-01    8.436562e-05
  1.180511e-01    8.426307e-05
  1.183500e-01    8.663729e-05
  1.186490e-01    8.530240e-05
  1.189479e-01    8.023818e-05
  1.192468e-01    8.165546e-05
  1.195458e-01    8.921095e-05
  1.198447e-01    9.413576e-05
  1.201436e-01    8.303252e-05
  1.204425e-01    7.940149e-05
  1.207415e-01    1.262450e-04
  1.210404e-01    1.880056e-04
  1.213393e-01    0.000000e+00
  1.216383e-01    0.000000e+00
  1.219372e-01    0.000000e+00
  1.222361e-01    0.000000e+00
  1.225351e-01    0.000000e+00
  1.228340e-01    0.000000e+00
  1.231329e-01    0.000000e+00
  1.234318e-01    0.000000e+00
  1.237308e-01    0.000000e+00
  1.240297e-01    0.000000e+00
  1.243286e-01    0.000000e+00
  1.246276e-01    0.000000e+00
  1.249265e-01    0.000000e+00
  1.252254e-01    0.000000e+00
  1.255244e-01    0.000000e+00
  1.258233e-01    0.000000e+00
  1.261222e-01    0.000000e+00
  1.264212e-01    0.000000e+00
  1.267201e-01    0.000000e+00
  1.270190e-01    0.000000e+00
  1.273179e-01    0.000000e+00
  1.276169e-01    0.000000e+00
  1.279158e-01    0.000000e+00
  1.282147e-01    0.000000e+00
  1.285137e-01    0.000000e+00
  1.288126e-01    0.000000e+00
  1.291115e-01    0.000000e+00
  1.294105e-01    0.000000e+00
  1.297094e-01    0.000000e+00
  1.300083e-01    0.000000e+00
  1.303072e-01    0.000000e+00
  1.306062e-01    0.000000e+00
  1.309051e-01    0.000000e+00
  1.312040e-01    0.000000e+00
  1.315030e-01    0.000000e+00
  1.318019e-01    0.000000e+00
  1.321008e-01    0.000000e+00
  1.323998e-01    0.000000e+00
  1.326987e-01    0.000000e+00
  1.329976e-01    0.000000e+00
  1.332965e-01    0.000000e+00
  1.335955e-01    0.000000e+00
  1.338944e-01    0.000000e+00
  1.341933e-01    0.000000e+00
  1.344923e-01    0.000000e+00
  1.347912e-01    0.000000e+00
  1.350901e-01    0.000000e+00
  1.353891e-01    0.000000e+00
  1.356880e-01    0.000000e+00
  1.359869e-01    0.000000e+00
  1.362859e-01    0.000000e+00
  1.365848e-01    0.000000e+00
  1.368837e-01    0.000000e+00
  1.371826e-01    0.000000e+00
  1.374816e-01    0.000000e+00
  1.377805e-01    0.000000e+00
  1.380794e-01    0.000000e+00
  1.383784e-01    0.000000e+00
  1.386773e-01    0.000000e+00
  1.389762e-01    0.000000e+00
  1.392752e-01    0.000000e+00
  1.395741e-01    0.000000e+00
  1.398730e-01    0.000000e+00
  1.401719e-01    0.000000e+00
  1.404709e-01    0.000000e+00
  1.407698e-01    0.000000e+00
  1.410687e-01    0.000000e+00
  1.413677e-01    0.000000e+00
  1.416666e-01    0.000000e+00
  1.419655e-01    0.000000e+00
  1.422645e-01    0.000000e+00
  1.425634e-01    0.000000e+00
  1.428623e-01    0.000000e+00
  1.431613e-01    0.000000e+00
  1.434602e-01    0.000000e+00
  1.437591e-01    0.000000e+00
  1.440580e-01    0.000000e+00
  1.443570e-01    0.000000e+00
  1.446559e-01    0.000000e+00
  1.449548e-01    0.000000e+00
  1.452538e-01    0.000000e+00
  1.455527e-01    0.000000e+00
  1.458516e-01    0.000000e+00
  1.461506e-01    0.000000e+00
  1.464495e-01    0.000000e+00
  1.467484e-01    0.000000e+00
  1.470473e-01    0.000000e+00
  1.473463e-01    0.000000e+00
  1.476452e-01    0.000000e+00
  1.479441e-01    0.000000e+00
  1.482431e-01    0.000000e+00
  1.485420e-01    0.000000e+00
  1.488409e-01    0.000000e+00
  1.491399e-01    0.000000e+00
  1.494388e-01    0.000000e+00
  1.497377e-01    0.000000e+00
  1.500367e-01    0.000000e+00
  1.503356e-01    0.000000e+00
  1.506345e-01    0.000000e+00
  1.509334e-01    0.000000e+00
  1.512324e-01    0.000000e+00
  1.515313e-01    0.000000e+00
  1.518302e-01    0.000000e+00
  1.521292e-01    0.000000e+00
  1.524281e-01    0.000000e+00
  1.527270e-01    0.000000e+00
  1.530260e-01    0.000000e+00
  1.533249e-01    0.000000e+00
  1.536238e-01    0.000000e+00
