# == pyFAI calibration ==
# Distance Sample to Detector: 2.266 m
# PONI: 5.659e-02, 4.293e-02 m
# Rotations: 0.000000 0.000000 0.000000 rad
# 
# == Fit2d calibration ==
# Distance Sample-beamCenter: 2266.000 mm
# Center: x=249.594, y=329.012 pix
# Tilt: 0.000 deg  TiltPlanRot: 0.000 deg
# 
# Detector Pilatus 300k	 PixelSize= 1.720e-04, 1.720e-04 m
#    Detector has a mask: True 
#    Detector has a dark current: False 
#    detector has a flat field: False 
# 
# Wavelength: 1.27818e-10 m
# Mask applied: user provided
# Dark current applied: False
# Flat field applied: False
# Polarization factor: None
# Normalization factor: 11904.51
# --> latex_CL3252_TiO2_R706_phiT_0.110_PVC_0.200_DOP_0.010_0_r1d.csv
#        q_A^-1             I 
  4.457554e-03    1.875080e-01
  4.756484e-03    1.504582e-01
  5.055415e-03    1.094500e-01
  5.354345e-03    7.696841e-02
  5.653276e-03    6.071298e-02
  5.952206e-03    9.959169e-02
  6.251136e-03    9.063122e-02
  6.550067e-03    7.769627e-02
  6.848997e-03    6.561977e-02
  7.147927e-03    5.535414e-02
  7.446858e-03    4.714940e-02
  7.745788e-03    4.056927e-02
  8.044719e-03    3.498575e-02
  8.343649e-03    3.044014e-02
  8.642579e-03    2.662010e-02
  8.941510e-03    2.361210e-02
  9.240440e-03    2.080606e-02
  9.539371e-03    1.832593e-02
  9.838301e-03    1.634587e-02
  1.013723e-02    1.474567e-02
  1.043616e-02    1.329847e-02
  1.073509e-02    1.191974e-02
  1.103402e-02    1.079522e-02
  1.133295e-02    9.785810e-03
  1.163188e-02    8.958881e-03
  1.193081e-02    8.202952e-03
  1.222974e-02    7.364665e-03
  1.252867e-02    6.760987e-03
  1.282760e-02    6.291557e-03
  1.312654e-02    5.771445e-03
  1.342547e-02    5.409253e-03
  1.372440e-02    5.016705e-03
  1.402333e-02    4.616120e-03
  1.432226e-02    4.309027e-03
  1.462119e-02    4.011399e-03
  1.492012e-02    3.782936e-03
  1.521905e-02    3.544796e-03
  1.551798e-02    3.269269e-03
  1.581691e-02    3.069013e-03
  1.611584e-02    2.919778e-03
  1.641477e-02    2.773028e-03
  1.671370e-02    2.608622e-03
  1.701263e-02    2.414352e-03
  1.731156e-02    2.298722e-03
  1.761049e-02    2.199257e-03
  1.790942e-02    2.105619e-03
  1.820835e-02    2.013822e-03
  1.850728e-02    1.903556e-03
  1.880621e-02    1.826308e-03
  1.910514e-02    1.748390e-03
  1.940407e-02    1.667598e-03
  1.970300e-02    1.593427e-03
  2.000193e-02    1.540061e-03
  2.030086e-02    1.494154e-03
  2.059979e-02    1.449244e-03
  2.089873e-02    1.376474e-03
  2.119766e-02    1.314554e-03
  2.149659e-02    1.289277e-03
  2.179552e-02    1.259816e-03
  2.209445e-02    1.200084e-03
  2.239338e-02    1.162375e-03
  2.269231e-02    1.123412e-03
  2.299124e-02    1.106881e-03
  2.329017e-02    1.082208e-03
  2.358910e-02    1.052011e-03
  2.388803e-02    1.021143e-03
  2.418696e-02    9.943433e-04
  2.448589e-02    9.731353e-04
  2.478482e-02    9.611811e-04
  2.508375e-02    9.422236e-04
  2.538268e-02    9.174502e-04
  2.568161e-02    8.912606e-04
  2.598054e-02    8.718807e-04
  2.627947e-02    8.580779e-04
  2.657840e-02    8.546695e-04
  2.687733e-02    8.445681e-04
  2.717626e-02    8.086723e-04
  2.747519e-02    7.843834e-04
  2.777412e-02    7.861646e-04
  2.807305e-02    7.911169e-04
  2.837198e-02    7.798926e-04
  2.867092e-02    7.636176e-04
  2.896985e-02    7.474775e-04
  2.926878e-02    7.313637e-04
  2.956771e-02    7.404648e-04
  2.986664e-02    7.263779e-04
  3.016557e-02    7.014998e-04
  3.046450e-02    6.976159e-04
  3.076343e-02    6.943567e-04
  3.106236e-02    6.846886e-04
  3.136129e-02    6.848180e-04
  3.166022e-02    6.782202e-04
  3.195915e-02    6.616613e-04
  3.225808e-02    6.482329e-04
  3.255701e-02    6.491938e-04
  3.285594e-02    6.501668e-04
  3.315487e-02    6.457098e-04
  3.345380e-02    6.438397e-04
  3.375273e-02    6.368179e-04
  3.405166e-02    6.277553e-04
  3.435059e-02    6.230783e-04
  3.464952e-02    6.207260e-04
  3.494845e-02    6.227529e-04
  3.524738e-02    6.058724e-04
  3.554631e-02    6.014099e-04
  3.584524e-02    6.124403e-04
  3.614417e-02    5.800377e-04
  3.644310e-02    5.738174e-04
  3.674204e-02    5.810380e-04
  3.704097e-02    5.723960e-04
  3.733990e-02    5.683781e-04
  3.763883e-02    5.658685e-04
  3.793776e-02    5.705294e-04
  3.823669e-02    5.761698e-04
  3.853562e-02    5.687157e-04
  3.883455e-02    5.474775e-04
  3.913348e-02    5.471841e-04
  3.943241e-02    5.490017e-04
  3.973134e-02    5.605346e-04
  4.003027e-02    5.523441e-04
  4.032920e-02    5.432482e-04
  4.062813e-02    5.396611e-04
  4.092706e-02    5.355790e-04
  4.122599e-02    5.306387e-04
  4.152492e-02    5.351920e-04
  4.182385e-02    5.357685e-04
  4.212278e-02    5.374215e-04
  4.242171e-02    5.392994e-04
  4.272064e-02    5.299278e-04
  4.301957e-02    5.361404e-04
  4.331850e-02    5.297590e-04
  4.361743e-02    5.240739e-04
  4.391636e-02    5.253952e-04
  4.421529e-02    5.322061e-04
  4.451423e-02    5.231091e-04
  4.481316e-02    5.212380e-04
  4.511209e-02    5.262959e-04
  4.541102e-02    5.278427e-04
  4.570995e-02    5.221884e-04
  4.600888e-02    5.165926e-04
  4.630781e-02    5.248009e-04
  4.660674e-02    5.190775e-04
  4.690567e-02    5.216522e-04
  4.720460e-02    5.152399e-04
  4.750353e-02    5.130114e-04
  4.780246e-02    5.192127e-04
  4.810139e-02    5.137670e-04
  4.840032e-02    5.153079e-04
  4.869925e-02    5.107528e-04
  4.899818e-02    5.064668e-04
  4.929711e-02    5.126341e-04
  4.959604e-02    5.170073e-04
  4.989497e-02    5.123365e-04
  5.019390e-02    5.198576e-04
  5.049283e-02    5.187585e-04
  5.079176e-02    5.210206e-04
  5.109069e-02    5.193221e-04
  5.138962e-02    5.235228e-04
  5.168855e-02    5.273110e-04
  5.198748e-02    5.289529e-04
  5.228642e-02    5.350783e-04
  5.258535e-02    5.287143e-04
  5.288428e-02    5.267748e-04
  5.318321e-02    5.218146e-04
  5.348214e-02    5.227622e-04
  5.378107e-02    5.168731e-04
  5.408000e-02    5.176843e-04
  5.437893e-02    5.233383e-04
  5.467786e-02    5.151184e-04
  5.497679e-02    5.193125e-04
  5.527572e-02    5.172018e-04
  5.557465e-02    5.128357e-04
  5.587358e-02    5.229533e-04
  5.617251e-02    5.280526e-04
  5.647144e-02    5.260552e-04
  5.677037e-02    5.241455e-04
  5.706930e-02    5.245545e-04
  5.736823e-02    5.262831e-04
  5.766716e-02    5.331858e-04
  5.796609e-02    5.348539e-04
  5.826502e-02    5.315199e-04
  5.856395e-02    5.196328e-04
  5.886288e-02    5.297154e-04
  5.916181e-02    5.315481e-04
  5.946074e-02    5.300273e-04
  5.975967e-02    5.311260e-04
  6.005861e-02    5.393657e-04
  6.035754e-02    5.330988e-04
  6.065647e-02    5.323190e-04
  6.095540e-02    5.336745e-04
  6.125433e-02    5.410091e-04
  6.155326e-02    5.513061e-04
  6.185219e-02    5.495501e-04
  6.215112e-02    5.388217e-04
  6.245005e-02    5.333101e-04
  6.274898e-02    5.353187e-04
  6.304791e-02    5.320621e-04
  6.334684e-02    5.364915e-04
  6.364577e-02    5.356204e-04
  6.394470e-02    5.435676e-04
  6.424363e-02    5.417470e-04
  6.454256e-02    5.364875e-04
  6.484149e-02    5.351233e-04
  6.514042e-02    5.360177e-04
  6.543935e-02    5.370593e-04
  6.573828e-02    5.425253e-04
  6.603721e-02    5.494665e-04
  6.633614e-02    5.480429e-04
  6.663507e-02    5.463187e-04
  6.693400e-02    5.493551e-04
  6.723293e-02    5.510909e-04
  6.753186e-02    5.470115e-04
  6.783080e-02    5.540142e-04
  6.812973e-02    5.519164e-04
  6.842866e-02    5.556037e-04
  6.872759e-02    5.590273e-04
  6.902652e-02    5.607657e-04
  6.932545e-02    5.594844e-04
  6.962438e-02    5.621767e-04
  6.992331e-02    5.618784e-04
  7.022224e-02    5.560601e-04
  7.052117e-02    5.504530e-04
  7.082010e-02    5.579466e-04
  7.111903e-02    5.611812e-04
  7.141796e-02    5.544089e-04
  7.171689e-02    5.563688e-04
  7.201582e-02    5.566339e-04
  7.231475e-02    5.578573e-04
  7.261368e-02    5.652385e-04
  7.291261e-02    5.566546e-04
  7.321154e-02    5.529003e-04
  7.351047e-02    5.559620e-04
  7.380940e-02    5.707752e-04
  7.410833e-02    5.603191e-04
  7.440726e-02    5.508212e-04
  7.470619e-02    5.535003e-04
  7.500512e-02    5.591463e-04
  7.530405e-02    5.651339e-04
  7.560299e-02    5.685720e-04
  7.590192e-02    5.718571e-04
  7.620085e-02    5.586747e-04
  7.649978e-02    5.513409e-04
  7.679871e-02    5.559859e-04
  7.709764e-02    5.519669e-04
  7.739657e-02    5.539695e-04
  7.769550e-02    5.649321e-04
  7.799443e-02    5.677078e-04
  7.829336e-02    5.530391e-04
  7.859229e-02    5.529193e-04
  7.889122e-02    5.603122e-04
  7.919015e-02    5.591027e-04
  7.948908e-02    5.566371e-04
  7.978801e-02    5.589627e-04
  8.008694e-02    5.560660e-04
  8.038587e-02    5.562911e-04
  8.068480e-02    5.573178e-04
  8.098373e-02    5.524682e-04
  8.128266e-02    5.501467e-04
  8.158159e-02    5.562649e-04
  8.188052e-02    5.533434e-04
  8.217945e-02    5.545035e-04
  8.247838e-02    5.501040e-04
  8.277731e-02    5.501326e-04
  8.307624e-02    5.524539e-04
  8.337518e-02    5.474054e-04
  8.367411e-02    5.522156e-04
  8.397304e-02    5.513560e-04
  8.427197e-02    5.532308e-04
  8.457090e-02    5.475650e-04
  8.486983e-02    5.401061e-04
  8.516876e-02    5.376288e-04
  8.546769e-02    5.373621e-04
  8.576662e-02    5.381257e-04
  8.606555e-02    5.322747e-04
  8.636448e-02    5.343166e-04
  8.666341e-02    5.515832e-04
  8.696234e-02    5.454848e-04
  8.726127e-02    5.381262e-04
  8.756020e-02    5.403794e-04
  8.785913e-02    5.415393e-04
  8.815806e-02    5.394221e-04
  8.845699e-02    5.371762e-04
  8.875592e-02    5.346285e-04
  8.905485e-02    5.291556e-04
  8.935378e-02    5.281929e-04
  8.965271e-02    5.225730e-04
  8.995164e-02    5.173581e-04
  9.025057e-02    5.212584e-04
  9.054950e-02    5.196630e-04
  9.084843e-02    5.282303e-04
  9.114737e-02    5.272106e-04
  9.144630e-02    5.200388e-04
  9.174523e-02    5.265765e-04
  9.204416e-02    5.275391e-04
  9.234309e-02    5.194024e-04
  9.264202e-02    5.126278e-04
  9.294095e-02    5.065837e-04
  9.323988e-02    5.125435e-04
  9.353881e-02    5.110105e-04
  9.383774e-02    5.109257e-04
  9.413667e-02    5.193265e-04
  9.443560e-02    5.199517e-04
  9.473453e-02    5.143338e-04
  9.503346e-02    5.109183e-04
  9.533239e-02    5.092307e-04
  9.563132e-02    5.106368e-04
  9.593025e-02    5.154801e-04
  9.622918e-02    5.093360e-04
  9.652811e-02    5.032339e-04
  9.682704e-02    5.164515e-04
  9.712597e-02    5.104118e-04
  9.742490e-02    5.054597e-04
  9.772383e-02    5.036964e-04
  9.802276e-02    5.075148e-04
  9.832169e-02    5.104435e-04
  9.862062e-02    4.989497e-04
  9.891956e-02    4.885641e-04
  9.921849e-02    4.904210e-04
  9.951742e-02    4.914572e-04
  9.981635e-02    4.958052e-04
  1.001153e-01    4.975220e-04
  1.004142e-01    5.006446e-04
  1.007131e-01    4.997140e-04
  1.010121e-01    5.025584e-04
  1.013110e-01    4.998725e-04
  1.016099e-01    4.941154e-04
  1.019089e-01    4.848808e-04
  1.022078e-01    4.893221e-04
  1.025067e-01    4.889802e-04
  1.028057e-01    4.885049e-04
  1.031046e-01    4.809518e-04
  1.034035e-01    4.759271e-04
  1.037024e-01    4.784130e-04
  1.040014e-01    4.848820e-04
  1.043003e-01    4.888258e-04
  1.045992e-01    4.841022e-04
  1.048982e-01    4.803653e-04
  1.051971e-01    4.720844e-04
  1.054960e-01    4.731379e-04
  1.057950e-01    4.748964e-04
  1.060939e-01    4.732867e-04
  1.063928e-01    4.702520e-04
  1.066917e-01    4.707689e-04
  1.069907e-01    4.761992e-04
  1.072896e-01    4.764718e-04
  1.075885e-01    4.675533e-04
  1.078875e-01    4.728588e-04
  1.081864e-01    4.736847e-04
  1.084853e-01    4.757451e-04
  1.087843e-01    4.783772e-04
  1.090832e-01    4.797012e-04
  1.093821e-01    4.732964e-04
  1.096810e-01    4.664544e-04
  1.099800e-01    4.741483e-04
  1.102789e-01    4.716153e-04
  1.105778e-01    4.643956e-04
  1.108768e-01    4.637516e-04
  1.111757e-01    4.650668e-04
  1.114746e-01    4.688461e-04
  1.117736e-01    4.596160e-04
  1.120725e-01    4.493321e-04
  1.123714e-01    4.496547e-04
  1.126704e-01    4.569906e-04
  1.129693e-01    4.544237e-04
  1.132682e-01    4.397720e-04
  1.135671e-01    4.445185e-04
  1.138661e-01    4.457578e-04
  1.141650e-01    4.279990e-04
  1.144639e-01    4.406272e-04
  1.147629e-01    4.531129e-04
  1.150618e-01    4.643968e-04
  1.153607e-01    4.596393e-04
  1.156597e-01    4.517123e-04
  1.159586e-01    4.551400e-04
  1.162575e-01    4.504010e-04
  1.165564e-01    4.429077e-04
  1.168554e-01    4.544511e-04
  1.171543e-01    4.544730e-04
  1.174532e-01    4.407772e-04
  1.177522e-01    4.471876e-04
  1.180511e-01    4.685233e-04
  1.183500e-01    4.743987e-04
  1.186490e-01    4.556102e-04
  1.189479e-01    4.664298e-04
  1.192468e-01    4.763442e-04
  1.195458e-01    4.360130e-04
  1.198447e-01    4.245216e-04
  1.201436e-01    4.490508e-04
  1.204425e-01    4.941003e-04
  1.207415e-01    4.561961e-04
  1.210404e-01    2.522336e-04
  1.213393e-01    0.000000e+00
  1.216383e-01    0.000000e+00
  1.219372e-01    0.000000e+00
  1.222361e-01    0.000000e+00
  1.225351e-01    0.000000e+00
  1.228340e-01    0.000000e+00
  1.231329e-01    0.000000e+00
  1.234318e-01    0.000000e+00
  1.237308e-01    0.000000e+00
  1.240297e-01    0.000000e+00
  1.243286e-01    0.000000e+00
  1.246276e-01    0.000000e+00
  1.249265e-01    0.000000e+00
  1.252254e-01    0.000000e+00
  1.255244e-01    0.000000e+00
  1.258233e-01    0.000000e+00
  1.261222e-01    0.000000e+00
  1.264212e-01    0.000000e+00
  1.267201e-01    0.000000e+00
  1.270190e-01    0.000000e+00
  1.273179e-01    0.000000e+00
  1.276169e-01    0.000000e+00
  1.279158e-01    0.000000e+00
  1.282147e-01    0.000000e+00
  1.285137e-01    0.000000e+00
  1.288126e-01    0.000000e+00
  1.291115e-01    0.000000e+00
  1.294105e-01    0.000000e+00
  1.297094e-01    0.000000e+00
  1.300083e-01    0.000000e+00
  1.303072e-01    0.000000e+00
  1.306062e-01    0.000000e+00
  1.309051e-01    0.000000e+00
  1.312040e-01    0.000000e+00
  1.315030e-01    0.000000e+00
  1.318019e-01    0.000000e+00
  1.321008e-01    0.000000e+00
  1.323998e-01    0.000000e+00
  1.326987e-01    0.000000e+00
  1.329976e-01    0.000000e+00
  1.332965e-01    0.000000e+00
  1.335955e-01    0.000000e+00
  1.338944e-01    0.000000e+00
  1.341933e-01    0.000000e+00
  1.344923e-01    0.000000e+00
  1.347912e-01    0.000000e+00
  1.350901e-01    0.000000e+00
  1.353891e-01    0.000000e+00
  1.356880e-01    0.000000e+00
  1.359869e-01    0.000000e+00
  1.362859e-01    0.000000e+00
  1.365848e-01    0.000000e+00
  1.368837e-01    0.000000e+00
  1.371826e-01    0.000000e+00
  1.374816e-01    0.000000e+00
  1.377805e-01    0.000000e+00
  1.380794e-01    0.000000e+00
  1.383784e-01    0.000000e+00
  1.386773e-01    0.000000e+00
  1.389762e-01    0.000000e+00
  1.392752e-01    0.000000e+00
  1.395741e-01    0.000000e+00
  1.398730e-01    0.000000e+00
  1.401719e-01    0.000000e+00
  1.404709e-01    0.000000e+00
  1.407698e-01    0.000000e+00
  1.410687e-01    0.000000e+00
  1.413677e-01    0.000000e+00
  1.416666e-01    0.000000e+00
  1.419655e-01    0.000000e+00
  1.422645e-01    0.000000e+00
  1.425634e-01    0.000000e+00
  1.428623e-01    0.000000e+00
  1.431613e-01    0.000000e+00
  1.434602e-01    0.000000e+00
  1.437591e-01    0.000000e+00
  1.440580e-01    0.000000e+00
  1.443570e-01    0.000000e+00
  1.446559e-01    0.000000e+00
  1.449548e-01    0.000000e+00
  1.452538e-01    0.000000e+00
  1.455527e-01    0.000000e+00
  1.458516e-01    0.000000e+00
  1.461506e-01    0.000000e+00
  1.464495e-01    0.000000e+00
  1.467484e-01    0.000000e+00
  1.470473e-01    0.000000e+00
  1.473463e-01    0.000000e+00
  1.476452e-01    0.000000e+00
  1.479441e-01    0.000000e+00
  1.482431e-01    0.000000e+00
  1.485420e-01    0.000000e+00
  1.488409e-01    0.000000e+00
  1.491399e-01    0.000000e+00
  1.494388e-01    0.000000e+00
  1.497377e-01    0.000000e+00
  1.500367e-01    0.000000e+00
  1.503356e-01    0.000000e+00
  1.506345e-01    0.000000e+00
  1.509334e-01    0.000000e+00
  1.512324e-01    0.000000e+00
  1.515313e-01    0.000000e+00
  1.518302e-01    0.000000e+00
  1.521292e-01    0.000000e+00
  1.524281e-01    0.000000e+00
  1.527270e-01    0.000000e+00
  1.530260e-01    0.000000e+00
  1.533249e-01    0.000000e+00
  1.536238e-01    0.000000e+00
