# == pyFAI calibration ==
# Distance Sample to Detector: 2.266 m
# PONI: 5.659e-02, 4.293e-02 m
# Rotations: 0.000000 0.000000 0.000000 rad
# 
# == Fit2d calibration ==
# Distance Sample-beamCenter: 2266.000 mm
# Center: x=249.594, y=329.012 pix
# Tilt: 0.000 deg  TiltPlanRot: 0.000 deg
# 
# Detector Pilatus 300k	 PixelSize= 1.720e-04, 1.720e-04 m
#    Detector has a mask: True 
#    Detector has a dark current: False 
#    detector has a flat field: False 
# 
# Wavelength: 1.27818e-10 m
# Mask applied: user provided
# Dark current applied: False
# Flat field applied: False
# Polarization factor: None
# Normalization factor: 57022.99000000001
# --> latex_CL3252_TiO2_R706_phiT_0.070_PVC_0.200_DOP_0.020_1_r1d.csv
#        q_A^-1             I 
  4.457554e-03    4.098288e-02
  4.756484e-03    3.256434e-02
  5.055415e-03    2.405753e-02
  5.354345e-03    1.757984e-02
  5.653276e-03    1.375936e-02
  5.952206e-03    2.344762e-02
  6.251136e-03    2.123559e-02
  6.550067e-03    1.817684e-02
  6.848997e-03    1.530546e-02
  7.147927e-03    1.288846e-02
  7.446858e-03    1.093829e-02
  7.745788e-03    9.323130e-03
  8.044719e-03    8.006305e-03
  8.343649e-03    6.923471e-03
  8.642579e-03    6.039105e-03
  8.941510e-03    5.296410e-03
  9.240440e-03    4.643947e-03
  9.539371e-03    4.101664e-03
  9.838301e-03    3.639629e-03
  1.013723e-02    3.253417e-03
  1.043616e-02    2.900520e-03
  1.073509e-02    2.593336e-03
  1.103402e-02    2.356193e-03
  1.133295e-02    2.120374e-03
  1.163188e-02    1.923748e-03
  1.193081e-02    1.767676e-03
  1.222974e-02    1.604559e-03
  1.252867e-02    1.470782e-03
  1.282760e-02    1.359100e-03
  1.312654e-02    1.251291e-03
  1.342547e-02    1.136831e-03
  1.372440e-02    1.053094e-03
  1.402333e-02    9.869518e-04
  1.432226e-02    9.124208e-04
  1.462119e-02    8.446217e-04
  1.492012e-02    7.907022e-04
  1.521905e-02    7.377393e-04
  1.551798e-02    6.928683e-04
  1.581691e-02    6.466868e-04
  1.611584e-02    6.037041e-04
  1.641477e-02    5.699914e-04
  1.671370e-02    5.381656e-04
  1.701263e-02    5.004317e-04
  1.731156e-02    4.815514e-04
  1.761049e-02    4.595902e-04
  1.790942e-02    4.247091e-04
  1.820835e-02    4.091670e-04
  1.850728e-02    4.005966e-04
  1.880621e-02    3.764293e-04
  1.910514e-02    3.574599e-04
  1.940407e-02    3.394887e-04
  1.970300e-02    3.248915e-04
  2.000193e-02    3.137224e-04
  2.030086e-02    2.972466e-04
  2.059979e-02    2.840995e-04
  2.089873e-02    2.786043e-04
  2.119766e-02    2.707066e-04
  2.149659e-02    2.613254e-04
  2.179552e-02    2.528862e-04
  2.209445e-02    2.443790e-04
  2.239338e-02    2.366225e-04
  2.269231e-02    2.296738e-04
  2.299124e-02    2.242254e-04
  2.329017e-02    2.193250e-04
  2.358910e-02    2.092388e-04
  2.388803e-02    2.042880e-04
  2.418696e-02    2.028899e-04
  2.448589e-02    1.980334e-04
  2.478482e-02    1.923038e-04
  2.508375e-02    1.866511e-04
  2.538268e-02    1.836345e-04
  2.568161e-02    1.764992e-04
  2.598054e-02    1.736191e-04
  2.627947e-02    1.709689e-04
  2.657840e-02    1.689838e-04
  2.687733e-02    1.662357e-04
  2.717626e-02    1.647016e-04
  2.747519e-02    1.568339e-04
  2.777412e-02    1.522995e-04
  2.807305e-02    1.518112e-04
  2.837198e-02    1.490607e-04
  2.867092e-02    1.487486e-04
  2.896985e-02    1.479217e-04
  2.926878e-02    1.471997e-04
  2.956771e-02    1.424536e-04
  2.986664e-02    1.413671e-04
  3.016557e-02    1.419462e-04
  3.046450e-02    1.406081e-04
  3.076343e-02    1.371126e-04
  3.106236e-02    1.330868e-04
  3.136129e-02    1.345742e-04
  3.166022e-02    1.362011e-04
  3.195915e-02    1.332838e-04
  3.225808e-02    1.310395e-04
  3.255701e-02    1.284121e-04
  3.285594e-02    1.274352e-04
  3.315487e-02    1.244938e-04
  3.345380e-02    1.223274e-04
  3.375273e-02    1.199602e-04
  3.405166e-02    1.220726e-04
  3.435059e-02    1.223991e-04
  3.464952e-02    1.201889e-04
  3.494845e-02    1.180434e-04
  3.524738e-02    1.170181e-04
  3.554631e-02    1.153289e-04
  3.584524e-02    1.149207e-04
  3.614417e-02    1.151107e-04
  3.644310e-02    1.129598e-04
  3.674204e-02    1.112529e-04
  3.704097e-02    1.114356e-04
  3.733990e-02    1.090001e-04
  3.763883e-02    1.089261e-04
  3.793776e-02    1.083335e-04
  3.823669e-02    1.086571e-04
  3.853562e-02    1.099619e-04
  3.883455e-02    1.094033e-04
  3.913348e-02    1.082139e-04
  3.943241e-02    1.056408e-04
  3.973134e-02    1.067615e-04
  4.003027e-02    1.067219e-04
  4.032920e-02    1.059625e-04
  4.062813e-02    1.028890e-04
  4.092706e-02    1.006987e-04
  4.122599e-02    1.028465e-04
  4.152492e-02    1.019413e-04
  4.182385e-02    1.029812e-04
  4.212278e-02    1.024192e-04
  4.242171e-02    1.031680e-04
  4.272064e-02    1.029348e-04
  4.301957e-02    1.039375e-04
  4.331850e-02    1.012295e-04
  4.361743e-02    1.013637e-04
  4.391636e-02    1.016713e-04
  4.421529e-02    1.010402e-04
  4.451423e-02    1.022682e-04
  4.481316e-02    1.039808e-04
  4.511209e-02    1.015421e-04
  4.541102e-02    1.012576e-04
  4.570995e-02    1.021695e-04
  4.600888e-02    1.017356e-04
  4.630781e-02    9.904131e-05
  4.660674e-02    9.963708e-05
  4.690567e-02    9.919825e-05
  4.720460e-02    9.906155e-05
  4.750353e-02    1.001738e-04
  4.780246e-02    9.973825e-05
  4.810139e-02    9.842727e-05
  4.840032e-02    9.857618e-05
  4.869925e-02    9.898476e-05
  4.899818e-02    1.001629e-04
  4.929711e-02    1.007465e-04
  4.959604e-02    1.013274e-04
  4.989497e-02    1.004839e-04
  5.019390e-02    9.938217e-05
  5.049283e-02    9.986205e-05
  5.079176e-02    1.000533e-04
  5.109069e-02    1.012586e-04
  5.138962e-02    1.019628e-04
  5.168855e-02    1.015163e-04
  5.198748e-02    1.040461e-04
  5.228642e-02    1.044737e-04
  5.258535e-02    1.010549e-04
  5.288428e-02    9.908287e-05
  5.318321e-02    9.885180e-05
  5.348214e-02    9.800884e-05
  5.378107e-02    9.908369e-05
  5.408000e-02    9.919424e-05
  5.437893e-02    9.967029e-05
  5.467786e-02    1.009396e-04
  5.497679e-02    1.006534e-04
  5.527572e-02    9.933781e-05
  5.557465e-02    1.015168e-04
  5.587358e-02    1.008021e-04
  5.617251e-02    1.005747e-04
  5.647144e-02    9.882572e-05
  5.677037e-02    1.008976e-04
  5.706930e-02    1.020522e-04
  5.736823e-02    1.015289e-04
  5.766716e-02    1.010917e-04
  5.796609e-02    1.022149e-04
  5.826502e-02    1.034757e-04
  5.856395e-02    1.028985e-04
  5.886288e-02    1.015528e-04
  5.916181e-02    1.028109e-04
  5.946074e-02    1.022807e-04
  5.975967e-02    1.035625e-04
  6.005861e-02    1.017377e-04
  6.035754e-02    1.006213e-04
  6.065647e-02    1.025486e-04
  6.095540e-02    1.015757e-04
  6.125433e-02    1.018895e-04
  6.155326e-02    1.038072e-04
  6.185219e-02    1.044282e-04
  6.215112e-02    1.040134e-04
  6.245005e-02    1.039486e-04
  6.274898e-02    1.029895e-04
  6.304791e-02    1.023717e-04
  6.334684e-02    1.040583e-04
  6.364577e-02    1.042386e-04
  6.394470e-02    1.046434e-04
  6.424363e-02    1.035564e-04
  6.454256e-02    1.035466e-04
  6.484149e-02    1.050374e-04
  6.514042e-02    1.056324e-04
  6.543935e-02    1.048904e-04
  6.573828e-02    1.065198e-04
  6.603721e-02    1.065130e-04
  6.633614e-02    1.070678e-04
  6.663507e-02    1.069891e-04
  6.693400e-02    1.055379e-04
  6.723293e-02    1.052734e-04
  6.753186e-02    1.063680e-04
  6.783080e-02    1.056289e-04
  6.812973e-02    1.058483e-04
  6.842866e-02    1.070909e-04
  6.872759e-02    1.067459e-04
  6.902652e-02    1.052970e-04
  6.932545e-02    1.046605e-04
  6.962438e-02    1.055583e-04
  6.992331e-02    1.062619e-04
  7.022224e-02    1.078986e-04
  7.052117e-02    1.076336e-04
  7.082010e-02    1.068616e-04
  7.111903e-02    1.050834e-04
  7.141796e-02    1.061256e-04
  7.171689e-02    1.073235e-04
  7.201582e-02    1.073391e-04
  7.231475e-02    1.064611e-04
  7.261368e-02    1.076788e-04
  7.291261e-02    1.083317e-04
  7.321154e-02    1.075661e-04
  7.351047e-02    1.068997e-04
  7.380940e-02    1.083261e-04
  7.410833e-02    1.085811e-04
  7.440726e-02    1.080844e-04
  7.470619e-02    1.088170e-04
  7.500512e-02    1.090554e-04
  7.530405e-02    1.071573e-04
  7.560299e-02    1.069247e-04
  7.590192e-02    1.083422e-04
  7.620085e-02    1.076872e-04
  7.649978e-02    1.071593e-04
  7.679871e-02    1.072832e-04
  7.709764e-02    1.084717e-04
  7.739657e-02    1.085070e-04
  7.769550e-02    1.065486e-04
  7.799443e-02    1.070410e-04
  7.829336e-02    1.082818e-04
  7.859229e-02    1.081787e-04
  7.889122e-02    1.068974e-04
  7.919015e-02    1.065221e-04
  7.948908e-02    1.055149e-04
  7.978801e-02    1.061890e-04
  8.008694e-02    1.065027e-04
  8.038587e-02    1.070043e-04
  8.068480e-02    1.057365e-04
  8.098373e-02    1.050141e-04
  8.128266e-02    1.052929e-04
  8.158159e-02    1.053937e-04
  8.188052e-02    1.056842e-04
  8.217945e-02    1.054557e-04
  8.247838e-02    1.044761e-04
  8.277731e-02    1.041012e-04
  8.307624e-02    1.051018e-04
  8.337518e-02    1.057743e-04
  8.367411e-02    1.044222e-04
  8.397304e-02    1.053133e-04
  8.427197e-02    1.054090e-04
  8.457090e-02    1.057944e-04
  8.486983e-02    1.045042e-04
  8.516876e-02    1.048621e-04
  8.546769e-02    1.055024e-04
  8.576662e-02    1.047772e-04
  8.606555e-02    1.029704e-04
  8.636448e-02    1.044535e-04
  8.666341e-02    1.059710e-04
  8.696234e-02    1.044992e-04
  8.726127e-02    1.052170e-04
  8.756020e-02    1.056640e-04
  8.785913e-02    1.030533e-04
  8.815806e-02    1.005234e-04
  8.845699e-02    1.014171e-04
  8.875592e-02    1.029091e-04
  8.905485e-02    1.020670e-04
  8.935378e-02    1.009811e-04
  8.965271e-02    1.003903e-04
  8.995164e-02    9.989357e-05
  9.025057e-02    1.005275e-04
  9.054950e-02    1.017221e-04
  9.084843e-02    1.007464e-04
  9.114737e-02    1.012013e-04
  9.144630e-02    1.009497e-04
  9.174523e-02    1.008206e-04
  9.204416e-02    1.020907e-04
  9.234309e-02    1.020310e-04
  9.264202e-02    1.007758e-04
  9.294095e-02    9.971768e-05
  9.323988e-02    9.918967e-05
  9.353881e-02    9.886247e-05
  9.383774e-02    9.908240e-05
  9.413667e-02    9.821585e-05
  9.443560e-02    9.739042e-05
  9.473453e-02    9.763140e-05
  9.503346e-02    9.903969e-05
  9.533239e-02    9.827730e-05
  9.563132e-02    9.754043e-05
  9.593025e-02    9.869843e-05
  9.622918e-02    9.785849e-05
  9.652811e-02    9.722349e-05
  9.682704e-02    9.754960e-05
  9.712597e-02    9.745878e-05
  9.742490e-02    9.734650e-05
  9.772383e-02    9.782715e-05
  9.802276e-02    9.663781e-05
  9.832169e-02    9.655307e-05
  9.862062e-02    9.568303e-05
  9.891956e-02    9.400911e-05
  9.921849e-02    9.464807e-05
  9.951742e-02    9.583447e-05
  9.981635e-02    9.624730e-05
  1.001153e-01    9.523336e-05
  1.004142e-01    9.494030e-05
  1.007131e-01    9.488460e-05
  1.010121e-01    9.460727e-05
  1.013110e-01    9.444615e-05
  1.016099e-01    9.610924e-05
  1.019089e-01    9.620017e-05
  1.022078e-01    9.522329e-05
  1.025067e-01    9.501874e-05
  1.028057e-01    9.278506e-05
  1.031046e-01    9.242069e-05
  1.034035e-01    9.402040e-05
  1.037024e-01    9.479370e-05
  1.040014e-01    9.425849e-05
  1.043003e-01    9.224460e-05
  1.045992e-01    9.160513e-05
  1.048982e-01    9.198856e-05
  1.051971e-01    9.202045e-05
  1.054960e-01    9.135166e-05
  1.057950e-01    9.205096e-05
  1.060939e-01    9.116462e-05
  1.063928e-01    9.042287e-05
  1.066917e-01    8.961369e-05
  1.069907e-01    9.048965e-05
  1.072896e-01    9.171758e-05
  1.075885e-01    9.159889e-05
  1.078875e-01    9.098294e-05
  1.081864e-01    9.037121e-05
  1.084853e-01    9.045582e-05
  1.087843e-01    8.933656e-05
  1.090832e-01    8.943238e-05
  1.093821e-01    8.886002e-05
  1.096810e-01    8.855233e-05
  1.099800e-01    8.940455e-05
  1.102789e-01    9.044578e-05
  1.105778e-01    8.896652e-05
  1.108768e-01    8.746451e-05
  1.111757e-01    8.847038e-05
  1.114746e-01    8.808722e-05
  1.117736e-01    8.533362e-05
  1.120725e-01    8.709055e-05
  1.123714e-01    8.630214e-05
  1.126704e-01    8.635872e-05
  1.129693e-01    8.797096e-05
  1.132682e-01    8.694859e-05
  1.135671e-01    8.639411e-05
  1.138661e-01    8.708280e-05
  1.141650e-01    8.420047e-05
  1.144639e-01    8.473619e-05
  1.147629e-01    8.622224e-05
  1.150618e-01    8.283758e-05
  1.153607e-01    8.302742e-05
  1.156597e-01    8.194438e-05
  1.159586e-01    8.324903e-05
  1.162575e-01    8.384580e-05
  1.165564e-01    8.568898e-05
  1.168554e-01    8.532217e-05
  1.171543e-01    8.411125e-05
  1.174532e-01    8.820175e-05
  1.177522e-01    8.806361e-05
  1.180511e-01    8.647351e-05
  1.183500e-01    8.614222e-05
  1.186490e-01    8.750598e-05
  1.189479e-01    8.345259e-05
  1.192468e-01    8.030413e-05
  1.195458e-01    7.890229e-05
  1.198447e-01    8.082707e-05
  1.201436e-01    7.963648e-05
  1.204425e-01    7.956229e-05
  1.207415e-01    1.071012e-04
  1.210404e-01    1.053160e-04
  1.213393e-01    0.000000e+00
  1.216383e-01    0.000000e+00
  1.219372e-01    0.000000e+00
  1.222361e-01    0.000000e+00
  1.225351e-01    0.000000e+00
  1.228340e-01    0.000000e+00
  1.231329e-01    0.000000e+00
  1.234318e-01    0.000000e+00
  1.237308e-01    0.000000e+00
  1.240297e-01    0.000000e+00
  1.243286e-01    0.000000e+00
  1.246276e-01    0.000000e+00
  1.249265e-01    0.000000e+00
  1.252254e-01    0.000000e+00
  1.255244e-01    0.000000e+00
  1.258233e-01    0.000000e+00
  1.261222e-01    0.000000e+00
  1.264212e-01    0.000000e+00
  1.267201e-01    0.000000e+00
  1.270190e-01    0.000000e+00
  1.273179e-01    0.000000e+00
  1.276169e-01    0.000000e+00
  1.279158e-01    0.000000e+00
  1.282147e-01    0.000000e+00
  1.285137e-01    0.000000e+00
  1.288126e-01    0.000000e+00
  1.291115e-01    0.000000e+00
  1.294105e-01    0.000000e+00
  1.297094e-01    0.000000e+00
  1.300083e-01    0.000000e+00
  1.303072e-01    0.000000e+00
  1.306062e-01    0.000000e+00
  1.309051e-01    0.000000e+00
  1.312040e-01    0.000000e+00
  1.315030e-01    0.000000e+00
  1.318019e-01    0.000000e+00
  1.321008e-01    0.000000e+00
  1.323998e-01    0.000000e+00
  1.326987e-01    0.000000e+00
  1.329976e-01    0.000000e+00
  1.332965e-01    0.000000e+00
  1.335955e-01    0.000000e+00
  1.338944e-01    0.000000e+00
  1.341933e-01    0.000000e+00
  1.344923e-01    0.000000e+00
  1.347912e-01    0.000000e+00
  1.350901e-01    0.000000e+00
  1.353891e-01    0.000000e+00
  1.356880e-01    0.000000e+00
  1.359869e-01    0.000000e+00
  1.362859e-01    0.000000e+00
  1.365848e-01    0.000000e+00
  1.368837e-01    0.000000e+00
  1.371826e-01    0.000000e+00
  1.374816e-01    0.000000e+00
  1.377805e-01    0.000000e+00
  1.380794e-01    0.000000e+00
  1.383784e-01    0.000000e+00
  1.386773e-01    0.000000e+00
  1.389762e-01    0.000000e+00
  1.392752e-01    0.000000e+00
  1.395741e-01    0.000000e+00
  1.398730e-01    0.000000e+00
  1.401719e-01    0.000000e+00
  1.404709e-01    0.000000e+00
  1.407698e-01    0.000000e+00
  1.410687e-01    0.000000e+00
  1.413677e-01    0.000000e+00
  1.416666e-01    0.000000e+00
  1.419655e-01    0.000000e+00
  1.422645e-01    0.000000e+00
  1.425634e-01    0.000000e+00
  1.428623e-01    0.000000e+00
  1.431613e-01    0.000000e+00
  1.434602e-01    0.000000e+00
  1.437591e-01    0.000000e+00
  1.440580e-01    0.000000e+00
  1.443570e-01    0.000000e+00
  1.446559e-01    0.000000e+00
  1.449548e-01    0.000000e+00
  1.452538e-01    0.000000e+00
  1.455527e-01    0.000000e+00
  1.458516e-01    0.000000e+00
  1.461506e-01    0.000000e+00
  1.464495e-01    0.000000e+00
  1.467484e-01    0.000000e+00
  1.470473e-01    0.000000e+00
  1.473463e-01    0.000000e+00
  1.476452e-01    0.000000e+00
  1.479441e-01    0.000000e+00
  1.482431e-01    0.000000e+00
  1.485420e-01    0.000000e+00
  1.488409e-01    0.000000e+00
  1.491399e-01    0.000000e+00
  1.494388e-01    0.000000e+00
  1.497377e-01    0.000000e+00
  1.500367e-01    0.000000e+00
  1.503356e-01    0.000000e+00
  1.506345e-01    0.000000e+00
  1.509334e-01    0.000000e+00
  1.512324e-01    0.000000e+00
  1.515313e-01    0.000000e+00
  1.518302e-01    0.000000e+00
  1.521292e-01    0.000000e+00
  1.524281e-01    0.000000e+00
  1.527270e-01    0.000000e+00
  1.530260e-01    0.000000e+00
  1.533249e-01    0.000000e+00
  1.536238e-01    0.000000e+00
