# == pyFAI calibration ==
# Distance Sample to Detector: 2.266 m
# PONI: 5.659e-02, 4.293e-02 m
# Rotations: 0.000000 0.000000 0.000000 rad
# 
# == Fit2d calibration ==
# Distance Sample-beamCenter: 2266.000 mm
# Center: x=249.594, y=329.012 pix
# Tilt: 0.000 deg  TiltPlanRot: 0.000 deg
# 
# Detector Pilatus 300k	 PixelSize= 1.720e-04, 1.720e-04 m
#    Detector has a mask: True 
#    Detector has a dark current: False 
#    detector has a flat field: False 
# 
# Wavelength: 1.27818e-10 m
# Mask applied: user provided
# Dark current applied: False
# Flat field applied: False
# Polarization factor: None
# Normalization factor: 428.18
# --> latex_CL3252_TiO2_R706_phiT_0.030_PVC_1.000_DOP_0.000_2_r1d.csv
#        q_A^-1             I 
  4.457554e-03    5.520506e+01
  4.756484e-03    4.856622e+01
  5.055415e-03    4.051950e+01
  5.354345e-03    3.299955e+01
  5.653276e-03    2.794738e+01
  5.952206e-03    6.632599e+01
  6.251136e-03    6.115508e+01
  6.550067e-03    5.280913e+01
  6.848997e-03    4.372154e+01
  7.147927e-03    3.548032e+01
  7.446858e-03    2.899690e+01
  7.745788e-03    2.376278e+01
  8.044719e-03    1.956551e+01
  8.343649e-03    1.637044e+01
  8.642579e-03    1.373142e+01
  8.941510e-03    1.162767e+01
  9.240440e-03    9.897252e+00
  9.539371e-03    8.434768e+00
  9.838301e-03    7.250602e+00
  1.013723e-02    6.296855e+00
  1.043616e-02    5.474661e+00
  1.073509e-02    4.738311e+00
  1.103402e-02    4.144204e+00
  1.133295e-02    3.646101e+00
  1.163188e-02    3.229708e+00
  1.193081e-02    2.880612e+00
  1.222974e-02    2.577605e+00
  1.252867e-02    2.308993e+00
  1.282760e-02    2.072338e+00
  1.312654e-02    1.860915e+00
  1.342547e-02    1.683937e+00
  1.372440e-02    1.520635e+00
  1.402333e-02    1.380865e+00
  1.432226e-02    1.252162e+00
  1.462119e-02    1.142489e+00
  1.492012e-02    1.049116e+00
  1.521905e-02    9.569479e-01
  1.551798e-02    8.753793e-01
  1.581691e-02    8.027292e-01
  1.611584e-02    7.401491e-01
  1.641477e-02    6.824851e-01
  1.671370e-02    6.270738e-01
  1.701263e-02    5.792072e-01
  1.731156e-02    5.332564e-01
  1.761049e-02    4.986570e-01
  1.790942e-02    4.646582e-01
  1.820835e-02    4.291727e-01
  1.850728e-02    3.981109e-01
  1.880621e-02    3.710017e-01
  1.910514e-02    3.439691e-01
  1.940407e-02    3.204645e-01
  1.970300e-02    3.003026e-01
  2.000193e-02    2.808319e-01
  2.030086e-02    2.638447e-01
  2.059979e-02    2.473065e-01
  2.089873e-02    2.332552e-01
  2.119766e-02    2.179037e-01
  2.149659e-02    2.031438e-01
  2.179552e-02    1.921086e-01
  2.209445e-02    1.808460e-01
  2.239338e-02    1.704357e-01
  2.269231e-02    1.610789e-01
  2.299124e-02    1.514228e-01
  2.329017e-02    1.438612e-01
  2.358910e-02    1.355408e-01
  2.388803e-02    1.278578e-01
  2.418696e-02    1.218055e-01
  2.448589e-02    1.142363e-01
  2.478482e-02    1.084227e-01
  2.508375e-02    1.036071e-01
  2.538268e-02    9.851205e-02
  2.568161e-02    9.223689e-02
  2.598054e-02    8.771585e-02
  2.627947e-02    8.447511e-02
  2.657840e-02    7.962734e-02
  2.687733e-02    7.525699e-02
  2.717626e-02    7.244448e-02
  2.747519e-02    6.936049e-02
  2.777412e-02    6.539676e-02
  2.807305e-02    6.204954e-02
  2.837198e-02    5.931772e-02
  2.867092e-02    5.767975e-02
  2.896985e-02    5.495379e-02
  2.926878e-02    5.249401e-02
  2.956771e-02    5.011991e-02
  2.986664e-02    4.736075e-02
  3.016557e-02    4.533586e-02
  3.046450e-02    4.389973e-02
  3.076343e-02    4.227762e-02
  3.106236e-02    4.016624e-02
  3.136129e-02    3.801483e-02
  3.166022e-02    3.675229e-02
  3.195915e-02    3.525672e-02
  3.225808e-02    3.361529e-02
  3.255701e-02    3.203679e-02
  3.285594e-02    3.133234e-02
  3.315487e-02    3.085123e-02
  3.345380e-02    2.907032e-02
  3.375273e-02    2.762268e-02
  3.405166e-02    2.680700e-02
  3.435059e-02    2.567505e-02
  3.464952e-02    2.517936e-02
  3.494845e-02    2.394405e-02
  3.524738e-02    2.304661e-02
  3.554631e-02    2.272004e-02
  3.584524e-02    2.189388e-02
  3.614417e-02    2.089010e-02
  3.644310e-02    2.014014e-02
  3.674204e-02    1.918753e-02
  3.704097e-02    1.841012e-02
  3.733990e-02    1.787996e-02
  3.763883e-02    1.746566e-02
  3.793776e-02    1.704778e-02
  3.823669e-02    1.581302e-02
  3.853562e-02    1.522000e-02
  3.883455e-02    1.516375e-02
  3.913348e-02    1.463193e-02
  3.943241e-02    1.425658e-02
  3.973134e-02    1.376190e-02
  4.003027e-02    1.338757e-02
  4.032920e-02    1.310243e-02
  4.062813e-02    1.259890e-02
  4.092706e-02    1.230088e-02
  4.122599e-02    1.198567e-02
  4.152492e-02    1.175146e-02
  4.182385e-02    1.129929e-02
  4.212278e-02    1.071902e-02
  4.242171e-02    1.040348e-02
  4.272064e-02    1.022629e-02
  4.301957e-02    9.855878e-03
  4.331850e-02    9.646528e-03
  4.361743e-02    9.623023e-03
  4.391636e-02    9.245977e-03
  4.421529e-02    8.748557e-03
  4.451423e-02    8.324333e-03
  4.481316e-02    8.091176e-03
  4.511209e-02    7.985812e-03
  4.541102e-02    7.885954e-03
  4.570995e-02    7.735219e-03
  4.600888e-02    7.603175e-03
  4.630781e-02    7.315230e-03
  4.660674e-02    7.177190e-03
  4.690567e-02    6.945309e-03
  4.720460e-02    6.843523e-03
  4.750353e-02    6.799167e-03
  4.780246e-02    6.351269e-03
  4.810139e-02    6.251441e-03
  4.840032e-02    6.047375e-03
  4.869925e-02    5.796201e-03
  4.899818e-02    5.768331e-03
  4.929711e-02    5.523182e-03
  4.959604e-02    5.430938e-03
  4.989497e-02    5.306717e-03
  5.019390e-02    5.314626e-03
  5.049283e-02    5.392975e-03
  5.079176e-02    5.227147e-03
  5.109069e-02    5.103148e-03
  5.138962e-02    5.008354e-03
  5.168855e-02    4.942219e-03
  5.198748e-02    4.756826e-03
  5.228642e-02    4.674561e-03
  5.258535e-02    4.453441e-03
  5.288428e-02    4.404785e-03
  5.318321e-02    4.403155e-03
  5.348214e-02    4.214321e-03
  5.378107e-02    4.198200e-03
  5.408000e-02    4.199941e-03
  5.437893e-02    4.104273e-03
  5.467786e-02    3.941982e-03
  5.497679e-02    3.784772e-03
  5.527572e-02    3.588755e-03
  5.557465e-02    3.527495e-03
  5.587358e-02    3.453460e-03
  5.617251e-02    3.306521e-03
  5.647144e-02    3.362374e-03
  5.677037e-02    3.477931e-03
  5.706930e-02    3.400798e-03
  5.736823e-02    3.284834e-03
  5.766716e-02    3.299714e-03
  5.796609e-02    3.152104e-03
  5.826502e-02    3.062640e-03
  5.856395e-02    3.016024e-03
  5.886288e-02    2.890617e-03
  5.916181e-02    2.886328e-03
  5.946074e-02    2.892734e-03
  5.975967e-02    2.774440e-03
  6.005861e-02    2.733887e-03
  6.035754e-02    2.761138e-03
  6.065647e-02    2.714662e-03
  6.095540e-02    2.657703e-03
  6.125433e-02    2.700878e-03
  6.155326e-02    2.721331e-03
  6.185219e-02    2.679479e-03
  6.215112e-02    2.554791e-03
  6.245005e-02    2.452253e-03
  6.274898e-02    2.466987e-03
  6.304791e-02    2.469638e-03
  6.334684e-02    2.385911e-03
  6.364577e-02    2.364766e-03
  6.394470e-02    2.369325e-03
  6.424363e-02    2.372546e-03
  6.454256e-02    2.233621e-03
  6.484149e-02    2.129046e-03
  6.514042e-02    2.168037e-03
  6.543935e-02    2.209665e-03
  6.573828e-02    2.144634e-03
  6.603721e-02    2.023261e-03
  6.633614e-02    2.036298e-03
  6.663507e-02    2.031872e-03
  6.693400e-02    2.054957e-03
  6.723293e-02    2.089523e-03
  6.753186e-02    2.017986e-03
  6.783080e-02    2.000106e-03
  6.812973e-02    1.961915e-03
  6.842866e-02    2.041549e-03
  6.872759e-02    1.827889e-03
  6.902652e-02    1.712056e-03
  6.932545e-02    1.763762e-03
  6.962438e-02    1.814798e-03
  6.992331e-02    1.898586e-03
  7.022224e-02    1.824253e-03
  7.052117e-02    1.805671e-03
  7.082010e-02    1.748501e-03
  7.111903e-02    1.782437e-03
  7.141796e-02    1.688567e-03
  7.171689e-02    1.705581e-03
  7.201582e-02    1.733937e-03
  7.231475e-02    1.738904e-03
  7.261368e-02    1.699972e-03
  7.291261e-02    1.685823e-03
  7.321154e-02    1.668673e-03
  7.351047e-02    1.600843e-03
  7.380940e-02    1.672655e-03
  7.410833e-02    1.714004e-03
  7.440726e-02    1.627229e-03
  7.470619e-02    1.567370e-03
  7.500512e-02    1.542759e-03
  7.530405e-02    1.549263e-03
  7.560299e-02    1.651453e-03
  7.590192e-02    1.572803e-03
  7.620085e-02    1.512784e-03
  7.649978e-02    1.450712e-03
  7.679871e-02    1.498532e-03
  7.709764e-02    1.497521e-03
  7.739657e-02    1.416209e-03
  7.769550e-02    1.445036e-03
  7.799443e-02    1.435478e-03
  7.829336e-02    1.353202e-03
  7.859229e-02    1.326110e-03
  7.889122e-02    1.387284e-03
  7.919015e-02    1.412299e-03
  7.948908e-02    1.369185e-03
  7.978801e-02    1.360619e-03
  8.008694e-02    1.386336e-03
  8.038587e-02    1.355470e-03
  8.068480e-02    1.340398e-03
  8.098373e-02    1.325089e-03
  8.128266e-02    1.333693e-03
  8.158159e-02    1.335619e-03
  8.188052e-02    1.244527e-03
  8.217945e-02    1.228561e-03
  8.247838e-02    1.236715e-03
  8.277731e-02    1.182773e-03
  8.307624e-02    1.133293e-03
  8.337518e-02    1.140877e-03
  8.367411e-02    1.195418e-03
  8.397304e-02    1.178164e-03
  8.427197e-02    1.168720e-03
  8.457090e-02    1.116332e-03
  8.486983e-02    1.079923e-03
  8.516876e-02    1.110040e-03
  8.546769e-02    1.125103e-03
  8.576662e-02    1.075549e-03
  8.606555e-02    1.095176e-03
  8.636448e-02    1.151285e-03
  8.666341e-02    1.069027e-03
  8.696234e-02    1.064929e-03
  8.726127e-02    1.101600e-03
  8.756020e-02    1.046086e-03
  8.785913e-02    1.024214e-03
  8.815806e-02    1.001819e-03
  8.845699e-02    1.022955e-03
  8.875592e-02    9.780248e-04
  8.905485e-02    9.662784e-04
  8.935378e-02    1.047422e-03
  8.965271e-02    1.024127e-03
  8.995164e-02    1.015800e-03
  9.025057e-02    9.987397e-04
  9.054950e-02    9.535176e-04
  9.084843e-02    9.400811e-04
  9.114737e-02    9.443531e-04
  9.144630e-02    9.324870e-04
  9.174523e-02    9.198954e-04
  9.204416e-02    9.034793e-04
  9.234309e-02    9.621668e-04
  9.264202e-02    9.575862e-04
  9.294095e-02    8.949162e-04
  9.323988e-02    8.688387e-04
  9.353881e-02    8.775098e-04
  9.383774e-02    8.891689e-04
  9.413667e-02    8.820986e-04
  9.443560e-02    8.717503e-04
  9.473453e-02    8.857189e-04
  9.503346e-02    8.949650e-04
  9.533239e-02    8.726887e-04
  9.563132e-02    8.698918e-04
  9.593025e-02    8.738665e-04
  9.622918e-02    8.824207e-04
  9.652811e-02    8.572739e-04
  9.682704e-02    8.451580e-04
  9.712597e-02    8.873086e-04
  9.742490e-02    8.663946e-04
  9.772383e-02    8.181461e-04
  9.802276e-02    8.294354e-04
  9.832169e-02    8.292217e-04
  9.862062e-02    8.161800e-04
  9.891956e-02    8.693360e-04
  9.921849e-02    7.979283e-04
  9.951742e-02    8.005602e-04
  9.981635e-02    8.305698e-04
  1.001153e-01    8.195616e-04
  1.004142e-01    7.616776e-04
  1.007131e-01    7.423221e-04
  1.010121e-01    7.255621e-04
  1.013110e-01    7.588860e-04
  1.016099e-01    8.033476e-04
  1.019089e-01    7.520224e-04
  1.022078e-01    7.125826e-04
  1.025067e-01    7.507078e-04
  1.028057e-01    7.462757e-04
  1.031046e-01    7.271337e-04
  1.034035e-01    7.259066e-04
  1.037024e-01    7.174546e-04
  1.040014e-01    7.021639e-04
  1.043003e-01    6.958157e-04
  1.045992e-01    6.822577e-04
  1.048982e-01    7.056802e-04
  1.051971e-01    7.076016e-04
  1.054960e-01    7.005708e-04
  1.057950e-01    7.133746e-04
  1.060939e-01    6.823771e-04
  1.063928e-01    6.491455e-04
  1.066917e-01    6.744498e-04
  1.069907e-01    6.897479e-04
  1.072896e-01    6.992142e-04
  1.075885e-01    7.257049e-04
  1.078875e-01    6.831746e-04
  1.081864e-01    6.278649e-04
  1.084853e-01    7.107653e-04
  1.087843e-01    6.989506e-04
  1.090832e-01    6.722076e-04
  1.093821e-01    6.908806e-04
  1.096810e-01    7.008351e-04
  1.099800e-01    6.649919e-04
  1.102789e-01    6.293259e-04
  1.105778e-01    6.497630e-04
  1.108768e-01    6.413599e-04
  1.111757e-01    6.735564e-04
  1.114746e-01    6.927902e-04
  1.117736e-01    6.938668e-04
  1.120725e-01    6.490051e-04
  1.123714e-01    6.015389e-04
  1.126704e-01    5.964701e-04
  1.129693e-01    5.725321e-04
  1.132682e-01    5.854255e-04
  1.135671e-01    6.131749e-04
  1.138661e-01    6.211923e-04
  1.141650e-01    6.022590e-04
  1.144639e-01    5.903468e-04
  1.147629e-01    5.610719e-04
  1.150618e-01    5.682283e-04
  1.153607e-01    5.691075e-04
  1.156597e-01    4.803856e-04
  1.159586e-01    4.957949e-04
  1.162575e-01    5.231527e-04
  1.165564e-01    4.737275e-04
  1.168554e-01    4.415096e-04
  1.171543e-01    5.621755e-04
  1.174532e-01    5.920585e-04
  1.177522e-01    5.110317e-04
  1.180511e-01    5.419498e-04
  1.183500e-01    5.367136e-04
  1.186490e-01    4.621993e-04
  1.189479e-01    4.404526e-04
  1.192468e-01    4.793568e-04
  1.195458e-01    5.209062e-04
  1.198447e-01    4.621722e-04
  1.201436e-01    4.106419e-04
  1.204425e-01    6.562820e-04
  1.207415e-01    1.333376e-03
  1.210404e-01    0.000000e+00
  1.213393e-01    0.000000e+00
  1.216383e-01    0.000000e+00
  1.219372e-01    0.000000e+00
  1.222361e-01    0.000000e+00
  1.225351e-01    0.000000e+00
  1.228340e-01    0.000000e+00
  1.231329e-01    0.000000e+00
  1.234318e-01    0.000000e+00
  1.237308e-01    0.000000e+00
  1.240297e-01    0.000000e+00
  1.243286e-01    0.000000e+00
  1.246276e-01    0.000000e+00
  1.249265e-01    0.000000e+00
  1.252254e-01    0.000000e+00
  1.255244e-01    0.000000e+00
  1.258233e-01    0.000000e+00
  1.261222e-01    0.000000e+00
  1.264212e-01    0.000000e+00
  1.267201e-01    0.000000e+00
  1.270190e-01    0.000000e+00
  1.273179e-01    0.000000e+00
  1.276169e-01    0.000000e+00
  1.279158e-01    0.000000e+00
  1.282147e-01    0.000000e+00
  1.285137e-01    0.000000e+00
  1.288126e-01    0.000000e+00
  1.291115e-01    0.000000e+00
  1.294105e-01    0.000000e+00
  1.297094e-01    0.000000e+00
  1.300083e-01    0.000000e+00
  1.303072e-01    0.000000e+00
  1.306062e-01    0.000000e+00
  1.309051e-01    0.000000e+00
  1.312040e-01    0.000000e+00
  1.315030e-01    0.000000e+00
  1.318019e-01    0.000000e+00
  1.321008e-01    0.000000e+00
  1.323998e-01    0.000000e+00
  1.326987e-01    0.000000e+00
  1.329976e-01    0.000000e+00
  1.332965e-01    0.000000e+00
  1.335955e-01    0.000000e+00
  1.338944e-01    0.000000e+00
  1.341933e-01    0.000000e+00
  1.344923e-01    0.000000e+00
  1.347912e-01    0.000000e+00
  1.350901e-01    0.000000e+00
  1.353891e-01    0.000000e+00
  1.356880e-01    0.000000e+00
  1.359869e-01    0.000000e+00
  1.362859e-01    0.000000e+00
  1.365848e-01    0.000000e+00
  1.368837e-01    0.000000e+00
  1.371826e-01    0.000000e+00
  1.374816e-01    0.000000e+00
  1.377805e-01    0.000000e+00
  1.380794e-01    0.000000e+00
  1.383784e-01    0.000000e+00
  1.386773e-01    0.000000e+00
  1.389762e-01    0.000000e+00
  1.392752e-01    0.000000e+00
  1.395741e-01    0.000000e+00
  1.398730e-01    0.000000e+00
  1.401719e-01    0.000000e+00
  1.404709e-01    0.000000e+00
  1.407698e-01    0.000000e+00
  1.410687e-01    0.000000e+00
  1.413677e-01    0.000000e+00
  1.416666e-01    0.000000e+00
  1.419655e-01    0.000000e+00
  1.422645e-01    0.000000e+00
  1.425634e-01    0.000000e+00
  1.428623e-01    0.000000e+00
  1.431613e-01    0.000000e+00
  1.434602e-01    0.000000e+00
  1.437591e-01    0.000000e+00
  1.440580e-01    0.000000e+00
  1.443570e-01    0.000000e+00
  1.446559e-01    0.000000e+00
  1.449548e-01    0.000000e+00
  1.452538e-01    0.000000e+00
  1.455527e-01    0.000000e+00
  1.458516e-01    0.000000e+00
  1.461506e-01    0.000000e+00
  1.464495e-01    0.000000e+00
  1.467484e-01    0.000000e+00
  1.470473e-01    0.000000e+00
  1.473463e-01    0.000000e+00
  1.476452e-01    0.000000e+00
  1.479441e-01    0.000000e+00
  1.482431e-01    0.000000e+00
  1.485420e-01    0.000000e+00
  1.488409e-01    0.000000e+00
  1.491399e-01    0.000000e+00
  1.494388e-01    0.000000e+00
  1.497377e-01    0.000000e+00
  1.500367e-01    0.000000e+00
  1.503356e-01    0.000000e+00
  1.506345e-01    0.000000e+00
  1.509334e-01    0.000000e+00
  1.512324e-01    0.000000e+00
  1.515313e-01    0.000000e+00
  1.518302e-01    0.000000e+00
  1.521292e-01    0.000000e+00
  1.524281e-01    0.000000e+00
  1.527270e-01    0.000000e+00
  1.530260e-01    0.000000e+00
  1.533249e-01    0.000000e+00
  1.536238e-01    0.000000e+00
