# == pyFAI calibration ==
# Distance Sample to Detector: 2.266 m
# PONI: 5.659e-02, 4.293e-02 m
# Rotations: 0.000000 0.000000 0.000000 rad
# 
# == Fit2d calibration ==
# Distance Sample-beamCenter: 2266.000 mm
# Center: x=249.594, y=329.012 pix
# Tilt: 0.000 deg  TiltPlanRot: 0.000 deg
# 
# Detector Pilatus 300k	 PixelSize= 1.720e-04, 1.720e-04 m
#    Detector has a mask: True 
#    Detector has a dark current: False 
#    detector has a flat field: False 
# 
# Wavelength: 1.27818e-10 m
# Mask applied: user provided
# Dark current applied: False
# Flat field applied: False
# Polarization factor: None
# Normalization factor: 10150.710000000001
# --> latex_CL3252_TiO2_R706_phiT_0.090_PVC_1.000_DOP_0.010_0_r1d.csv
#        q_A^-1             I 
  4.457554e-03    2.691100e-01
  4.756484e-03    2.161872e-01
  5.055415e-03    1.590844e-01
  5.354345e-03    1.177451e-01
  5.653276e-03    9.452932e-02
  5.952206e-03    1.491346e-01
  6.251136e-03    1.348958e-01
  6.550067e-03    1.169986e-01
  6.848997e-03    9.871304e-02
  7.147927e-03    8.312755e-02
  7.446858e-03    7.115149e-02
  7.745788e-03    6.117903e-02
  8.044719e-03    5.272016e-02
  8.343649e-03    4.589454e-02
  8.642579e-03    4.034562e-02
  8.941510e-03    3.560778e-02
  9.240440e-03    3.164123e-02
  9.539371e-03    2.818741e-02
  9.838301e-03    2.505992e-02
  1.013723e-02    2.241012e-02
  1.043616e-02    2.025133e-02
  1.073509e-02    1.843721e-02
  1.103402e-02    1.669849e-02
  1.133295e-02    1.502491e-02
  1.163188e-02    1.354459e-02
  1.193081e-02    1.236476e-02
  1.222974e-02    1.128156e-02
  1.252867e-02    1.042504e-02
  1.282760e-02    9.584039e-03
  1.312654e-02    8.770328e-03
  1.342547e-02    8.172859e-03
  1.372440e-02    7.594700e-03
  1.402333e-02    6.998742e-03
  1.432226e-02    6.518807e-03
  1.462119e-02    6.032318e-03
  1.492012e-02    5.564828e-03
  1.521905e-02    5.200900e-03
  1.551798e-02    4.883542e-03
  1.581691e-02    4.638029e-03
  1.611584e-02    4.383533e-03
  1.641477e-02    4.115086e-03
  1.671370e-02    3.819327e-03
  1.701263e-02    3.597832e-03
  1.731156e-02    3.437235e-03
  1.761049e-02    3.297668e-03
  1.790942e-02    3.141766e-03
  1.820835e-02    2.954335e-03
  1.850728e-02    2.827486e-03
  1.880621e-02    2.732935e-03
  1.910514e-02    2.617375e-03
  1.940407e-02    2.500721e-03
  1.970300e-02    2.396038e-03
  2.000193e-02    2.265898e-03
  2.030086e-02    2.167233e-03
  2.059979e-02    2.084994e-03
  2.089873e-02    2.038175e-03
  2.119766e-02    1.948788e-03
  2.149659e-02    1.878716e-03
  2.179552e-02    1.834959e-03
  2.209445e-02    1.782735e-03
  2.239338e-02    1.713785e-03
  2.269231e-02    1.663458e-03
  2.299124e-02    1.608127e-03
  2.329017e-02    1.569182e-03
  2.358910e-02    1.526595e-03
  2.388803e-02    1.473229e-03
  2.418696e-02    1.439590e-03
  2.448589e-02    1.414859e-03
  2.478482e-02    1.365333e-03
  2.508375e-02    1.332507e-03
  2.538268e-02    1.315525e-03
  2.568161e-02    1.270625e-03
  2.598054e-02    1.260788e-03
  2.627947e-02    1.249510e-03
  2.657840e-02    1.212414e-03
  2.687733e-02    1.214835e-03
  2.717626e-02    1.199397e-03
  2.747519e-02    1.134069e-03
  2.777412e-02    1.122052e-03
  2.807305e-02    1.117615e-03
  2.837198e-02    1.104837e-03
  2.867092e-02    1.100432e-03
  2.896985e-02    1.067549e-03
  2.926878e-02    1.051864e-03
  2.956771e-02    1.040053e-03
  2.986664e-02    1.033742e-03
  3.016557e-02    1.013336e-03
  3.046450e-02    9.984811e-04
  3.076343e-02    9.873258e-04
  3.106236e-02    9.730917e-04
  3.136129e-02    9.518906e-04
  3.166022e-02    9.520946e-04
  3.195915e-02    9.370538e-04
  3.225808e-02    9.351204e-04
  3.255701e-02    9.355716e-04
  3.285594e-02    9.382138e-04
  3.315487e-02    9.153243e-04
  3.345380e-02    9.077116e-04
  3.375273e-02    8.838021e-04
  3.405166e-02    8.635101e-04
  3.435059e-02    8.621332e-04
  3.464952e-02    8.595656e-04
  3.494845e-02    8.715581e-04
  3.524738e-02    8.609199e-04
  3.554631e-02    8.510273e-04
  3.584524e-02    8.496297e-04
  3.614417e-02    8.385876e-04
  3.644310e-02    8.241280e-04
  3.674204e-02    8.217405e-04
  3.704097e-02    8.136207e-04
  3.733990e-02    8.092494e-04
  3.763883e-02    7.979858e-04
  3.793776e-02    7.987735e-04
  3.823669e-02    7.972408e-04
  3.853562e-02    7.962444e-04
  3.883455e-02    7.807103e-04
  3.913348e-02    7.742780e-04
  3.943241e-02    7.727619e-04
  3.973134e-02    7.620757e-04
  4.003027e-02    7.463683e-04
  4.032920e-02    7.653033e-04
  4.062813e-02    7.683744e-04
  4.092706e-02    7.676869e-04
  4.122599e-02    7.523458e-04
  4.152492e-02    7.432582e-04
  4.182385e-02    7.507792e-04
  4.212278e-02    7.377799e-04
  4.242171e-02    7.425665e-04
  4.272064e-02    7.466507e-04
  4.301957e-02    7.420080e-04
  4.331850e-02    7.408416e-04
  4.361743e-02    7.404632e-04
  4.391636e-02    7.375610e-04
  4.421529e-02    7.266655e-04
  4.451423e-02    7.234957e-04
  4.481316e-02    7.180806e-04
  4.511209e-02    7.173535e-04
  4.541102e-02    7.298386e-04
  4.570995e-02    7.276517e-04
  4.600888e-02    7.181217e-04
  4.630781e-02    7.228025e-04
  4.660674e-02    7.329072e-04
  4.690567e-02    7.370076e-04
  4.720460e-02    7.384892e-04
  4.750353e-02    7.289192e-04
  4.780246e-02    7.178362e-04
  4.810139e-02    7.256480e-04
  4.840032e-02    7.165298e-04
  4.869925e-02    7.207255e-04
  4.899818e-02    7.319229e-04
  4.929711e-02    7.265442e-04
  4.959604e-02    7.214692e-04
  4.989497e-02    7.151428e-04
  5.019390e-02    7.077745e-04
  5.049283e-02    7.153049e-04
  5.079176e-02    7.159975e-04
  5.109069e-02    7.283823e-04
  5.138962e-02    7.348105e-04
  5.168855e-02    7.342075e-04
  5.198748e-02    7.376397e-04
  5.228642e-02    7.357569e-04
  5.258535e-02    7.247869e-04
  5.288428e-02    7.246505e-04
  5.318321e-02    7.273991e-04
  5.348214e-02    7.085961e-04
  5.378107e-02    7.155702e-04
  5.408000e-02    7.167978e-04
  5.437893e-02    7.252060e-04
  5.467786e-02    7.318197e-04
  5.497679e-02    7.203725e-04
  5.527572e-02    7.256823e-04
  5.557465e-02    7.376985e-04
  5.587358e-02    7.320499e-04
  5.617251e-02    7.321663e-04
  5.647144e-02    7.255545e-04
  5.677037e-02    7.234655e-04
  5.706930e-02    7.336005e-04
  5.736823e-02    7.265034e-04
  5.766716e-02    7.301380e-04
  5.796609e-02    7.345474e-04
  5.826502e-02    7.471658e-04
  5.856395e-02    7.447617e-04
  5.886288e-02    7.319580e-04
  5.916181e-02    7.389571e-04
  5.946074e-02    7.410618e-04
  5.975967e-02    7.305061e-04
  6.005861e-02    7.271374e-04
  6.035754e-02    7.417550e-04
  6.065647e-02    7.473592e-04
  6.095540e-02    7.491539e-04
  6.125433e-02    7.528519e-04
  6.155326e-02    7.637700e-04
  6.185219e-02    7.584231e-04
  6.215112e-02    7.579397e-04
  6.245005e-02    7.506076e-04
  6.274898e-02    7.546631e-04
  6.304791e-02    7.575754e-04
  6.334684e-02    7.520107e-04
  6.364577e-02    7.501400e-04
  6.394470e-02    7.511735e-04
  6.424363e-02    7.493001e-04
  6.454256e-02    7.431150e-04
  6.484149e-02    7.385663e-04
  6.514042e-02    7.484994e-04
  6.543935e-02    7.616336e-04
  6.573828e-02    7.598206e-04
  6.603721e-02    7.572849e-04
  6.633614e-02    7.687946e-04
  6.663507e-02    7.601078e-04
  6.693400e-02    7.556471e-04
  6.723293e-02    7.663512e-04
  6.753186e-02    7.571778e-04
  6.783080e-02    7.621989e-04
  6.812973e-02    7.663138e-04
  6.842866e-02    7.659065e-04
  6.872759e-02    7.663007e-04
  6.902652e-02    7.666672e-04
  6.932545e-02    7.631232e-04
  6.962438e-02    7.580214e-04
  6.992331e-02    7.633010e-04
  7.022224e-02    7.593471e-04
  7.052117e-02    7.669042e-04
  7.082010e-02    7.718608e-04
  7.111903e-02    7.853050e-04
  7.141796e-02    7.838155e-04
  7.171689e-02    7.656423e-04
  7.201582e-02    7.752106e-04
  7.231475e-02    7.806185e-04
  7.261368e-02    7.735223e-04
  7.291261e-02    7.622619e-04
  7.321154e-02    7.752521e-04
  7.351047e-02    7.921177e-04
  7.380940e-02    7.810667e-04
  7.410833e-02    7.704142e-04
  7.440726e-02    7.691769e-04
  7.470619e-02    7.839867e-04
  7.500512e-02    7.841851e-04
  7.530405e-02    7.679123e-04
  7.560299e-02    7.706978e-04
  7.590192e-02    7.732112e-04
  7.620085e-02    7.693772e-04
  7.649978e-02    7.754223e-04
  7.679871e-02    7.824851e-04
  7.709764e-02    7.821574e-04
  7.739657e-02    7.747346e-04
  7.769550e-02    7.773145e-04
  7.799443e-02    7.851702e-04
  7.829336e-02    7.701690e-04
  7.859229e-02    7.578056e-04
  7.889122e-02    7.676722e-04
  7.919015e-02    7.757007e-04
  7.948908e-02    7.838355e-04
  7.978801e-02    7.753983e-04
  8.008694e-02    7.653539e-04
  8.038587e-02    7.591270e-04
  8.068480e-02    7.748029e-04
  8.098373e-02    7.817237e-04
  8.128266e-02    7.862289e-04
  8.158159e-02    7.823111e-04
  8.188052e-02    7.738036e-04
  8.217945e-02    7.542635e-04
  8.247838e-02    7.597246e-04
  8.277731e-02    7.589331e-04
  8.307624e-02    7.417084e-04
  8.337518e-02    7.515224e-04
  8.367411e-02    7.593867e-04
  8.397304e-02    7.501543e-04
  8.427197e-02    7.538053e-04
  8.457090e-02    7.587167e-04
  8.486983e-02    7.601589e-04
  8.516876e-02    7.583887e-04
  8.546769e-02    7.654170e-04
  8.576662e-02    7.644144e-04
  8.606555e-02    7.521961e-04
  8.636448e-02    7.509456e-04
  8.666341e-02    7.478614e-04
  8.696234e-02    7.439162e-04
  8.726127e-02    7.512913e-04
  8.756020e-02    7.620342e-04
  8.785913e-02    7.553386e-04
  8.815806e-02    7.416009e-04
  8.845699e-02    7.405480e-04
  8.875592e-02    7.427943e-04
  8.905485e-02    7.369359e-04
  8.935378e-02    7.268128e-04
  8.965271e-02    7.342926e-04
  8.995164e-02    7.345857e-04
  9.025057e-02    7.340418e-04
  9.054950e-02    7.384220e-04
  9.084843e-02    7.282980e-04
  9.114737e-02    7.274950e-04
  9.144630e-02    7.340753e-04
  9.174523e-02    7.245009e-04
  9.204416e-02    7.257907e-04
  9.234309e-02    7.314135e-04
  9.264202e-02    7.277772e-04
  9.294095e-02    7.219951e-04
  9.323988e-02    7.244343e-04
  9.353881e-02    7.146953e-04
  9.383774e-02    7.070004e-04
  9.413667e-02    7.126706e-04
  9.443560e-02    7.066810e-04
  9.473453e-02    7.046512e-04
  9.503346e-02    7.109247e-04
  9.533239e-02    7.205109e-04
  9.563132e-02    7.231156e-04
  9.593025e-02    7.162077e-04
  9.622918e-02    7.128197e-04
  9.652811e-02    7.095666e-04
  9.682704e-02    7.108532e-04
  9.712597e-02    7.029052e-04
  9.742490e-02    7.030056e-04
  9.772383e-02    7.018948e-04
  9.802276e-02    7.033874e-04
  9.832169e-02    6.999820e-04
  9.862062e-02    6.913088e-04
  9.891956e-02    6.939980e-04
  9.921849e-02    6.842395e-04
  9.951742e-02    6.936855e-04
  9.981635e-02    6.945412e-04
  1.001153e-01    6.920047e-04
  1.004142e-01    7.009887e-04
  1.007131e-01    6.921341e-04
  1.010121e-01    6.847701e-04
  1.013110e-01    6.823176e-04
  1.016099e-01    6.821931e-04
  1.019089e-01    6.839265e-04
  1.022078e-01    6.787734e-04
  1.025067e-01    6.750834e-04
  1.028057e-01    6.667412e-04
  1.031046e-01    6.701479e-04
  1.034035e-01    6.795322e-04
  1.037024e-01    6.811059e-04
  1.040014e-01    6.750231e-04
  1.043003e-01    6.747885e-04
  1.045992e-01    6.628704e-04
  1.048982e-01    6.557161e-04
  1.051971e-01    6.660034e-04
  1.054960e-01    6.721392e-04
  1.057950e-01    6.670302e-04
  1.060939e-01    6.594844e-04
  1.063928e-01    6.628684e-04
  1.066917e-01    6.564666e-04
  1.069907e-01    6.435484e-04
  1.072896e-01    6.470392e-04
  1.075885e-01    6.583323e-04
  1.078875e-01    6.650507e-04
  1.081864e-01    6.595462e-04
  1.084853e-01    6.565265e-04
  1.087843e-01    6.637148e-04
  1.090832e-01    6.575902e-04
  1.093821e-01    6.624832e-04
  1.096810e-01    6.451342e-04
  1.099800e-01    6.307868e-04
  1.102789e-01    6.337311e-04
  1.105778e-01    6.381738e-04
  1.108768e-01    6.353575e-04
  1.111757e-01    6.338816e-04
  1.114746e-01    6.321179e-04
  1.117736e-01    6.257378e-04
  1.120725e-01    6.265027e-04
  1.123714e-01    6.272093e-04
  1.126704e-01    6.346818e-04
  1.129693e-01    6.293219e-04
  1.132682e-01    6.221560e-04
  1.135671e-01    6.338956e-04
  1.138661e-01    6.297381e-04
  1.141650e-01    6.223751e-04
  1.144639e-01    6.132386e-04
  1.147629e-01    6.141679e-04
  1.150618e-01    6.284123e-04
  1.153607e-01    6.219967e-04
  1.156597e-01    6.205929e-04
  1.159586e-01    6.234505e-04
  1.162575e-01    6.092552e-04
  1.165564e-01    6.125077e-04
  1.168554e-01    6.223662e-04
  1.171543e-01    6.125104e-04
  1.174532e-01    6.207082e-04
  1.177522e-01    6.233135e-04
  1.180511e-01    6.241099e-04
  1.183500e-01    6.256949e-04
  1.186490e-01    6.207899e-04
  1.189479e-01    6.177138e-04
  1.192468e-01    6.269214e-04
  1.195458e-01    6.018438e-04
  1.198447e-01    6.241238e-04
  1.201436e-01    6.342704e-04
  1.204425e-01    6.005201e-04
  1.207415e-01    6.244772e-04
  1.210404e-01    6.902316e-04
  1.213393e-01    0.000000e+00
  1.216383e-01    0.000000e+00
  1.219372e-01    0.000000e+00
  1.222361e-01    0.000000e+00
  1.225351e-01    0.000000e+00
  1.228340e-01    0.000000e+00
  1.231329e-01    0.000000e+00
  1.234318e-01    0.000000e+00
  1.237308e-01    0.000000e+00
  1.240297e-01    0.000000e+00
  1.243286e-01    0.000000e+00
  1.246276e-01    0.000000e+00
  1.249265e-01    0.000000e+00
  1.252254e-01    0.000000e+00
  1.255244e-01    0.000000e+00
  1.258233e-01    0.000000e+00
  1.261222e-01    0.000000e+00
  1.264212e-01    0.000000e+00
  1.267201e-01    0.000000e+00
  1.270190e-01    0.000000e+00
  1.273179e-01    0.000000e+00
  1.276169e-01    0.000000e+00
  1.279158e-01    0.000000e+00
  1.282147e-01    0.000000e+00
  1.285137e-01    0.000000e+00
  1.288126e-01    0.000000e+00
  1.291115e-01    0.000000e+00
  1.294105e-01    0.000000e+00
  1.297094e-01    0.000000e+00
  1.300083e-01    0.000000e+00
  1.303072e-01    0.000000e+00
  1.306062e-01    0.000000e+00
  1.309051e-01    0.000000e+00
  1.312040e-01    0.000000e+00
  1.315030e-01    0.000000e+00
  1.318019e-01    0.000000e+00
  1.321008e-01    0.000000e+00
  1.323998e-01    0.000000e+00
  1.326987e-01    0.000000e+00
  1.329976e-01    0.000000e+00
  1.332965e-01    0.000000e+00
  1.335955e-01    0.000000e+00
  1.338944e-01    0.000000e+00
  1.341933e-01    0.000000e+00
  1.344923e-01    0.000000e+00
  1.347912e-01    0.000000e+00
  1.350901e-01    0.000000e+00
  1.353891e-01    0.000000e+00
  1.356880e-01    0.000000e+00
  1.359869e-01    0.000000e+00
  1.362859e-01    0.000000e+00
  1.365848e-01    0.000000e+00
  1.368837e-01    0.000000e+00
  1.371826e-01    0.000000e+00
  1.374816e-01    0.000000e+00
  1.377805e-01    0.000000e+00
  1.380794e-01    0.000000e+00
  1.383784e-01    0.000000e+00
  1.386773e-01    0.000000e+00
  1.389762e-01    0.000000e+00
  1.392752e-01    0.000000e+00
  1.395741e-01    0.000000e+00
  1.398730e-01    0.000000e+00
  1.401719e-01    0.000000e+00
  1.404709e-01    0.000000e+00
  1.407698e-01    0.000000e+00
  1.410687e-01    0.000000e+00
  1.413677e-01    0.000000e+00
  1.416666e-01    0.000000e+00
  1.419655e-01    0.000000e+00
  1.422645e-01    0.000000e+00
  1.425634e-01    0.000000e+00
  1.428623e-01    0.000000e+00
  1.431613e-01    0.000000e+00
  1.434602e-01    0.000000e+00
  1.437591e-01    0.000000e+00
  1.440580e-01    0.000000e+00
  1.443570e-01    0.000000e+00
  1.446559e-01    0.000000e+00
  1.449548e-01    0.000000e+00
  1.452538e-01    0.000000e+00
  1.455527e-01    0.000000e+00
  1.458516e-01    0.000000e+00
  1.461506e-01    0.000000e+00
  1.464495e-01    0.000000e+00
  1.467484e-01    0.000000e+00
  1.470473e-01    0.000000e+00
  1.473463e-01    0.000000e+00
  1.476452e-01    0.000000e+00
  1.479441e-01    0.000000e+00
  1.482431e-01    0.000000e+00
  1.485420e-01    0.000000e+00
  1.488409e-01    0.000000e+00
  1.491399e-01    0.000000e+00
  1.494388e-01    0.000000e+00
  1.497377e-01    0.000000e+00
  1.500367e-01    0.000000e+00
  1.503356e-01    0.000000e+00
  1.506345e-01    0.000000e+00
  1.509334e-01    0.000000e+00
  1.512324e-01    0.000000e+00
  1.515313e-01    0.000000e+00
  1.518302e-01    0.000000e+00
  1.521292e-01    0.000000e+00
  1.524281e-01    0.000000e+00
  1.527270e-01    0.000000e+00
  1.530260e-01    0.000000e+00
  1.533249e-01    0.000000e+00
  1.536238e-01    0.000000e+00
