# == pyFAI calibration ==
# Distance Sample to Detector: 2.266 m
# PONI: 5.659e-02, 4.293e-02 m
# Rotations: 0.000000 0.000000 0.000000 rad
# 
# == Fit2d calibration ==
# Distance Sample-beamCenter: 2266.000 mm
# Center: x=249.594, y=329.012 pix
# Tilt: 0.000 deg  TiltPlanRot: 0.000 deg
# 
# Detector Pilatus 300k	 PixelSize= 1.720e-04, 1.720e-04 m
#    Detector has a mask: True 
#    Detector has a dark current: False 
#    detector has a flat field: False 
# 
# Wavelength: 1.27818e-10 m
# Mask applied: user provided
# Dark current applied: False
# Flat field applied: False
# Polarization factor: None
# Normalization factor: 63885.720000000016
# --> latex_CL3252_TiO2_R706_phiT_0.010_PVC_0.800_DOP_0.005_2_r1d.csv
#        q_A^-1             I 
  4.457554e-03    5.643540e-02
  4.756484e-03    4.652353e-02
  5.055415e-03    3.584059e-02
  5.354345e-03    2.757385e-02
  5.653276e-03    2.249285e-02
  5.952206e-03    3.983747e-02
  6.251136e-03    3.626290e-02
  6.550067e-03    3.122064e-02
  6.848997e-03    2.625903e-02
  7.147927e-03    2.188297e-02
  7.446858e-03    1.838891e-02
  7.745788e-03    1.548899e-02
  8.044719e-03    1.313393e-02
  8.343649e-03    1.133482e-02
  8.642579e-03    9.759234e-03
  8.941510e-03    8.479943e-03
  9.240440e-03    7.391731e-03
  9.539371e-03    6.484016e-03
  9.838301e-03    5.751051e-03
  1.013723e-02    5.099953e-03
  1.043616e-02    4.509792e-03
  1.073509e-02    4.024060e-03
  1.103402e-02    3.582788e-03
  1.133295e-02    3.213838e-03
  1.163188e-02    2.910301e-03
  1.193081e-02    2.609481e-03
  1.222974e-02    2.370404e-03
  1.252867e-02    2.170246e-03
  1.282760e-02    1.972195e-03
  1.312654e-02    1.807205e-03
  1.342547e-02    1.650189e-03
  1.372440e-02    1.512216e-03
  1.402333e-02    1.392493e-03
  1.432226e-02    1.285593e-03
  1.462119e-02    1.191268e-03
  1.492012e-02    1.106448e-03
  1.521905e-02    1.029167e-03
  1.551798e-02    9.518604e-04
  1.581691e-02    8.793438e-04
  1.611584e-02    8.221607e-04
  1.641477e-02    7.738448e-04
  1.671370e-02    7.207645e-04
  1.701263e-02    6.812809e-04
  1.731156e-02    6.442161e-04
  1.761049e-02    6.042157e-04
  1.790942e-02    5.695291e-04
  1.820835e-02    5.365494e-04
  1.850728e-02    5.046091e-04
  1.880621e-02    4.729047e-04
  1.910514e-02    4.439405e-04
  1.940407e-02    4.211240e-04
  1.970300e-02    4.047587e-04
  2.000193e-02    3.931779e-04
  2.030086e-02    3.770104e-04
  2.059979e-02    3.563651e-04
  2.089873e-02    3.423593e-04
  2.119766e-02    3.273381e-04
  2.149659e-02    3.168513e-04
  2.179552e-02    3.071695e-04
  2.209445e-02    2.937905e-04
  2.239338e-02    2.792083e-04
  2.269231e-02    2.708653e-04
  2.299124e-02    2.600897e-04
  2.329017e-02    2.495807e-04
  2.358910e-02    2.436986e-04
  2.388803e-02    2.347786e-04
  2.418696e-02    2.248848e-04
  2.448589e-02    2.197852e-04
  2.478482e-02    2.131033e-04
  2.508375e-02    2.073818e-04
  2.538268e-02    2.010909e-04
  2.568161e-02    1.954837e-04
  2.598054e-02    1.916384e-04
  2.627947e-02    1.890595e-04
  2.657840e-02    1.810257e-04
  2.687733e-02    1.782203e-04
  2.717626e-02    1.760681e-04
  2.747519e-02    1.708590e-04
  2.777412e-02    1.668006e-04
  2.807305e-02    1.636717e-04
  2.837198e-02    1.615008e-04
  2.867092e-02    1.583761e-04
  2.896985e-02    1.549073e-04
  2.926878e-02    1.525118e-04
  2.956771e-02    1.504454e-04
  2.986664e-02    1.485650e-04
  3.016557e-02    1.435097e-04
  3.046450e-02    1.416629e-04
  3.076343e-02    1.404793e-04
  3.106236e-02    1.385093e-04
  3.136129e-02    1.373513e-04
  3.166022e-02    1.369349e-04
  3.195915e-02    1.348470e-04
  3.225808e-02    1.300184e-04
  3.255701e-02    1.294875e-04
  3.285594e-02    1.303910e-04
  3.315487e-02    1.256609e-04
  3.345380e-02    1.239812e-04
  3.375273e-02    1.220523e-04
  3.405166e-02    1.212365e-04
  3.435059e-02    1.200525e-04
  3.464952e-02    1.177675e-04
  3.494845e-02    1.140453e-04
  3.524738e-02    1.128908e-04
  3.554631e-02    1.130015e-04
  3.584524e-02    1.132365e-04
  3.614417e-02    1.112081e-04
  3.644310e-02    1.098902e-04
  3.674204e-02    1.082624e-04
  3.704097e-02    1.073006e-04
  3.733990e-02    1.064688e-04
  3.763883e-02    1.052650e-04
  3.793776e-02    1.055536e-04
  3.823669e-02    1.055900e-04
  3.853562e-02    1.055007e-04
  3.883455e-02    1.015696e-04
  3.913348e-02    1.010257e-04
  3.943241e-02    1.019663e-04
  3.973134e-02    1.010818e-04
  4.003027e-02    1.018954e-04
  4.032920e-02    1.002146e-04
  4.062813e-02    9.891347e-05
  4.092706e-02    9.954135e-05
  4.122599e-02    9.959597e-05
  4.152492e-02    9.895824e-05
  4.182385e-02    9.582169e-05
  4.212278e-02    9.609973e-05
  4.242171e-02    9.527110e-05
  4.272064e-02    9.487815e-05
  4.301957e-02    9.614887e-05
  4.331850e-02    9.501561e-05
  4.361743e-02    9.367998e-05
  4.391636e-02    9.368498e-05
  4.421529e-02    9.475304e-05
  4.451423e-02    9.390952e-05
  4.481316e-02    9.491593e-05
  4.511209e-02    9.451814e-05
  4.541102e-02    9.176621e-05
  4.570995e-02    8.933194e-05
  4.600888e-02    9.136278e-05
  4.630781e-02    9.326437e-05
  4.660674e-02    9.429225e-05
  4.690567e-02    9.450677e-05
  4.720460e-02    9.333479e-05
  4.750353e-02    9.251705e-05
  4.780246e-02    9.266142e-05
  4.810139e-02    9.173865e-05
  4.840032e-02    9.178127e-05
  4.869925e-02    8.979370e-05
  4.899818e-02    9.024615e-05
  4.929711e-02    9.159921e-05
  4.959604e-02    8.977327e-05
  4.989497e-02    8.909491e-05
  5.019390e-02    9.090496e-05
  5.049283e-02    9.223520e-05
  5.079176e-02    9.007420e-05
  5.109069e-02    8.999355e-05
  5.138962e-02    9.113000e-05
  5.168855e-02    9.365640e-05
  5.198748e-02    9.477589e-05
  5.228642e-02    9.357856e-05
  5.258535e-02    9.195539e-05
  5.288428e-02    9.022249e-05
  5.318321e-02    9.034044e-05
  5.348214e-02    9.029522e-05
  5.378107e-02    9.015879e-05
  5.408000e-02    9.037059e-05
  5.437893e-02    8.997654e-05
  5.467786e-02    8.977088e-05
  5.497679e-02    8.829090e-05
  5.527572e-02    8.718418e-05
  5.557465e-02    8.907688e-05
  5.587358e-02    9.046883e-05
  5.617251e-02    9.223177e-05
  5.647144e-02    9.270689e-05
  5.677037e-02    9.110507e-05
  5.706930e-02    9.211184e-05
  5.736823e-02    9.186428e-05
  5.766716e-02    9.096167e-05
  5.796609e-02    9.084090e-05
  5.826502e-02    9.093476e-05
  5.856395e-02    9.085378e-05
  5.886288e-02    8.974146e-05
  5.916181e-02    9.164955e-05
  5.946074e-02    9.163663e-05
  5.975967e-02    8.965404e-05
  6.005861e-02    9.028337e-05
  6.035754e-02    9.203637e-05
  6.065647e-02    9.262652e-05
  6.095540e-02    9.477002e-05
  6.125433e-02    9.301197e-05
  6.155326e-02    9.378279e-05
  6.185219e-02    9.441538e-05
  6.215112e-02    9.273409e-05
  6.245005e-02    9.157377e-05
  6.274898e-02    9.288485e-05
  6.304791e-02    9.363249e-05
  6.334684e-02    9.460503e-05
  6.364577e-02    9.404608e-05
  6.394470e-02    9.366284e-05
  6.424363e-02    9.265791e-05
  6.454256e-02    9.282622e-05
  6.484149e-02    9.256753e-05
  6.514042e-02    9.427906e-05
  6.543935e-02    9.430076e-05
  6.573828e-02    9.383207e-05
  6.603721e-02    9.313034e-05
  6.633614e-02    9.465793e-05
  6.663507e-02    9.484513e-05
  6.693400e-02    9.557258e-05
  6.723293e-02    9.522515e-05
  6.753186e-02    9.472137e-05
  6.783080e-02    9.435478e-05
  6.812973e-02    9.519835e-05
  6.842866e-02    9.502308e-05
  6.872759e-02    9.396029e-05
  6.902652e-02    9.515219e-05
  6.932545e-02    9.585622e-05
  6.962438e-02    9.405417e-05
  6.992331e-02    9.438765e-05
  7.022224e-02    9.527128e-05
  7.052117e-02    9.619183e-05
  7.082010e-02    9.592609e-05
  7.111903e-02    9.451957e-05
  7.141796e-02    9.479585e-05
  7.171689e-02    9.548756e-05
  7.201582e-02    9.522330e-05
  7.231475e-02    9.594582e-05
  7.261368e-02    9.629309e-05
  7.291261e-02    9.645648e-05
  7.321154e-02    9.683452e-05
  7.351047e-02    9.543189e-05
  7.380940e-02    9.635131e-05
  7.410833e-02    9.778434e-05
  7.440726e-02    9.799704e-05
  7.470619e-02    9.814017e-05
  7.500512e-02    9.708152e-05
  7.530405e-02    9.611635e-05
  7.560299e-02    9.611314e-05
  7.590192e-02    9.733121e-05
  7.620085e-02    9.493281e-05
  7.649978e-02    9.440831e-05
  7.679871e-02    9.577288e-05
  7.709764e-02    9.602676e-05
  7.739657e-02    9.665590e-05
  7.769550e-02    9.642364e-05
  7.799443e-02    9.632995e-05
  7.829336e-02    9.542224e-05
  7.859229e-02    9.415973e-05
  7.889122e-02    9.538447e-05
  7.919015e-02    9.578593e-05
  7.948908e-02    9.634122e-05
  7.978801e-02    9.561515e-05
  8.008694e-02    9.487075e-05
  8.038587e-02    9.584560e-05
  8.068480e-02    9.686889e-05
  8.098373e-02    9.685085e-05
  8.128266e-02    9.718458e-05
  8.158159e-02    9.574585e-05
  8.188052e-02    9.520242e-05
  8.217945e-02    9.465627e-05
  8.247838e-02    9.500684e-05
  8.277731e-02    9.474329e-05
  8.307624e-02    9.426463e-05
  8.337518e-02    9.519749e-05
  8.367411e-02    9.414965e-05
  8.397304e-02    9.486341e-05
  8.427197e-02    9.549215e-05
  8.457090e-02    9.538260e-05
  8.486983e-02    9.488210e-05
  8.516876e-02    9.542425e-05
  8.546769e-02    9.481281e-05
  8.576662e-02    9.368083e-05
  8.606555e-02    9.432292e-05
  8.636448e-02    9.308993e-05
  8.666341e-02    9.241614e-05
  8.696234e-02    9.332776e-05
  8.726127e-02    9.401419e-05
  8.756020e-02    9.451713e-05
  8.785913e-02    9.413574e-05
  8.815806e-02    9.307168e-05
  8.845699e-02    9.200459e-05
  8.875592e-02    9.129697e-05
  8.905485e-02    9.123160e-05
  8.935378e-02    9.265175e-05
  8.965271e-02    9.303776e-05
  8.995164e-02    9.146606e-05
  9.025057e-02    9.103946e-05
  9.054950e-02    9.087871e-05
  9.084843e-02    9.024344e-05
  9.114737e-02    9.054082e-05
  9.144630e-02    9.028858e-05
  9.174523e-02    8.998990e-05
  9.204416e-02    8.925798e-05
  9.234309e-02    8.930085e-05
  9.264202e-02    9.004586e-05
  9.294095e-02    8.964598e-05
  9.323988e-02    8.879363e-05
  9.353881e-02    8.818714e-05
  9.383774e-02    8.817086e-05
  9.413667e-02    8.802035e-05
  9.443560e-02    8.818132e-05
  9.473453e-02    8.847834e-05
  9.503346e-02    8.850337e-05
  9.533239e-02    8.844616e-05
  9.563132e-02    8.790594e-05
  9.593025e-02    8.806901e-05
  9.622918e-02    8.818861e-05
  9.652811e-02    8.786687e-05
  9.682704e-02    8.872149e-05
  9.712597e-02    8.868510e-05
  9.742490e-02    8.750769e-05
  9.772383e-02    8.739697e-05
  9.802276e-02    8.690617e-05
  9.832169e-02    8.600164e-05
  9.862062e-02    8.617815e-05
  9.891956e-02    8.605784e-05
  9.921849e-02    8.530089e-05
  9.951742e-02    8.576520e-05
  9.981635e-02    8.541675e-05
  1.001153e-01    8.538935e-05
  1.004142e-01    8.575708e-05
  1.007131e-01    8.560505e-05
  1.010121e-01    8.495615e-05
  1.013110e-01    8.423654e-05
  1.016099e-01    8.300399e-05
  1.019089e-01    8.342808e-05
  1.022078e-01    8.407800e-05
  1.025067e-01    8.371501e-05
  1.028057e-01    8.490987e-05
  1.031046e-01    8.313818e-05
  1.034035e-01    8.259168e-05
  1.037024e-01    8.195862e-05
  1.040014e-01    8.297341e-05
  1.043003e-01    8.327574e-05
  1.045992e-01    8.305346e-05
  1.048982e-01    8.171491e-05
  1.051971e-01    8.004098e-05
  1.054960e-01    8.317082e-05
  1.057950e-01    8.296221e-05
  1.060939e-01    8.270993e-05
  1.063928e-01    8.345464e-05
  1.066917e-01    8.229592e-05
  1.069907e-01    8.283809e-05
  1.072896e-01    8.258605e-05
  1.075885e-01    8.183980e-05
  1.078875e-01    8.133814e-05
  1.081864e-01    8.146520e-05
  1.084853e-01    8.178211e-05
  1.087843e-01    8.053573e-05
  1.090832e-01    8.101620e-05
  1.093821e-01    8.091224e-05
  1.096810e-01    8.151800e-05
  1.099800e-01    8.160432e-05
  1.102789e-01    8.078769e-05
  1.105778e-01    7.975062e-05
  1.108768e-01    7.849101e-05
  1.111757e-01    7.907167e-05
  1.114746e-01    7.947908e-05
  1.117736e-01    7.999422e-05
  1.120725e-01    7.948264e-05
  1.123714e-01    7.797412e-05
  1.126704e-01    7.833540e-05
  1.129693e-01    7.966432e-05
  1.132682e-01    7.690849e-05
  1.135671e-01    7.593878e-05
  1.138661e-01    7.718011e-05
  1.141650e-01    7.627064e-05
  1.144639e-01    7.382651e-05
  1.147629e-01    7.650209e-05
  1.150618e-01    7.746551e-05
  1.153607e-01    7.952176e-05
  1.156597e-01    7.975919e-05
  1.159586e-01    7.672800e-05
  1.162575e-01    7.516419e-05
  1.165564e-01    7.557722e-05
  1.168554e-01    7.460456e-05
  1.171543e-01    7.414784e-05
  1.174532e-01    7.592508e-05
  1.177522e-01    8.086525e-05
  1.180511e-01    8.032686e-05
  1.183500e-01    7.951791e-05
  1.186490e-01    7.879239e-05
  1.189479e-01    7.916729e-05
  1.192468e-01    7.612057e-05
  1.195458e-01    7.257664e-05
  1.198447e-01    7.250802e-05
  1.201436e-01    7.946801e-05
  1.204425e-01    8.569474e-05
  1.207415e-01    7.791945e-05
  1.210404e-01    3.133426e-05
  1.213393e-01    0.000000e+00
  1.216383e-01    0.000000e+00
  1.219372e-01    0.000000e+00
  1.222361e-01    0.000000e+00
  1.225351e-01    0.000000e+00
  1.228340e-01    0.000000e+00
  1.231329e-01    0.000000e+00
  1.234318e-01    0.000000e+00
  1.237308e-01    0.000000e+00
  1.240297e-01    0.000000e+00
  1.243286e-01    0.000000e+00
  1.246276e-01    0.000000e+00
  1.249265e-01    0.000000e+00
  1.252254e-01    0.000000e+00
  1.255244e-01    0.000000e+00
  1.258233e-01    0.000000e+00
  1.261222e-01    0.000000e+00
  1.264212e-01    0.000000e+00
  1.267201e-01    0.000000e+00
  1.270190e-01    0.000000e+00
  1.273179e-01    0.000000e+00
  1.276169e-01    0.000000e+00
  1.279158e-01    0.000000e+00
  1.282147e-01    0.000000e+00
  1.285137e-01    0.000000e+00
  1.288126e-01    0.000000e+00
  1.291115e-01    0.000000e+00
  1.294105e-01    0.000000e+00
  1.297094e-01    0.000000e+00
  1.300083e-01    0.000000e+00
  1.303072e-01    0.000000e+00
  1.306062e-01    0.000000e+00
  1.309051e-01    0.000000e+00
  1.312040e-01    0.000000e+00
  1.315030e-01    0.000000e+00
  1.318019e-01    0.000000e+00
  1.321008e-01    0.000000e+00
  1.323998e-01    0.000000e+00
  1.326987e-01    0.000000e+00
  1.329976e-01    0.000000e+00
  1.332965e-01    0.000000e+00
  1.335955e-01    0.000000e+00
  1.338944e-01    0.000000e+00
  1.341933e-01    0.000000e+00
  1.344923e-01    0.000000e+00
  1.347912e-01    0.000000e+00
  1.350901e-01    0.000000e+00
  1.353891e-01    0.000000e+00
  1.356880e-01    0.000000e+00
  1.359869e-01    0.000000e+00
  1.362859e-01    0.000000e+00
  1.365848e-01    0.000000e+00
  1.368837e-01    0.000000e+00
  1.371826e-01    0.000000e+00
  1.374816e-01    0.000000e+00
  1.377805e-01    0.000000e+00
  1.380794e-01    0.000000e+00
  1.383784e-01    0.000000e+00
  1.386773e-01    0.000000e+00
  1.389762e-01    0.000000e+00
  1.392752e-01    0.000000e+00
  1.395741e-01    0.000000e+00
  1.398730e-01    0.000000e+00
  1.401719e-01    0.000000e+00
  1.404709e-01    0.000000e+00
  1.407698e-01    0.000000e+00
  1.410687e-01    0.000000e+00
  1.413677e-01    0.000000e+00
  1.416666e-01    0.000000e+00
  1.419655e-01    0.000000e+00
  1.422645e-01    0.000000e+00
  1.425634e-01    0.000000e+00
  1.428623e-01    0.000000e+00
  1.431613e-01    0.000000e+00
  1.434602e-01    0.000000e+00
  1.437591e-01    0.000000e+00
  1.440580e-01    0.000000e+00
  1.443570e-01    0.000000e+00
  1.446559e-01    0.000000e+00
  1.449548e-01    0.000000e+00
  1.452538e-01    0.000000e+00
  1.455527e-01    0.000000e+00
  1.458516e-01    0.000000e+00
  1.461506e-01    0.000000e+00
  1.464495e-01    0.000000e+00
  1.467484e-01    0.000000e+00
  1.470473e-01    0.000000e+00
  1.473463e-01    0.000000e+00
  1.476452e-01    0.000000e+00
  1.479441e-01    0.000000e+00
  1.482431e-01    0.000000e+00
  1.485420e-01    0.000000e+00
  1.488409e-01    0.000000e+00
  1.491399e-01    0.000000e+00
  1.494388e-01    0.000000e+00
  1.497377e-01    0.000000e+00
  1.500367e-01    0.000000e+00
  1.503356e-01    0.000000e+00
  1.506345e-01    0.000000e+00
  1.509334e-01    0.000000e+00
  1.512324e-01    0.000000e+00
  1.515313e-01    0.000000e+00
  1.518302e-01    0.000000e+00
  1.521292e-01    0.000000e+00
  1.524281e-01    0.000000e+00
  1.527270e-01    0.000000e+00
  1.530260e-01    0.000000e+00
  1.533249e-01    0.000000e+00
  1.536238e-01    0.000000e+00
