# == pyFAI calibration ==
# Distance Sample to Detector: 2.266 m
# PONI: 5.659e-02, 4.293e-02 m
# Rotations: 0.000000 0.000000 0.000000 rad
# 
# == Fit2d calibration ==
# Distance Sample-beamCenter: 2266.000 mm
# Center: x=249.594, y=329.012 pix
# Tilt: 0.000 deg  TiltPlanRot: 0.000 deg
# 
# Detector Pilatus 300k	 PixelSize= 1.720e-04, 1.720e-04 m
#    Detector has a mask: True 
#    Detector has a dark current: False 
#    detector has a flat field: False 
# 
# Wavelength: 1.27818e-10 m
# Mask applied: user provided
# Dark current applied: False
# Flat field applied: False
# Polarization factor: None
# Normalization factor: 33411.47
# --> latex_CL3252_TiO2_R706_phiT_0.110_PVC_0.000_DOP_0.005_0_r1d.csv
#        q_A^-1             I 
  4.457554e-03    2.536263e-02
  4.756484e-03    2.075584e-02
  5.055415e-03    1.486416e-02
  5.354345e-03    1.028155e-02
  5.653276e-03    7.746029e-03
  5.952206e-03    1.206249e-02
  6.251136e-03    1.104740e-02
  6.550067e-03    9.702352e-03
  6.848997e-03    8.253538e-03
  7.147927e-03    6.965991e-03
  7.446858e-03    5.914372e-03
  7.745788e-03    5.073218e-03
  8.044719e-03    4.351781e-03
  8.343649e-03    3.778643e-03
  8.642579e-03    3.306834e-03
  8.941510e-03    2.909079e-03
  9.240440e-03    2.583461e-03
  9.539371e-03    2.304694e-03
  9.838301e-03    2.064785e-03
  1.013723e-02    1.836436e-03
  1.043616e-02    1.637845e-03
  1.073509e-02    1.466134e-03
  1.103402e-02    1.337599e-03
  1.133295e-02    1.217512e-03
  1.163188e-02    1.114010e-03
  1.193081e-02    1.011885e-03
  1.222974e-02    9.236157e-04
  1.252867e-02    8.495150e-04
  1.282760e-02    7.772163e-04
  1.312654e-02    7.242240e-04
  1.342547e-02    6.677763e-04
  1.372440e-02    6.124850e-04
  1.402333e-02    5.616987e-04
  1.432226e-02    5.287250e-04
  1.462119e-02    4.842408e-04
  1.492012e-02    4.575040e-04
  1.521905e-02    4.313060e-04
  1.551798e-02    4.028361e-04
  1.581691e-02    3.835853e-04
  1.611584e-02    3.643794e-04
  1.641477e-02    3.394187e-04
  1.671370e-02    3.197659e-04
  1.701263e-02    2.950735e-04
  1.731156e-02    2.767196e-04
  1.761049e-02    2.652275e-04
  1.790942e-02    2.486864e-04
  1.820835e-02    2.375994e-04
  1.850728e-02    2.295027e-04
  1.880621e-02    2.241599e-04
  1.910514e-02    2.101998e-04
  1.940407e-02    2.078560e-04
  1.970300e-02    2.011631e-04
  2.000193e-02    1.933757e-04
  2.030086e-02    1.876443e-04
  2.059979e-02    1.814803e-04
  2.089873e-02    1.694670e-04
  2.119766e-02    1.637982e-04
  2.149659e-02    1.620679e-04
  2.179552e-02    1.544846e-04
  2.209445e-02    1.522187e-04
  2.239338e-02    1.484774e-04
  2.269231e-02    1.398839e-04
  2.299124e-02    1.327300e-04
  2.329017e-02    1.328285e-04
  2.358910e-02    1.350601e-04
  2.388803e-02    1.298420e-04
  2.418696e-02    1.216581e-04
  2.448589e-02    1.187438e-04
  2.478482e-02    1.191109e-04
  2.508375e-02    1.180746e-04
  2.538268e-02    1.157975e-04
  2.568161e-02    1.132583e-04
  2.598054e-02    1.120758e-04
  2.627947e-02    1.067905e-04
  2.657840e-02    1.053739e-04
  2.687733e-02    1.068048e-04
  2.717626e-02    1.045358e-04
  2.747519e-02    1.033760e-04
  2.777412e-02    1.046467e-04
  2.807305e-02    1.019147e-04
  2.837198e-02    9.686348e-05
  2.867092e-02    9.408284e-05
  2.896985e-02    9.355581e-05
  2.926878e-02    9.299637e-05
  2.956771e-02    9.513295e-05
  2.986664e-02    9.385892e-05
  3.016557e-02    9.251958e-05
  3.046450e-02    9.144935e-05
  3.076343e-02    8.943698e-05
  3.106236e-02    8.584892e-05
  3.136129e-02    8.858510e-05
  3.166022e-02    9.172751e-05
  3.195915e-02    8.615367e-05
  3.225808e-02    8.409242e-05
  3.255701e-02    8.309346e-05
  3.285594e-02    8.299980e-05
  3.315487e-02    8.232443e-05
  3.345380e-02    8.233251e-05
  3.375273e-02    8.195519e-05
  3.405166e-02    8.215706e-05
  3.435059e-02    7.929379e-05
  3.464952e-02    7.669735e-05
  3.494845e-02    7.501751e-05
  3.524738e-02    7.498518e-05
  3.554631e-02    7.582509e-05
  3.584524e-02    7.376158e-05
  3.614417e-02    7.516570e-05
  3.644310e-02    7.544288e-05
  3.674204e-02    7.591063e-05
  3.704097e-02    7.534855e-05
  3.733990e-02    7.538729e-05
  3.763883e-02    7.427550e-05
  3.793776e-02    7.159558e-05
  3.823669e-02    7.051947e-05
  3.853562e-02    6.752335e-05
  3.883455e-02    6.888009e-05
  3.913348e-02    7.188144e-05
  3.943241e-02    6.974238e-05
  3.973134e-02    6.994038e-05
  4.003027e-02    6.867649e-05
  4.032920e-02    6.580287e-05
  4.062813e-02    6.585009e-05
  4.092706e-02    6.787249e-05
  4.122599e-02    6.656653e-05
  4.152492e-02    6.561630e-05
  4.182385e-02    6.435472e-05
  4.212278e-02    6.638158e-05
  4.242171e-02    6.673223e-05
  4.272064e-02    6.587653e-05
  4.301957e-02    6.789924e-05
  4.331850e-02    6.713212e-05
  4.361743e-02    6.442581e-05
  4.391636e-02    6.639052e-05
  4.421529e-02    6.632371e-05
  4.451423e-02    6.715902e-05
  4.481316e-02    6.746600e-05
  4.511209e-02    6.652743e-05
  4.541102e-02    6.534105e-05
  4.570995e-02    6.565007e-05
  4.600888e-02    6.301898e-05
  4.630781e-02    6.120453e-05
  4.660674e-02    6.160115e-05
  4.690567e-02    6.372219e-05
  4.720460e-02    6.673599e-05
  4.750353e-02    6.757150e-05
  4.780246e-02    6.528024e-05
  4.810139e-02    6.370380e-05
  4.840032e-02    6.385648e-05
  4.869925e-02    6.439513e-05
  4.899818e-02    6.391158e-05
  4.929711e-02    6.492101e-05
  4.959604e-02    6.448579e-05
  4.989497e-02    6.262714e-05
  5.019390e-02    6.260557e-05
  5.049283e-02    6.372685e-05
  5.079176e-02    6.518593e-05
  5.109069e-02    6.568395e-05
  5.138962e-02    6.478818e-05
  5.168855e-02    6.699723e-05
  5.198748e-02    6.877525e-05
  5.228642e-02    6.915205e-05
  5.258535e-02    6.652297e-05
  5.288428e-02    6.342245e-05
  5.318321e-02    6.328163e-05
  5.348214e-02    6.389652e-05
  5.378107e-02    6.468299e-05
  5.408000e-02    6.694467e-05
  5.437893e-02    6.385348e-05
  5.467786e-02    6.124096e-05
  5.497679e-02    6.005613e-05
  5.527572e-02    6.150985e-05
  5.557465e-02    6.433861e-05
  5.587358e-02    6.559528e-05
  5.617251e-02    6.414056e-05
  5.647144e-02    6.354478e-05
  5.677037e-02    6.316528e-05
  5.706930e-02    6.300793e-05
  5.736823e-02    6.368371e-05
  5.766716e-02    6.387335e-05
  5.796609e-02    6.446456e-05
  5.826502e-02    6.304471e-05
  5.856395e-02    6.286946e-05
  5.886288e-02    6.401733e-05
  5.916181e-02    6.426438e-05
  5.946074e-02    6.427987e-05
  5.975967e-02    6.562936e-05
  6.005861e-02    6.637917e-05
  6.035754e-02    6.419087e-05
  6.065647e-02    6.491609e-05
  6.095540e-02    6.506178e-05
  6.125433e-02    6.732298e-05
  6.155326e-02    6.829026e-05
  6.185219e-02    6.708090e-05
  6.215112e-02    6.549199e-05
  6.245005e-02    6.534872e-05
  6.274898e-02    6.457609e-05
  6.304791e-02    6.377733e-05
  6.334684e-02    6.355747e-05
  6.364577e-02    6.574302e-05
  6.394470e-02    6.558468e-05
  6.424363e-02    6.590532e-05
  6.454256e-02    6.528375e-05
  6.484149e-02    6.351179e-05
  6.514042e-02    6.402108e-05
  6.543935e-02    6.592213e-05
  6.573828e-02    6.648289e-05
  6.603721e-02    6.692706e-05
  6.633614e-02    6.625452e-05
  6.663507e-02    6.644992e-05
  6.693400e-02    6.600782e-05
  6.723293e-02    6.748315e-05
  6.753186e-02    6.807889e-05
  6.783080e-02    6.630277e-05
  6.812973e-02    6.655894e-05
  6.842866e-02    6.472458e-05
  6.872759e-02    6.449887e-05
  6.902652e-02    6.574908e-05
  6.932545e-02    6.864729e-05
  6.962438e-02    6.650524e-05
  6.992331e-02    6.532147e-05
  7.022224e-02    6.587494e-05
  7.052117e-02    6.613503e-05
  7.082010e-02    6.724222e-05
  7.111903e-02    6.717876e-05
  7.141796e-02    6.749262e-05
  7.171689e-02    6.777626e-05
  7.201582e-02    6.838358e-05
  7.231475e-02    6.960367e-05
  7.261368e-02    6.867811e-05
  7.291261e-02    6.658843e-05
  7.321154e-02    6.626852e-05
  7.351047e-02    6.550209e-05
  7.380940e-02    6.612355e-05
  7.410833e-02    6.741299e-05
  7.440726e-02    6.816949e-05
  7.470619e-02    6.866051e-05
  7.500512e-02    6.920495e-05
  7.530405e-02    6.970785e-05
  7.560299e-02    6.766700e-05
  7.590192e-02    6.595493e-05
  7.620085e-02    6.703394e-05
  7.649978e-02    6.699486e-05
  7.679871e-02    6.813304e-05
  7.709764e-02    6.948657e-05
  7.739657e-02    6.837125e-05
  7.769550e-02    6.897510e-05
  7.799443e-02    6.824660e-05
  7.829336e-02    6.653645e-05
  7.859229e-02    6.902185e-05
  7.889122e-02    6.832604e-05
  7.919015e-02    6.664196e-05
  7.948908e-02    6.840932e-05
  7.978801e-02    6.815857e-05
  8.008694e-02    6.642025e-05
  8.038587e-02    6.671118e-05
  8.068480e-02    6.718576e-05
  8.098373e-02    6.833464e-05
  8.128266e-02    6.775618e-05
  8.158159e-02    6.575530e-05
  8.188052e-02    6.528648e-05
  8.217945e-02    6.556515e-05
  8.247838e-02    6.519278e-05
  8.277731e-02    6.608150e-05
  8.307624e-02    6.590197e-05
  8.337518e-02    6.659365e-05
  8.367411e-02    6.687811e-05
  8.397304e-02    6.653521e-05
  8.427197e-02    6.579455e-05
  8.457090e-02    6.708460e-05
  8.486983e-02    6.650267e-05
  8.516876e-02    6.634454e-05
  8.546769e-02    6.663751e-05
  8.576662e-02    6.715128e-05
  8.606555e-02    6.735495e-05
  8.636448e-02    6.536232e-05
  8.666341e-02    6.481782e-05
  8.696234e-02    6.525468e-05
  8.726127e-02    6.518054e-05
  8.756020e-02    6.417149e-05
  8.785913e-02    6.424286e-05
  8.815806e-02    6.429616e-05
  8.845699e-02    6.500943e-05
  8.875592e-02    6.403684e-05
  8.905485e-02    6.388253e-05
  8.935378e-02    6.277290e-05
  8.965271e-02    6.231518e-05
  8.995164e-02    6.284758e-05
  9.025057e-02    6.284268e-05
  9.054950e-02    6.263815e-05
  9.084843e-02    6.362921e-05
  9.114737e-02    6.303655e-05
  9.144630e-02    6.365041e-05
  9.174523e-02    6.291378e-05
  9.204416e-02    6.434470e-05
  9.234309e-02    6.344214e-05
  9.264202e-02    6.140640e-05
  9.294095e-02    6.125142e-05
  9.323988e-02    6.262859e-05
  9.353881e-02    6.138565e-05
  9.383774e-02    6.254885e-05
  9.413667e-02    6.303484e-05
  9.443560e-02    6.111400e-05
  9.473453e-02    6.181299e-05
  9.503346e-02    6.302210e-05
  9.533239e-02    6.271635e-05
  9.563132e-02    6.113578e-05
  9.593025e-02    6.139802e-05
  9.622918e-02    6.249446e-05
  9.652811e-02    6.183651e-05
  9.682704e-02    6.063851e-05
  9.712597e-02    6.054357e-05
  9.742490e-02    6.028812e-05
  9.772383e-02    5.973127e-05
  9.802276e-02    5.912889e-05
  9.832169e-02    6.033005e-05
  9.862062e-02    5.922663e-05
  9.891956e-02    5.858379e-05
  9.921849e-02    5.916394e-05
  9.951742e-02    6.024513e-05
  9.981635e-02    6.038385e-05
  1.001153e-01    6.019072e-05
  1.004142e-01    6.050842e-05
  1.007131e-01    6.019286e-05
  1.010121e-01    5.874935e-05
  1.013110e-01    5.818321e-05
  1.016099e-01    5.950387e-05
  1.019089e-01    5.874337e-05
  1.022078e-01    5.820772e-05
  1.025067e-01    5.891352e-05
  1.028057e-01    5.807499e-05
  1.031046e-01    5.719376e-05
  1.034035e-01    5.754635e-05
  1.037024e-01    5.725168e-05
  1.040014e-01    5.744170e-05
  1.043003e-01    5.825141e-05
  1.045992e-01    5.797204e-05
  1.048982e-01    5.689938e-05
  1.051971e-01    5.604182e-05
  1.054960e-01    5.776363e-05
  1.057950e-01    5.803221e-05
  1.060939e-01    5.711476e-05
  1.063928e-01    5.867984e-05
  1.066917e-01    5.851125e-05
  1.069907e-01    5.613961e-05
  1.072896e-01    5.732338e-05
  1.075885e-01    5.672581e-05
  1.078875e-01    5.699368e-05
  1.081864e-01    5.731538e-05
  1.084853e-01    5.684497e-05
  1.087843e-01    5.611189e-05
  1.090832e-01    5.654716e-05
  1.093821e-01    5.818457e-05
  1.096810e-01    5.667529e-05
  1.099800e-01    5.464102e-05
  1.102789e-01    5.581670e-05
  1.105778e-01    5.417821e-05
  1.108768e-01    5.373646e-05
  1.111757e-01    5.548514e-05
  1.114746e-01    5.545275e-05
  1.117736e-01    5.525472e-05
  1.120725e-01    5.745672e-05
  1.123714e-01    5.674376e-05
  1.126704e-01    5.355254e-05
  1.129693e-01    5.375750e-05
  1.132682e-01    5.548167e-05
  1.135671e-01    5.490778e-05
  1.138661e-01    5.447247e-05
  1.141650e-01    5.100512e-05
  1.144639e-01    5.100601e-05
  1.147629e-01    5.280231e-05
  1.150618e-01    5.388443e-05
  1.153607e-01    5.545154e-05
  1.156597e-01    5.547092e-05
  1.159586e-01    5.307950e-05
  1.162575e-01    5.124682e-05
  1.165564e-01    5.306277e-05
  1.168554e-01    5.338177e-05
  1.171543e-01    5.167552e-05
  1.174532e-01    5.581447e-05
  1.177522e-01    5.689932e-05
  1.180511e-01    5.548492e-05
  1.183500e-01    5.632887e-05
  1.186490e-01    5.502559e-05
  1.189479e-01    5.041640e-05
  1.192468e-01    4.985035e-05
  1.195458e-01    5.505499e-05
  1.198447e-01    5.494553e-05
  1.201436e-01    5.501235e-05
  1.204425e-01    4.391251e-05
  1.207415e-01    3.937173e-05
  1.210404e-01    5.991391e-05
  1.213393e-01    0.000000e+00
  1.216383e-01    0.000000e+00
  1.219372e-01    0.000000e+00
  1.222361e-01    0.000000e+00
  1.225351e-01    0.000000e+00
  1.228340e-01    0.000000e+00
  1.231329e-01    0.000000e+00
  1.234318e-01    0.000000e+00
  1.237308e-01    0.000000e+00
  1.240297e-01    0.000000e+00
  1.243286e-01    0.000000e+00
  1.246276e-01    0.000000e+00
  1.249265e-01    0.000000e+00
  1.252254e-01    0.000000e+00
  1.255244e-01    0.000000e+00
  1.258233e-01    0.000000e+00
  1.261222e-01    0.000000e+00
  1.264212e-01    0.000000e+00
  1.267201e-01    0.000000e+00
  1.270190e-01    0.000000e+00
  1.273179e-01    0.000000e+00
  1.276169e-01    0.000000e+00
  1.279158e-01    0.000000e+00
  1.282147e-01    0.000000e+00
  1.285137e-01    0.000000e+00
  1.288126e-01    0.000000e+00
  1.291115e-01    0.000000e+00
  1.294105e-01    0.000000e+00
  1.297094e-01    0.000000e+00
  1.300083e-01    0.000000e+00
  1.303072e-01    0.000000e+00
  1.306062e-01    0.000000e+00
  1.309051e-01    0.000000e+00
  1.312040e-01    0.000000e+00
  1.315030e-01    0.000000e+00
  1.318019e-01    0.000000e+00
  1.321008e-01    0.000000e+00
  1.323998e-01    0.000000e+00
  1.326987e-01    0.000000e+00
  1.329976e-01    0.000000e+00
  1.332965e-01    0.000000e+00
  1.335955e-01    0.000000e+00
  1.338944e-01    0.000000e+00
  1.341933e-01    0.000000e+00
  1.344923e-01    0.000000e+00
  1.347912e-01    0.000000e+00
  1.350901e-01    0.000000e+00
  1.353891e-01    0.000000e+00
  1.356880e-01    0.000000e+00
  1.359869e-01    0.000000e+00
  1.362859e-01    0.000000e+00
  1.365848e-01    0.000000e+00
  1.368837e-01    0.000000e+00
  1.371826e-01    0.000000e+00
  1.374816e-01    0.000000e+00
  1.377805e-01    0.000000e+00
  1.380794e-01    0.000000e+00
  1.383784e-01    0.000000e+00
  1.386773e-01    0.000000e+00
  1.389762e-01    0.000000e+00
  1.392752e-01    0.000000e+00
  1.395741e-01    0.000000e+00
  1.398730e-01    0.000000e+00
  1.401719e-01    0.000000e+00
  1.404709e-01    0.000000e+00
  1.407698e-01    0.000000e+00
  1.410687e-01    0.000000e+00
  1.413677e-01    0.000000e+00
  1.416666e-01    0.000000e+00
  1.419655e-01    0.000000e+00
  1.422645e-01    0.000000e+00
  1.425634e-01    0.000000e+00
  1.428623e-01    0.000000e+00
  1.431613e-01    0.000000e+00
  1.434602e-01    0.000000e+00
  1.437591e-01    0.000000e+00
  1.440580e-01    0.000000e+00
  1.443570e-01    0.000000e+00
  1.446559e-01    0.000000e+00
  1.449548e-01    0.000000e+00
  1.452538e-01    0.000000e+00
  1.455527e-01    0.000000e+00
  1.458516e-01    0.000000e+00
  1.461506e-01    0.000000e+00
  1.464495e-01    0.000000e+00
  1.467484e-01    0.000000e+00
  1.470473e-01    0.000000e+00
  1.473463e-01    0.000000e+00
  1.476452e-01    0.000000e+00
  1.479441e-01    0.000000e+00
  1.482431e-01    0.000000e+00
  1.485420e-01    0.000000e+00
  1.488409e-01    0.000000e+00
  1.491399e-01    0.000000e+00
  1.494388e-01    0.000000e+00
  1.497377e-01    0.000000e+00
  1.500367e-01    0.000000e+00
  1.503356e-01    0.000000e+00
  1.506345e-01    0.000000e+00
  1.509334e-01    0.000000e+00
  1.512324e-01    0.000000e+00
  1.515313e-01    0.000000e+00
  1.518302e-01    0.000000e+00
  1.521292e-01    0.000000e+00
  1.524281e-01    0.000000e+00
  1.527270e-01    0.000000e+00
  1.530260e-01    0.000000e+00
  1.533249e-01    0.000000e+00
  1.536238e-01    0.000000e+00
