# == pyFAI calibration ==
# Distance Sample to Detector: 2.266 m
# PONI: 5.659e-02, 4.293e-02 m
# Rotations: 0.000000 0.000000 0.000000 rad
# 
# == Fit2d calibration ==
# Distance Sample-beamCenter: 2266.000 mm
# Center: x=249.594, y=329.012 pix
# Tilt: 0.000 deg  TiltPlanRot: 0.000 deg
# 
# Detector Pilatus 300k	 PixelSize= 1.720e-04, 1.720e-04 m
#    Detector has a mask: True 
#    Detector has a dark current: False 
#    detector has a flat field: False 
# 
# Wavelength: 1.27818e-10 m
# Mask applied: user provided
# Dark current applied: False
# Flat field applied: False
# Polarization factor: None
# Normalization factor: 1095.7299999999998
# --> latex_CL3252_TiO2_R706_phiT_0.030_PVC_0.800_DOP_0.005_2_r1d.csv
#        q_A^-1             I 
  4.457554e-03    7.368380e+01
  4.756484e-03    6.455474e+01
  5.055415e-03    5.394740e+01
  5.354345e-03    4.429397e+01
  5.653276e-03    3.758014e+01
  5.952206e-03    8.240824e+01
  6.251136e-03    7.617806e+01
  6.550067e-03    6.607604e+01
  6.848997e-03    5.484348e+01
  7.147927e-03    4.471964e+01
  7.446858e-03    3.677919e+01
  7.745788e-03    3.034130e+01
  8.044719e-03    2.515771e+01
  8.343649e-03    2.115040e+01
  8.642579e-03    1.783718e+01
  8.941510e-03    1.517357e+01
  9.240440e-03    1.299928e+01
  9.539371e-03    1.113929e+01
  9.838301e-03    9.606141e+00
  1.013723e-02    8.362462e+00
  1.043616e-02    7.303478e+00
  1.073509e-02    6.346672e+00
  1.103402e-02    5.580549e+00
  1.133295e-02    4.927298e+00
  1.163188e-02    4.377797e+00
  1.193081e-02    3.910286e+00
  1.222974e-02    3.496943e+00
  1.252867e-02    3.136025e+00
  1.282760e-02    2.821254e+00
  1.312654e-02    2.549394e+00
  1.342547e-02    2.310089e+00
  1.372440e-02    2.093704e+00
  1.402333e-02    1.904864e+00
  1.432226e-02    1.734194e+00
  1.462119e-02    1.583367e+00
  1.492012e-02    1.448598e+00
  1.521905e-02    1.324796e+00
  1.551798e-02    1.216166e+00
  1.581691e-02    1.118968e+00
  1.611584e-02    1.030469e+00
  1.641477e-02    9.494482e-01
  1.671370e-02    8.765662e-01
  1.701263e-02    8.115565e-01
  1.731156e-02    7.498916e-01
  1.761049e-02    6.973844e-01
  1.790942e-02    6.484900e-01
  1.820835e-02    6.026077e-01
  1.850728e-02    5.604818e-01
  1.880621e-02    5.216489e-01
  1.910514e-02    4.852550e-01
  1.940407e-02    4.518314e-01
  1.970300e-02    4.242825e-01
  2.000193e-02    3.975961e-01
  2.030086e-02    3.718826e-01
  2.059979e-02    3.492109e-01
  2.089873e-02    3.268507e-01
  2.119766e-02    3.067322e-01
  2.149659e-02    2.888040e-01
  2.179552e-02    2.726213e-01
  2.209445e-02    2.574039e-01
  2.239338e-02    2.421838e-01
  2.269231e-02    2.290434e-01
  2.299124e-02    2.164509e-01
  2.329017e-02    2.033335e-01
  2.358910e-02    1.920534e-01
  2.388803e-02    1.819674e-01
  2.418696e-02    1.723296e-01
  2.448589e-02    1.636313e-01
  2.478482e-02    1.544733e-01
  2.508375e-02    1.460797e-01
  2.538268e-02    1.388966e-01
  2.568161e-02    1.317806e-01
  2.598054e-02    1.252525e-01
  2.627947e-02    1.193729e-01
  2.657840e-02    1.136604e-01
  2.687733e-02    1.085079e-01
  2.717626e-02    1.038368e-01
  2.747519e-02    9.909388e-02
  2.777412e-02    9.372620e-02
  2.807305e-02    8.919435e-02
  2.837198e-02    8.464251e-02
  2.867092e-02    8.142631e-02
  2.896985e-02    7.813469e-02
  2.926878e-02    7.485648e-02
  2.956771e-02    7.130061e-02
  2.986664e-02    6.779409e-02
  3.016557e-02    6.532388e-02
  3.046450e-02    6.270928e-02
  3.076343e-02    5.980999e-02
  3.106236e-02    5.738910e-02
  3.136129e-02    5.563516e-02
  3.166022e-02    5.304260e-02
  3.195915e-02    5.040098e-02
  3.225808e-02    4.865626e-02
  3.255701e-02    4.703987e-02
  3.285594e-02    4.500291e-02
  3.315487e-02    4.334606e-02
  3.345380e-02    4.194682e-02
  3.375273e-02    4.042055e-02
  3.405166e-02    3.890257e-02
  3.435059e-02    3.702262e-02
  3.464952e-02    3.546606e-02
  3.494845e-02    3.433264e-02
  3.524738e-02    3.320708e-02
  3.554631e-02    3.220702e-02
  3.584524e-02    3.118172e-02
  3.614417e-02    2.996385e-02
  3.644310e-02    2.861969e-02
  3.674204e-02    2.753514e-02
  3.704097e-02    2.677333e-02
  3.733990e-02    2.610581e-02
  3.763883e-02    2.508415e-02
  3.793776e-02    2.394575e-02
  3.823669e-02    2.317183e-02
  3.853562e-02    2.260862e-02
  3.883455e-02    2.174035e-02
  3.913348e-02    2.103597e-02
  3.943241e-02    2.055348e-02
  3.973134e-02    2.002478e-02
  4.003027e-02    1.939523e-02
  4.032920e-02    1.870614e-02
  4.062813e-02    1.791028e-02
  4.092706e-02    1.737503e-02
  4.122599e-02    1.695316e-02
  4.152492e-02    1.642548e-02
  4.182385e-02    1.585559e-02
  4.212278e-02    1.538252e-02
  4.242171e-02    1.500245e-02
  4.272064e-02    1.448616e-02
  4.301957e-02    1.404528e-02
  4.331850e-02    1.367579e-02
  4.361743e-02    1.338955e-02
  4.391636e-02    1.285050e-02
  4.421529e-02    1.254935e-02
  4.451423e-02    1.233558e-02
  4.481316e-02    1.199159e-02
  4.511209e-02    1.176473e-02
  4.541102e-02    1.150481e-02
  4.570995e-02    1.105926e-02
  4.600888e-02    1.053520e-02
  4.630781e-02    1.041003e-02
  4.660674e-02    1.018603e-02
  4.690567e-02    9.910234e-03
  4.720460e-02    9.692485e-03
  4.750353e-02    9.516658e-03
  4.780246e-02    9.200491e-03
  4.810139e-02    8.915157e-03
  4.840032e-02    8.804259e-03
  4.869925e-02    8.707110e-03
  4.899818e-02    8.447672e-03
  4.929711e-02    8.233660e-03
  4.959604e-02    8.070849e-03
  4.989497e-02    7.768075e-03
  5.019390e-02    7.653757e-03
  5.049283e-02    7.441753e-03
  5.079176e-02    7.333882e-03
  5.109069e-02    7.271938e-03
  5.138962e-02    7.233883e-03
  5.168855e-02    7.062555e-03
  5.198748e-02    6.873222e-03
  5.228642e-02    6.904466e-03
  5.258535e-02    6.743781e-03
  5.288428e-02    6.472961e-03
  5.318321e-02    6.279742e-03
  5.348214e-02    6.103835e-03
  5.378107e-02    5.998072e-03
  5.408000e-02    5.866487e-03
  5.437893e-02    5.744169e-03
  5.467786e-02    5.595604e-03
  5.497679e-02    5.484766e-03
  5.527572e-02    5.499667e-03
  5.557465e-02    5.410120e-03
  5.587358e-02    5.263307e-03
  5.617251e-02    5.039021e-03
  5.647144e-02    4.931217e-03
  5.677037e-02    4.863231e-03
  5.706930e-02    4.808336e-03
  5.736823e-02    4.662951e-03
  5.766716e-02    4.583869e-03
  5.796609e-02    4.583955e-03
  5.826502e-02    4.474706e-03
  5.856395e-02    4.377334e-03
  5.886288e-02    4.302412e-03
  5.916181e-02    4.240968e-03
  5.946074e-02    4.099098e-03
  5.975967e-02    4.062996e-03
  6.005861e-02    4.027396e-03
  6.035754e-02    3.973975e-03
  6.065647e-02    3.945592e-03
  6.095540e-02    3.926972e-03
  6.125433e-02    3.818193e-03
  6.155326e-02    3.839615e-03
  6.185219e-02    3.856127e-03
  6.215112e-02    3.784815e-03
  6.245005e-02    3.663664e-03
  6.274898e-02    3.595090e-03
  6.304791e-02    3.553793e-03
  6.334684e-02    3.477408e-03
  6.364577e-02    3.427839e-03
  6.394470e-02    3.358894e-03
  6.424363e-02    3.330001e-03
  6.454256e-02    3.275974e-03
  6.484149e-02    3.205923e-03
  6.514042e-02    3.150632e-03
  6.543935e-02    3.173173e-03
  6.573828e-02    3.173209e-03
  6.603721e-02    3.077374e-03
  6.633614e-02    3.005602e-03
  6.663507e-02    2.952873e-03
  6.693400e-02    2.932171e-03
  6.723293e-02    2.891754e-03
  6.753186e-02    2.900062e-03
  6.783080e-02    2.891287e-03
  6.812973e-02    2.856827e-03
  6.842866e-02    2.777734e-03
  6.872759e-02    2.761467e-03
  6.902652e-02    2.754393e-03
  6.932545e-02    2.666013e-03
  6.962438e-02    2.626098e-03
  6.992331e-02    2.638535e-03
  7.022224e-02    2.592194e-03
  7.052117e-02    2.562994e-03
  7.082010e-02    2.576305e-03
  7.111903e-02    2.525740e-03
  7.141796e-02    2.504336e-03
  7.171689e-02    2.443529e-03
  7.201582e-02    2.424155e-03
  7.231475e-02    2.480085e-03
  7.261368e-02    2.467977e-03
  7.291261e-02    2.413419e-03
  7.321154e-02    2.400495e-03
  7.351047e-02    2.388043e-03
  7.380940e-02    2.397374e-03
  7.410833e-02    2.326617e-03
  7.440726e-02    2.244455e-03
  7.470619e-02    2.260827e-03
  7.500512e-02    2.236934e-03
  7.530405e-02    2.206472e-03
  7.560299e-02    2.152809e-03
  7.590192e-02    2.135925e-03
  7.620085e-02    2.127353e-03
  7.649978e-02    2.083637e-03
  7.679871e-02    2.117279e-03
  7.709764e-02    2.053500e-03
  7.739657e-02    2.018440e-03
  7.769550e-02    2.057952e-03
  7.799443e-02    2.074747e-03
  7.829336e-02    2.018357e-03
  7.859229e-02    1.969802e-03
  7.889122e-02    1.963361e-03
  7.919015e-02    1.975927e-03
  7.948908e-02    1.931530e-03
  7.978801e-02    1.937657e-03
  8.008694e-02    1.938648e-03
  8.038587e-02    1.884672e-03
  8.068480e-02    1.884897e-03
  8.098373e-02    1.913034e-03
  8.128266e-02    1.896626e-03
  8.158159e-02    1.845409e-03
  8.188052e-02    1.832955e-03
  8.217945e-02    1.835825e-03
  8.247838e-02    1.790463e-03
  8.277731e-02    1.789379e-03
  8.307624e-02    1.755439e-03
  8.337518e-02    1.725502e-03
  8.367411e-02    1.737293e-03
  8.397304e-02    1.705563e-03
  8.427197e-02    1.704619e-03
  8.457090e-02    1.663123e-03
  8.486983e-02    1.673341e-03
  8.516876e-02    1.647595e-03
  8.546769e-02    1.622466e-03
  8.576662e-02    1.610635e-03
  8.606555e-02    1.588083e-03
  8.636448e-02    1.622392e-03
  8.666341e-02    1.581977e-03
  8.696234e-02    1.514179e-03
  8.726127e-02    1.550586e-03
  8.756020e-02    1.584922e-03
  8.785913e-02    1.522511e-03
  8.815806e-02    1.479792e-03
  8.845699e-02    1.482484e-03
  8.875592e-02    1.490086e-03
  8.905485e-02    1.474357e-03
  8.935378e-02    1.461251e-03
  8.965271e-02    1.427699e-03
  8.995164e-02    1.429230e-03
  9.025057e-02    1.424988e-03
  9.054950e-02    1.388317e-03
  9.084843e-02    1.394623e-03
  9.114737e-02    1.408763e-03
  9.144630e-02    1.404176e-03
  9.174523e-02    1.359369e-03
  9.204416e-02    1.344353e-03
  9.234309e-02    1.325851e-03
  9.264202e-02    1.283865e-03
  9.294095e-02    1.271262e-03
  9.323988e-02    1.259782e-03
  9.353881e-02    1.236278e-03
  9.383774e-02    1.225540e-03
  9.413667e-02    1.252394e-03
  9.443560e-02    1.243521e-03
  9.473453e-02    1.253185e-03
  9.503346e-02    1.274724e-03
  9.533239e-02    1.252286e-03
  9.563132e-02    1.246455e-03
  9.593025e-02    1.254998e-03
  9.622918e-02    1.252454e-03
  9.652811e-02    1.237002e-03
  9.682704e-02    1.237627e-03
  9.712597e-02    1.242579e-03
  9.742490e-02    1.240031e-03
  9.772383e-02    1.216968e-03
  9.802276e-02    1.227705e-03
  9.832169e-02    1.210122e-03
  9.862062e-02    1.244489e-03
  9.891956e-02    1.226283e-03
  9.921849e-02    1.162337e-03
  9.951742e-02    1.108109e-03
  9.981635e-02    1.062547e-03
  1.001153e-01    1.090667e-03
  1.004142e-01    1.160597e-03
  1.007131e-01    1.146305e-03
  1.010121e-01    1.122588e-03
  1.013110e-01    1.119137e-03
  1.016099e-01    1.098424e-03
  1.019089e-01    1.065029e-03
  1.022078e-01    1.066867e-03
  1.025067e-01    1.058433e-03
  1.028057e-01    1.032208e-03
  1.031046e-01    1.042386e-03
  1.034035e-01    1.014684e-03
  1.037024e-01    9.577565e-04
  1.040014e-01    9.598440e-04
  1.043003e-01    1.002879e-03
  1.045992e-01    1.025651e-03
  1.048982e-01    1.001710e-03
  1.051971e-01    9.912740e-04
  1.054960e-01    1.017311e-03
  1.057950e-01    9.944343e-04
  1.060939e-01    9.659249e-04
  1.063928e-01    9.539968e-04
  1.066917e-01    9.618846e-04
  1.069907e-01    9.642691e-04
  1.072896e-01    9.814659e-04
  1.075885e-01    9.862655e-04
  1.078875e-01    9.609259e-04
  1.081864e-01    9.317169e-04
  1.084853e-01    9.588721e-04
  1.087843e-01    9.815213e-04
  1.090832e-01    9.407479e-04
  1.093821e-01    9.599116e-04
  1.096810e-01    9.581845e-04
  1.099800e-01    9.569816e-04
  1.102789e-01    9.791229e-04
  1.105778e-01    9.805374e-04
  1.108768e-01    9.983840e-04
  1.111757e-01    9.606596e-04
  1.114746e-01    9.704103e-04
  1.117736e-01    9.460181e-04
  1.120725e-01    8.936943e-04
  1.123714e-01    8.640810e-04
  1.126704e-01    8.898164e-04
  1.129693e-01    8.763399e-04
  1.132682e-01    8.489896e-04
  1.135671e-01    8.654662e-04
  1.138661e-01    8.689026e-04
  1.141650e-01    8.088811e-04
  1.144639e-01    8.189569e-04
  1.147629e-01    7.909973e-04
  1.150618e-01    7.340764e-04
  1.153607e-01    7.078425e-04
  1.156597e-01    7.521106e-04
  1.159586e-01    7.413061e-04
  1.162575e-01    7.696016e-04
  1.165564e-01    7.983563e-04
  1.168554e-01    7.162553e-04
  1.171543e-01    7.085443e-04
  1.174532e-01    7.253659e-04
  1.177522e-01    7.746078e-04
  1.180511e-01    8.172689e-04
  1.183500e-01    8.232352e-04
  1.186490e-01    8.319370e-04
  1.189479e-01    7.888441e-04
  1.192468e-01    6.910202e-04
  1.195458e-01    7.242025e-04
  1.198447e-01    7.349530e-04
  1.201436e-01    6.523091e-04
  1.204425e-01    6.180140e-04
  1.207415e-01    5.788044e-04
  1.210404e-01    9.134603e-04
  1.213393e-01    0.000000e+00
  1.216383e-01    0.000000e+00
  1.219372e-01    0.000000e+00
  1.222361e-01    0.000000e+00
  1.225351e-01    0.000000e+00
  1.228340e-01    0.000000e+00
  1.231329e-01    0.000000e+00
  1.234318e-01    0.000000e+00
  1.237308e-01    0.000000e+00
  1.240297e-01    0.000000e+00
  1.243286e-01    0.000000e+00
  1.246276e-01    0.000000e+00
  1.249265e-01    0.000000e+00
  1.252254e-01    0.000000e+00
  1.255244e-01    0.000000e+00
  1.258233e-01    0.000000e+00
  1.261222e-01    0.000000e+00
  1.264212e-01    0.000000e+00
  1.267201e-01    0.000000e+00
  1.270190e-01    0.000000e+00
  1.273179e-01    0.000000e+00
  1.276169e-01    0.000000e+00
  1.279158e-01    0.000000e+00
  1.282147e-01    0.000000e+00
  1.285137e-01    0.000000e+00
  1.288126e-01    0.000000e+00
  1.291115e-01    0.000000e+00
  1.294105e-01    0.000000e+00
  1.297094e-01    0.000000e+00
  1.300083e-01    0.000000e+00
  1.303072e-01    0.000000e+00
  1.306062e-01    0.000000e+00
  1.309051e-01    0.000000e+00
  1.312040e-01    0.000000e+00
  1.315030e-01    0.000000e+00
  1.318019e-01    0.000000e+00
  1.321008e-01    0.000000e+00
  1.323998e-01    0.000000e+00
  1.326987e-01    0.000000e+00
  1.329976e-01    0.000000e+00
  1.332965e-01    0.000000e+00
  1.335955e-01    0.000000e+00
  1.338944e-01    0.000000e+00
  1.341933e-01    0.000000e+00
  1.344923e-01    0.000000e+00
  1.347912e-01    0.000000e+00
  1.350901e-01    0.000000e+00
  1.353891e-01    0.000000e+00
  1.356880e-01    0.000000e+00
  1.359869e-01    0.000000e+00
  1.362859e-01    0.000000e+00
  1.365848e-01    0.000000e+00
  1.368837e-01    0.000000e+00
  1.371826e-01    0.000000e+00
  1.374816e-01    0.000000e+00
  1.377805e-01    0.000000e+00
  1.380794e-01    0.000000e+00
  1.383784e-01    0.000000e+00
  1.386773e-01    0.000000e+00
  1.389762e-01    0.000000e+00
  1.392752e-01    0.000000e+00
  1.395741e-01    0.000000e+00
  1.398730e-01    0.000000e+00
  1.401719e-01    0.000000e+00
  1.404709e-01    0.000000e+00
  1.407698e-01    0.000000e+00
  1.410687e-01    0.000000e+00
  1.413677e-01    0.000000e+00
  1.416666e-01    0.000000e+00
  1.419655e-01    0.000000e+00
  1.422645e-01    0.000000e+00
  1.425634e-01    0.000000e+00
  1.428623e-01    0.000000e+00
  1.431613e-01    0.000000e+00
  1.434602e-01    0.000000e+00
  1.437591e-01    0.000000e+00
  1.440580e-01    0.000000e+00
  1.443570e-01    0.000000e+00
  1.446559e-01    0.000000e+00
  1.449548e-01    0.000000e+00
  1.452538e-01    0.000000e+00
  1.455527e-01    0.000000e+00
  1.458516e-01    0.000000e+00
  1.461506e-01    0.000000e+00
  1.464495e-01    0.000000e+00
  1.467484e-01    0.000000e+00
  1.470473e-01    0.000000e+00
  1.473463e-01    0.000000e+00
  1.476452e-01    0.000000e+00
  1.479441e-01    0.000000e+00
  1.482431e-01    0.000000e+00
  1.485420e-01    0.000000e+00
  1.488409e-01    0.000000e+00
  1.491399e-01    0.000000e+00
  1.494388e-01    0.000000e+00
  1.497377e-01    0.000000e+00
  1.500367e-01    0.000000e+00
  1.503356e-01    0.000000e+00
  1.506345e-01    0.000000e+00
  1.509334e-01    0.000000e+00
  1.512324e-01    0.000000e+00
  1.515313e-01    0.000000e+00
  1.518302e-01    0.000000e+00
  1.521292e-01    0.000000e+00
  1.524281e-01    0.000000e+00
  1.527270e-01    0.000000e+00
  1.530260e-01    0.000000e+00
  1.533249e-01    0.000000e+00
  1.536238e-01    0.000000e+00
