# == pyFAI calibration ==
# Distance Sample to Detector: 2.266 m
# PONI: 5.659e-02, 4.293e-02 m
# Rotations: 0.000000 0.000000 0.000000 rad
# 
# == Fit2d calibration ==
# Distance Sample-beamCenter: 2266.000 mm
# Center: x=249.594, y=329.012 pix
# Tilt: 0.000 deg  TiltPlanRot: 0.000 deg
# 
# Detector Pilatus 300k	 PixelSize= 1.720e-04, 1.720e-04 m
#    Detector has a mask: True 
#    Detector has a dark current: False 
#    detector has a flat field: False 
# 
# Wavelength: 1.27818e-10 m
# Mask applied: user provided
# Dark current applied: False
# Flat field applied: False
# Polarization factor: None
# Normalization factor: 58510.560000000005
# --> latex_CL3252_TiO2_R706_phiT_0.050_PVC_0.600_DOP_0.020_0_r1d.csv
#        q_A^-1             I 
  4.457554e-03    2.759857e-02
  4.756484e-03    2.189210e-02
  5.055415e-03    1.553082e-02
  5.354345e-03    1.061739e-02
  5.653276e-03    8.212795e-03
  5.952206e-03    1.332554e-02
  6.251136e-03    1.211036e-02
  6.550067e-03    1.057181e-02
  6.848997e-03    8.974683e-03
  7.147927e-03    7.580836e-03
  7.446858e-03    6.454995e-03
  7.745788e-03    5.532842e-03
  8.044719e-03    4.736474e-03
  8.343649e-03    4.129859e-03
  8.642579e-03    3.608676e-03
  8.941510e-03    3.163773e-03
  9.240440e-03    2.777976e-03
  9.539371e-03    2.493978e-03
  9.838301e-03    2.242958e-03
  1.013723e-02    1.999117e-03
  1.043616e-02    1.794597e-03
  1.073509e-02    1.622368e-03
  1.103402e-02    1.456195e-03
  1.133295e-02    1.330102e-03
  1.163188e-02    1.206812e-03
  1.193081e-02    1.102295e-03
  1.222974e-02    1.000876e-03
  1.252867e-02    9.196735e-04
  1.282760e-02    8.483991e-04
  1.312654e-02    7.882008e-04
  1.342547e-02    7.266074e-04
  1.372440e-02    6.603039e-04
  1.402333e-02    6.213340e-04
  1.432226e-02    5.835677e-04
  1.462119e-02    5.354374e-04
  1.492012e-02    4.988138e-04
  1.521905e-02    4.651748e-04
  1.551798e-02    4.337106e-04
  1.581691e-02    4.095252e-04
  1.611584e-02    3.922406e-04
  1.641477e-02    3.684961e-04
  1.671370e-02    3.494146e-04
  1.701263e-02    3.312887e-04
  1.731156e-02    3.104720e-04
  1.761049e-02    3.037724e-04
  1.790942e-02    2.864363e-04
  1.820835e-02    2.675838e-04
  1.850728e-02    2.594634e-04
  1.880621e-02    2.496572e-04
  1.910514e-02    2.338012e-04
  1.940407e-02    2.295131e-04
  1.970300e-02    2.175043e-04
  2.000193e-02    2.076825e-04
  2.030086e-02    1.987009e-04
  2.059979e-02    1.947846e-04
  2.089873e-02    1.898515e-04
  2.119766e-02    1.836338e-04
  2.149659e-02    1.766185e-04
  2.179552e-02    1.687621e-04
  2.209445e-02    1.643374e-04
  2.239338e-02    1.617584e-04
  2.269231e-02    1.548257e-04
  2.299124e-02    1.494692e-04
  2.329017e-02    1.501833e-04
  2.358910e-02    1.468832e-04
  2.388803e-02    1.405349e-04
  2.418696e-02    1.360977e-04
  2.448589e-02    1.349560e-04
  2.478482e-02    1.308791e-04
  2.508375e-02    1.265852e-04
  2.538268e-02    1.245021e-04
  2.568161e-02    1.248755e-04
  2.598054e-02    1.224029e-04
  2.627947e-02    1.192937e-04
  2.657840e-02    1.167842e-04
  2.687733e-02    1.178582e-04
  2.717626e-02    1.149236e-04
  2.747519e-02    1.111730e-04
  2.777412e-02    1.101419e-04
  2.807305e-02    1.080838e-04
  2.837198e-02    1.080803e-04
  2.867092e-02    1.068425e-04
  2.896985e-02    1.059051e-04
  2.926878e-02    1.014794e-04
  2.956771e-02    9.799850e-05
  2.986664e-02    9.929179e-05
  3.016557e-02    1.006755e-04
  3.046450e-02    9.943619e-05
  3.076343e-02    9.625278e-05
  3.106236e-02    9.671565e-05
  3.136129e-02    9.732649e-05
  3.166022e-02    9.552781e-05
  3.195915e-02    9.293386e-05
  3.225808e-02    9.156595e-05
  3.255701e-02    9.284709e-05
  3.285594e-02    9.469654e-05
  3.315487e-02    9.288857e-05
  3.345380e-02    9.059700e-05
  3.375273e-02    8.938146e-05
  3.405166e-02    8.890201e-05
  3.435059e-02    8.723355e-05
  3.464952e-02    8.722663e-05
  3.494845e-02    8.746153e-05
  3.524738e-02    8.840665e-05
  3.554631e-02    8.586952e-05
  3.584524e-02    8.239961e-05
  3.614417e-02    8.239188e-05
  3.644310e-02    8.477568e-05
  3.674204e-02    8.420410e-05
  3.704097e-02    8.305957e-05
  3.733990e-02    8.307808e-05
  3.763883e-02    7.985163e-05
  3.793776e-02    7.744129e-05
  3.823669e-02    7.684950e-05
  3.853562e-02    7.630383e-05
  3.883455e-02    7.781850e-05
  3.913348e-02    7.840433e-05
  3.943241e-02    7.807287e-05
  3.973134e-02    7.678686e-05
  4.003027e-02    7.665179e-05
  4.032920e-02    7.694005e-05
  4.062813e-02    7.691456e-05
  4.092706e-02    7.803521e-05
  4.122599e-02    7.773619e-05
  4.152492e-02    7.544679e-05
  4.182385e-02    7.447369e-05
  4.212278e-02    7.423565e-05
  4.242171e-02    7.281412e-05
  4.272064e-02    7.433828e-05
  4.301957e-02    7.590051e-05
  4.331850e-02    7.500882e-05
  4.361743e-02    7.287705e-05
  4.391636e-02    7.348871e-05
  4.421529e-02    7.238876e-05
  4.451423e-02    7.193840e-05
  4.481316e-02    7.334746e-05
  4.511209e-02    7.272897e-05
  4.541102e-02    7.221210e-05
  4.570995e-02    7.379282e-05
  4.600888e-02    7.400041e-05
  4.630781e-02    7.406553e-05
  4.660674e-02    7.304642e-05
  4.690567e-02    7.383666e-05
  4.720460e-02    7.411597e-05
  4.750353e-02    7.436192e-05
  4.780246e-02    7.394820e-05
  4.810139e-02    7.263685e-05
  4.840032e-02    7.220152e-05
  4.869925e-02    7.212881e-05
  4.899818e-02    7.068561e-05
  4.929711e-02    7.219772e-05
  4.959604e-02    7.316411e-05
  4.989497e-02    7.403065e-05
  5.019390e-02    7.303267e-05
  5.049283e-02    7.331125e-05
  5.079176e-02    7.248056e-05
  5.109069e-02    7.079082e-05
  5.138962e-02    7.275475e-05
  5.168855e-02    7.580917e-05
  5.198748e-02    7.698232e-05
  5.228642e-02    7.534010e-05
  5.258535e-02    7.368744e-05
  5.288428e-02    7.193756e-05
  5.318321e-02    7.200762e-05
  5.348214e-02    7.313712e-05
  5.378107e-02    7.299228e-05
  5.408000e-02    7.354857e-05
  5.437893e-02    7.200925e-05
  5.467786e-02    7.159000e-05
  5.497679e-02    7.284407e-05
  5.527572e-02    7.177876e-05
  5.557465e-02    7.228519e-05
  5.587358e-02    7.298130e-05
  5.617251e-02    7.388776e-05
  5.647144e-02    7.432511e-05
  5.677037e-02    7.374096e-05
  5.706930e-02    7.372259e-05
  5.736823e-02    7.451424e-05
  5.766716e-02    7.365263e-05
  5.796609e-02    7.343341e-05
  5.826502e-02    7.255447e-05
  5.856395e-02    7.166814e-05
  5.886288e-02    7.241249e-05
  5.916181e-02    7.435810e-05
  5.946074e-02    7.515441e-05
  5.975967e-02    7.301065e-05
  6.005861e-02    7.407885e-05
  6.035754e-02    7.592000e-05
  6.065647e-02    7.447005e-05
  6.095540e-02    7.418977e-05
  6.125433e-02    7.447055e-05
  6.155326e-02    7.529157e-05
  6.185219e-02    7.434792e-05
  6.215112e-02    7.405891e-05
  6.245005e-02    7.512084e-05
  6.274898e-02    7.524658e-05
  6.304791e-02    7.586717e-05
  6.334684e-02    7.574569e-05
  6.364577e-02    7.636254e-05
  6.394470e-02    7.561831e-05
  6.424363e-02    7.474795e-05
  6.454256e-02    7.436772e-05
  6.484149e-02    7.472420e-05
  6.514042e-02    7.584527e-05
  6.543935e-02    7.510135e-05
  6.573828e-02    7.645554e-05
  6.603721e-02    7.725362e-05
  6.633614e-02    7.601177e-05
  6.663507e-02    7.472648e-05
  6.693400e-02    7.662231e-05
  6.723293e-02    7.619376e-05
  6.753186e-02    7.547784e-05
  6.783080e-02    7.604445e-05
  6.812973e-02    7.752767e-05
  6.842866e-02    7.755497e-05
  6.872759e-02    7.645909e-05
  6.902652e-02    7.731123e-05
  6.932545e-02    7.733476e-05
  6.962438e-02    7.526531e-05
  6.992331e-02    7.617140e-05
  7.022224e-02    7.741363e-05
  7.052117e-02    7.729379e-05
  7.082010e-02    7.689404e-05
  7.111903e-02    7.768538e-05
  7.141796e-02    7.701687e-05
  7.171689e-02    7.563837e-05
  7.201582e-02    7.718000e-05
  7.231475e-02    7.716592e-05
  7.261368e-02    7.699854e-05
  7.291261e-02    7.868373e-05
  7.321154e-02    7.888006e-05
  7.351047e-02    7.856688e-05
  7.380940e-02    7.854788e-05
  7.410833e-02    7.791724e-05
  7.440726e-02    7.724364e-05
  7.470619e-02    7.799784e-05
  7.500512e-02    7.947531e-05
  7.530405e-02    7.846501e-05
  7.560299e-02    7.852184e-05
  7.590192e-02    7.800058e-05
  7.620085e-02    7.788553e-05
  7.649978e-02    7.842096e-05
  7.679871e-02    7.875137e-05
  7.709764e-02    7.748124e-05
  7.739657e-02    7.748671e-05
  7.769550e-02    7.909195e-05
  7.799443e-02    7.843330e-05
  7.829336e-02    7.842218e-05
  7.859229e-02    8.002346e-05
  7.889122e-02    7.858879e-05
  7.919015e-02    7.799231e-05
  7.948908e-02    7.744993e-05
  7.978801e-02    7.780379e-05
  8.008694e-02    7.726775e-05
  8.038587e-02    7.720258e-05
  8.068480e-02    7.572356e-05
  8.098373e-02    7.690339e-05
  8.128266e-02    7.783232e-05
  8.158159e-02    7.695739e-05
  8.188052e-02    7.675484e-05
  8.217945e-02    7.782706e-05
  8.247838e-02    7.804693e-05
  8.277731e-02    7.729753e-05
  8.307624e-02    7.723158e-05
  8.337518e-02    7.550268e-05
  8.367411e-02    7.464100e-05
  8.397304e-02    7.533215e-05
  8.427197e-02    7.547100e-05
  8.457090e-02    7.459473e-05
  8.486983e-02    7.597492e-05
  8.516876e-02    7.748924e-05
  8.546769e-02    7.636928e-05
  8.576662e-02    7.420757e-05
  8.606555e-02    7.636193e-05
  8.636448e-02    7.691201e-05
  8.666341e-02    7.561707e-05
  8.696234e-02    7.555728e-05
  8.726127e-02    7.520256e-05
  8.756020e-02    7.585897e-05
  8.785913e-02    7.644499e-05
  8.815806e-02    7.584764e-05
  8.845699e-02    7.504561e-05
  8.875592e-02    7.339598e-05
  8.905485e-02    7.335166e-05
  8.935378e-02    7.428438e-05
  8.965271e-02    7.317048e-05
  8.995164e-02    7.342727e-05
  9.025057e-02    7.324889e-05
  9.054950e-02    7.345582e-05
  9.084843e-02    7.313360e-05
  9.114737e-02    7.383939e-05
  9.144630e-02    7.340832e-05
  9.174523e-02    7.243446e-05
  9.204416e-02    7.225046e-05
  9.234309e-02    7.226300e-05
  9.264202e-02    7.150245e-05
  9.294095e-02    7.087464e-05
  9.323988e-02    7.172085e-05
  9.353881e-02    7.214172e-05
  9.383774e-02    7.120312e-05
  9.413667e-02    7.027438e-05
  9.443560e-02    6.990234e-05
  9.473453e-02    7.035834e-05
  9.503346e-02    7.180859e-05
  9.533239e-02    7.147267e-05
  9.563132e-02    7.164656e-05
  9.593025e-02    7.279925e-05
  9.622918e-02    7.226449e-05
  9.652811e-02    7.071551e-05
  9.682704e-02    7.065371e-05
  9.712597e-02    7.147171e-05
  9.742490e-02    7.099195e-05
  9.772383e-02    6.979759e-05
  9.802276e-02    6.970426e-05
  9.832169e-02    6.973244e-05
  9.862062e-02    6.857738e-05
  9.891956e-02    6.859157e-05
  9.921849e-02    6.910061e-05
  9.951742e-02    6.869187e-05
  9.981635e-02    6.989922e-05
  1.001153e-01    6.987830e-05
  1.004142e-01    6.788642e-05
  1.007131e-01    6.808494e-05
  1.010121e-01    6.852537e-05
  1.013110e-01    6.747118e-05
  1.016099e-01    6.775797e-05
  1.019089e-01    6.866764e-05
  1.022078e-01    6.816912e-05
  1.025067e-01    6.732062e-05
  1.028057e-01    6.844076e-05
  1.031046e-01    6.825451e-05
  1.034035e-01    6.696347e-05
  1.037024e-01    6.646484e-05
  1.040014e-01    6.710585e-05
  1.043003e-01    6.759405e-05
  1.045992e-01    6.768292e-05
  1.048982e-01    6.692728e-05
  1.051971e-01    6.646043e-05
  1.054960e-01    6.775618e-05
  1.057950e-01    6.803595e-05
  1.060939e-01    6.624986e-05
  1.063928e-01    6.541468e-05
  1.066917e-01    6.492934e-05
  1.069907e-01    6.555726e-05
  1.072896e-01    6.649506e-05
  1.075885e-01    6.628130e-05
  1.078875e-01    6.665908e-05
  1.081864e-01    6.556036e-05
  1.084853e-01    6.434398e-05
  1.087843e-01    6.511627e-05
  1.090832e-01    6.610172e-05
  1.093821e-01    6.713858e-05
  1.096810e-01    6.560562e-05
  1.099800e-01    6.458565e-05
  1.102789e-01    6.476335e-05
  1.105778e-01    6.361541e-05
  1.108768e-01    6.341769e-05
  1.111757e-01    6.348362e-05
  1.114746e-01    6.437344e-05
  1.117736e-01    6.421051e-05
  1.120725e-01    6.259406e-05
  1.123714e-01    6.317673e-05
  1.126704e-01    6.351696e-05
  1.129693e-01    6.246129e-05
  1.132682e-01    6.197253e-05
  1.135671e-01    6.437953e-05
  1.138661e-01    6.365900e-05
  1.141650e-01    6.384162e-05
  1.144639e-01    6.382052e-05
  1.147629e-01    6.191414e-05
  1.150618e-01    6.120226e-05
  1.153607e-01    6.195866e-05
  1.156597e-01    6.313629e-05
  1.159586e-01    6.505460e-05
  1.162575e-01    6.194512e-05
  1.165564e-01    5.971365e-05
  1.168554e-01    6.067342e-05
  1.171543e-01    6.118962e-05
  1.174532e-01    6.122096e-05
  1.177522e-01    6.141320e-05
  1.180511e-01    6.441867e-05
  1.183500e-01    6.360081e-05
  1.186490e-01    6.180511e-05
  1.189479e-01    6.253956e-05
  1.192468e-01    6.424869e-05
  1.195458e-01    6.456374e-05
  1.198447e-01    6.430833e-05
  1.201436e-01    6.534570e-05
  1.204425e-01    6.615387e-05
  1.207415e-01    5.709675e-05
  1.210404e-01    3.421283e-05
  1.213393e-01    0.000000e+00
  1.216383e-01    0.000000e+00
  1.219372e-01    0.000000e+00
  1.222361e-01    0.000000e+00
  1.225351e-01    0.000000e+00
  1.228340e-01    0.000000e+00
  1.231329e-01    0.000000e+00
  1.234318e-01    0.000000e+00
  1.237308e-01    0.000000e+00
  1.240297e-01    0.000000e+00
  1.243286e-01    0.000000e+00
  1.246276e-01    0.000000e+00
  1.249265e-01    0.000000e+00
  1.252254e-01    0.000000e+00
  1.255244e-01    0.000000e+00
  1.258233e-01    0.000000e+00
  1.261222e-01    0.000000e+00
  1.264212e-01    0.000000e+00
  1.267201e-01    0.000000e+00
  1.270190e-01    0.000000e+00
  1.273179e-01    0.000000e+00
  1.276169e-01    0.000000e+00
  1.279158e-01    0.000000e+00
  1.282147e-01    0.000000e+00
  1.285137e-01    0.000000e+00
  1.288126e-01    0.000000e+00
  1.291115e-01    0.000000e+00
  1.294105e-01    0.000000e+00
  1.297094e-01    0.000000e+00
  1.300083e-01    0.000000e+00
  1.303072e-01    0.000000e+00
  1.306062e-01    0.000000e+00
  1.309051e-01    0.000000e+00
  1.312040e-01    0.000000e+00
  1.315030e-01    0.000000e+00
  1.318019e-01    0.000000e+00
  1.321008e-01    0.000000e+00
  1.323998e-01    0.000000e+00
  1.326987e-01    0.000000e+00
  1.329976e-01    0.000000e+00
  1.332965e-01    0.000000e+00
  1.335955e-01    0.000000e+00
  1.338944e-01    0.000000e+00
  1.341933e-01    0.000000e+00
  1.344923e-01    0.000000e+00
  1.347912e-01    0.000000e+00
  1.350901e-01    0.000000e+00
  1.353891e-01    0.000000e+00
  1.356880e-01    0.000000e+00
  1.359869e-01    0.000000e+00
  1.362859e-01    0.000000e+00
  1.365848e-01    0.000000e+00
  1.368837e-01    0.000000e+00
  1.371826e-01    0.000000e+00
  1.374816e-01    0.000000e+00
  1.377805e-01    0.000000e+00
  1.380794e-01    0.000000e+00
  1.383784e-01    0.000000e+00
  1.386773e-01    0.000000e+00
  1.389762e-01    0.000000e+00
  1.392752e-01    0.000000e+00
  1.395741e-01    0.000000e+00
  1.398730e-01    0.000000e+00
  1.401719e-01    0.000000e+00
  1.404709e-01    0.000000e+00
  1.407698e-01    0.000000e+00
  1.410687e-01    0.000000e+00
  1.413677e-01    0.000000e+00
  1.416666e-01    0.000000e+00
  1.419655e-01    0.000000e+00
  1.422645e-01    0.000000e+00
  1.425634e-01    0.000000e+00
  1.428623e-01    0.000000e+00
  1.431613e-01    0.000000e+00
  1.434602e-01    0.000000e+00
  1.437591e-01    0.000000e+00
  1.440580e-01    0.000000e+00
  1.443570e-01    0.000000e+00
  1.446559e-01    0.000000e+00
  1.449548e-01    0.000000e+00
  1.452538e-01    0.000000e+00
  1.455527e-01    0.000000e+00
  1.458516e-01    0.000000e+00
  1.461506e-01    0.000000e+00
  1.464495e-01    0.000000e+00
  1.467484e-01    0.000000e+00
  1.470473e-01    0.000000e+00
  1.473463e-01    0.000000e+00
  1.476452e-01    0.000000e+00
  1.479441e-01    0.000000e+00
  1.482431e-01    0.000000e+00
  1.485420e-01    0.000000e+00
  1.488409e-01    0.000000e+00
  1.491399e-01    0.000000e+00
  1.494388e-01    0.000000e+00
  1.497377e-01    0.000000e+00
  1.500367e-01    0.000000e+00
  1.503356e-01    0.000000e+00
  1.506345e-01    0.000000e+00
  1.509334e-01    0.000000e+00
  1.512324e-01    0.000000e+00
  1.515313e-01    0.000000e+00
  1.518302e-01    0.000000e+00
  1.521292e-01    0.000000e+00
  1.524281e-01    0.000000e+00
  1.527270e-01    0.000000e+00
  1.530260e-01    0.000000e+00
  1.533249e-01    0.000000e+00
  1.536238e-01    0.000000e+00
