# == pyFAI calibration ==
# Distance Sample to Detector: 2.266 m
# PONI: 5.659e-02, 4.293e-02 m
# Rotations: 0.000000 0.000000 0.000000 rad
# 
# == Fit2d calibration ==
# Distance Sample-beamCenter: 2266.000 mm
# Center: x=249.594, y=329.012 pix
# Tilt: 0.000 deg  TiltPlanRot: 0.000 deg
# 
# Detector Pilatus 300k	 PixelSize= 1.720e-04, 1.720e-04 m
#    Detector has a mask: True 
#    Detector has a dark current: False 
#    detector has a flat field: False 
# 
# Wavelength: 1.27818e-10 m
# Mask applied: user provided
# Dark current applied: False
# Flat field applied: False
# Polarization factor: None
# Normalization factor: 14096.76
# --> latex_CL3252_TiO2_R706_phiT_0.050_PVC_0.400_DOP_0.000_1_r1d.csv
#        q_A^-1             I 
  4.457554e-03    3.152906e-01
  4.756484e-03    2.695286e-01
  5.055415e-03    2.199305e-01
  5.354345e-03    1.782057e-01
  5.653276e-03    1.511641e-01
  5.952206e-03    3.414702e-01
  6.251136e-03    3.134830e-01
  6.550067e-03    2.708417e-01
  6.848997e-03    2.252410e-01
  7.147927e-03    1.848419e-01
  7.446858e-03    1.532040e-01
  7.745788e-03    1.276092e-01
  8.044719e-03    1.067534e-01
  8.343649e-03    9.073840e-02
  8.642579e-03    7.732287e-02
  8.941510e-03    6.605765e-02
  9.240440e-03    5.709784e-02
  9.539371e-03    4.982944e-02
  9.838301e-03    4.328216e-02
  1.013723e-02    3.792733e-02
  1.043616e-02    3.354100e-02
  1.073509e-02    2.940335e-02
  1.103402e-02    2.582257e-02
  1.133295e-02    2.299744e-02
  1.163188e-02    2.067005e-02
  1.193081e-02    1.859397e-02
  1.222974e-02    1.664646e-02
  1.252867e-02    1.515005e-02
  1.282760e-02    1.371343e-02
  1.312654e-02    1.241460e-02
  1.342547e-02    1.122446e-02
  1.372440e-02    1.020360e-02
  1.402333e-02    9.310497e-03
  1.432226e-02    8.518533e-03
  1.462119e-02    7.789098e-03
  1.492012e-02    7.148768e-03
  1.521905e-02    6.592010e-03
  1.551798e-02    6.077963e-03
  1.581691e-02    5.578576e-03
  1.611584e-02    5.206413e-03
  1.641477e-02    4.855564e-03
  1.671370e-02    4.476634e-03
  1.701263e-02    4.150648e-03
  1.731156e-02    3.809045e-03
  1.761049e-02    3.555394e-03
  1.790942e-02    3.341140e-03
  1.820835e-02    3.121349e-03
  1.850728e-02    2.909002e-03
  1.880621e-02    2.741437e-03
  1.910514e-02    2.592066e-03
  1.940407e-02    2.439508e-03
  1.970300e-02    2.255639e-03
  2.000193e-02    2.098600e-03
  2.030086e-02    1.968906e-03
  2.059979e-02    1.878907e-03
  2.089873e-02    1.776616e-03
  2.119766e-02    1.670540e-03
  2.149659e-02    1.564898e-03
  2.179552e-02    1.477669e-03
  2.209445e-02    1.418218e-03
  2.239338e-02    1.372629e-03
  2.269231e-02    1.291854e-03
  2.299124e-02    1.221171e-03
  2.329017e-02    1.159265e-03
  2.358910e-02    1.109878e-03
  2.388803e-02    1.065792e-03
  2.418696e-02    9.959564e-04
  2.448589e-02    9.576712e-04
  2.478482e-02    9.188091e-04
  2.508375e-02    8.786624e-04
  2.538268e-02    8.539232e-04
  2.568161e-02    8.271895e-04
  2.598054e-02    7.949321e-04
  2.627947e-02    7.550776e-04
  2.657840e-02    6.974384e-04
  2.687733e-02    6.721409e-04
  2.717626e-02    6.537414e-04
  2.747519e-02    6.305725e-04
  2.777412e-02    6.055673e-04
  2.807305e-02    5.895589e-04
  2.837198e-02    5.650772e-04
  2.867092e-02    5.451996e-04
  2.896985e-02    5.243481e-04
  2.926878e-02    5.061490e-04
  2.956771e-02    4.900583e-04
  2.986664e-02    4.801001e-04
  3.016557e-02    4.554257e-04
  3.046450e-02    4.423447e-04
  3.076343e-02    4.242667e-04
  3.106236e-02    4.152518e-04
  3.136129e-02    4.000442e-04
  3.166022e-02    3.983236e-04
  3.195915e-02    3.844956e-04
  3.225808e-02    3.702044e-04
  3.255701e-02    3.619626e-04
  3.285594e-02    3.544797e-04
  3.315487e-02    3.408116e-04
  3.345380e-02    3.270889e-04
  3.375273e-02    3.213963e-04
  3.405166e-02    3.100224e-04
  3.435059e-02    3.093526e-04
  3.464952e-02    3.083473e-04
  3.494845e-02    2.964129e-04
  3.524738e-02    2.702062e-04
  3.554631e-02    2.664573e-04
  3.584524e-02    2.651311e-04
  3.614417e-02    2.610057e-04
  3.644310e-02    2.607091e-04
  3.674204e-02    2.564331e-04
  3.704097e-02    2.436022e-04
  3.733990e-02    2.437079e-04
  3.763883e-02    2.433328e-04
  3.793776e-02    2.361950e-04
  3.823669e-02    2.284267e-04
  3.853562e-02    2.230839e-04
  3.883455e-02    2.168195e-04
  3.913348e-02    2.156256e-04
  3.943241e-02    2.175328e-04
  3.973134e-02    2.079028e-04
  4.003027e-02    2.031839e-04
  4.032920e-02    2.005461e-04
  4.062813e-02    1.942722e-04
  4.092706e-02    1.913396e-04
  4.122599e-02    1.857855e-04
  4.152492e-02    1.884462e-04
  4.182385e-02    1.827392e-04
  4.212278e-02    1.813040e-04
  4.242171e-02    1.815945e-04
  4.272064e-02    1.773983e-04
  4.301957e-02    1.740078e-04
  4.331850e-02    1.685775e-04
  4.361743e-02    1.712586e-04
  4.391636e-02    1.715409e-04
  4.421529e-02    1.708384e-04
  4.451423e-02    1.686545e-04
  4.481316e-02    1.660465e-04
  4.511209e-02    1.603106e-04
  4.541102e-02    1.566930e-04
  4.570995e-02    1.564215e-04
  4.600888e-02    1.531949e-04
  4.630781e-02    1.590873e-04
  4.660674e-02    1.595406e-04
  4.690567e-02    1.554896e-04
  4.720460e-02    1.521687e-04
  4.750353e-02    1.543525e-04
  4.780246e-02    1.557187e-04
  4.810139e-02    1.495558e-04
  4.840032e-02    1.431951e-04
  4.869925e-02    1.425367e-04
  4.899818e-02    1.455821e-04
  4.929711e-02    1.490952e-04
  4.959604e-02    1.403964e-04
  4.989497e-02    1.360033e-04
  5.019390e-02    1.333887e-04
  5.049283e-02    1.384888e-04
  5.079176e-02    1.409590e-04
  5.109069e-02    1.389369e-04
  5.138962e-02    1.361748e-04
  5.168855e-02    1.343919e-04
  5.198748e-02    1.415675e-04
  5.228642e-02    1.390111e-04
  5.258535e-02    1.329267e-04
  5.288428e-02    1.318680e-04
  5.318321e-02    1.283759e-04
  5.348214e-02    1.327870e-04
  5.378107e-02    1.345164e-04
  5.408000e-02    1.285280e-04
  5.437893e-02    1.305664e-04
  5.467786e-02    1.263139e-04
  5.497679e-02    1.303826e-04
  5.527572e-02    1.344144e-04
  5.557465e-02    1.320430e-04
  5.587358e-02    1.348376e-04
  5.617251e-02    1.313709e-04
  5.647144e-02    1.331251e-04
  5.677037e-02    1.309536e-04
  5.706930e-02    1.269881e-04
  5.736823e-02    1.291988e-04
  5.766716e-02    1.266417e-04
  5.796609e-02    1.254477e-04
  5.826502e-02    1.208636e-04
  5.856395e-02    1.205545e-04
  5.886288e-02    1.226732e-04
  5.916181e-02    1.244014e-04
  5.946074e-02    1.251670e-04
  5.975967e-02    1.270885e-04
  6.005861e-02    1.239111e-04
  6.035754e-02    1.212446e-04
  6.065647e-02    1.238482e-04
  6.095540e-02    1.275093e-04
  6.125433e-02    1.285746e-04
  6.155326e-02    1.300199e-04
  6.185219e-02    1.237609e-04
  6.215112e-02    1.228438e-04
  6.245005e-02    1.246212e-04
  6.274898e-02    1.215277e-04
  6.304791e-02    1.238453e-04
  6.334684e-02    1.253449e-04
  6.364577e-02    1.261039e-04
  6.394470e-02    1.236955e-04
  6.424363e-02    1.232757e-04
  6.454256e-02    1.213006e-04
  6.484149e-02    1.213823e-04
  6.514042e-02    1.209503e-04
  6.543935e-02    1.245337e-04
  6.573828e-02    1.231338e-04
  6.603721e-02    1.199899e-04
  6.633614e-02    1.224330e-04
  6.663507e-02    1.219928e-04
  6.693400e-02    1.209014e-04
  6.723293e-02    1.212123e-04
  6.753186e-02    1.188576e-04
  6.783080e-02    1.225706e-04
  6.812973e-02    1.213697e-04
  6.842866e-02    1.212237e-04
  6.872759e-02    1.229576e-04
  6.902652e-02    1.211212e-04
  6.932545e-02    1.205009e-04
  6.962438e-02    1.223054e-04
  6.992331e-02    1.200484e-04
  7.022224e-02    1.201648e-04
  7.052117e-02    1.184083e-04
  7.082010e-02    1.190684e-04
  7.111903e-02    1.198775e-04
  7.141796e-02    1.202720e-04
  7.171689e-02    1.168857e-04
  7.201582e-02    1.214841e-04
  7.231475e-02    1.211725e-04
  7.261368e-02    1.200980e-04
  7.291261e-02    1.186672e-04
  7.321154e-02    1.189701e-04
  7.351047e-02    1.218225e-04
  7.380940e-02    1.227330e-04
  7.410833e-02    1.224247e-04
  7.440726e-02    1.207317e-04
  7.470619e-02    1.176021e-04
  7.500512e-02    1.197686e-04
  7.530405e-02    1.194939e-04
  7.560299e-02    1.185787e-04
  7.590192e-02    1.191076e-04
  7.620085e-02    1.198988e-04
  7.649978e-02    1.148628e-04
  7.679871e-02    1.196357e-04
  7.709764e-02    1.215426e-04
  7.739657e-02    1.221497e-04
  7.769550e-02    1.210571e-04
  7.799443e-02    1.192956e-04
  7.829336e-02    1.218222e-04
  7.859229e-02    1.209636e-04
  7.889122e-02    1.169600e-04
  7.919015e-02    1.170730e-04
  7.948908e-02    1.165201e-04
  7.978801e-02    1.160370e-04
  8.008694e-02    1.170184e-04
  8.038587e-02    1.179394e-04
  8.068480e-02    1.170974e-04
  8.098373e-02    1.135874e-04
  8.128266e-02    1.145587e-04
  8.158159e-02    1.165623e-04
  8.188052e-02    1.172221e-04
  8.217945e-02    1.150530e-04
  8.247838e-02    1.113188e-04
  8.277731e-02    1.142109e-04
  8.307624e-02    1.162618e-04
  8.337518e-02    1.176784e-04
  8.367411e-02    1.172261e-04
  8.397304e-02    1.134829e-04
  8.427197e-02    1.137980e-04
  8.457090e-02    1.140969e-04
  8.486983e-02    1.113878e-04
  8.516876e-02    1.112852e-04
  8.546769e-02    1.138774e-04
  8.576662e-02    1.123417e-04
  8.606555e-02    1.115724e-04
  8.636448e-02    1.114199e-04
  8.666341e-02    1.103620e-04
  8.696234e-02    1.125441e-04
  8.726127e-02    1.125613e-04
  8.756020e-02    1.130770e-04
  8.785913e-02    1.107704e-04
  8.815806e-02    1.119532e-04
  8.845699e-02    1.116390e-04
  8.875592e-02    1.084851e-04
  8.905485e-02    1.097335e-04
  8.935378e-02    1.094853e-04
  8.965271e-02    1.084664e-04
  8.995164e-02    1.087767e-04
  9.025057e-02    1.097791e-04
  9.054950e-02    1.076874e-04
  9.084843e-02    1.077834e-04
  9.114737e-02    1.056623e-04
  9.144630e-02    1.049299e-04
  9.174523e-02    1.056014e-04
  9.204416e-02    1.057641e-04
  9.234309e-02    1.061928e-04
  9.264202e-02    1.077748e-04
  9.294095e-02    1.056239e-04
  9.323988e-02    1.057459e-04
  9.353881e-02    1.066113e-04
  9.383774e-02    1.079195e-04
  9.413667e-02    1.070840e-04
  9.443560e-02    1.044730e-04
  9.473453e-02    1.085267e-04
  9.503346e-02    1.104537e-04
  9.533239e-02    1.089844e-04
  9.563132e-02    1.066937e-04
  9.593025e-02    1.058391e-04
  9.622918e-02    1.052012e-04
  9.652811e-02    1.049507e-04
  9.682704e-02    1.057421e-04
  9.712597e-02    1.057922e-04
  9.742490e-02    1.057363e-04
  9.772383e-02    1.041770e-04
  9.802276e-02    1.004879e-04
  9.832169e-02    1.011529e-04
  9.862062e-02    1.036769e-04
  9.891956e-02    1.035236e-04
  9.921849e-02    1.029227e-04
  9.951742e-02    1.026179e-04
  9.981635e-02    1.003343e-04
  1.001153e-01    1.014514e-04
  1.004142e-01    1.013027e-04
  1.007131e-01    9.911603e-05
  1.010121e-01    9.921474e-05
  1.013110e-01    9.872459e-05
  1.016099e-01    9.451992e-05
  1.019089e-01    9.538010e-05
  1.022078e-01    1.019470e-04
  1.025067e-01    1.024635e-04
  1.028057e-01    9.863028e-05
  1.031046e-01    9.971909e-05
  1.034035e-01    9.847584e-05
  1.037024e-01    9.670296e-05
  1.040014e-01    9.691969e-05
  1.043003e-01    9.611136e-05
  1.045992e-01    9.996442e-05
  1.048982e-01    1.003284e-04
  1.051971e-01    9.901136e-05
  1.054960e-01    9.976795e-05
  1.057950e-01    9.611248e-05
  1.060939e-01    9.325902e-05
  1.063928e-01    9.479213e-05
  1.066917e-01    9.804092e-05
  1.069907e-01    9.980243e-05
  1.072896e-01    1.001801e-04
  1.075885e-01    9.977559e-05
  1.078875e-01    9.530241e-05
  1.081864e-01    9.243000e-05
  1.084853e-01    9.384265e-05
  1.087843e-01    9.587980e-05
  1.090832e-01    9.493926e-05
  1.093821e-01    9.266609e-05
  1.096810e-01    9.322388e-05
  1.099800e-01    9.545834e-05
  1.102789e-01    9.281842e-05
  1.105778e-01    9.010133e-05
  1.108768e-01    9.147331e-05
  1.111757e-01    9.319939e-05
  1.114746e-01    9.455185e-05
  1.117736e-01    9.291861e-05
  1.120725e-01    9.246821e-05
  1.123714e-01    9.479708e-05
  1.126704e-01    9.275888e-05
  1.129693e-01    9.123942e-05
  1.132682e-01    9.362695e-05
  1.135671e-01    9.278914e-05
  1.138661e-01    9.166179e-05
  1.141650e-01    8.790577e-05
  1.144639e-01    9.277822e-05
  1.147629e-01    9.901720e-05
  1.150618e-01    9.449824e-05
  1.153607e-01    9.536368e-05
  1.156597e-01    9.789199e-05
  1.159586e-01    9.603970e-05
  1.162575e-01    9.043067e-05
  1.165564e-01    9.350690e-05
  1.168554e-01    9.092475e-05
  1.171543e-01    8.512613e-05
  1.174532e-01    9.286438e-05
  1.177522e-01    9.632685e-05
  1.180511e-01    9.177657e-05
  1.183500e-01    9.916663e-05
  1.186490e-01    9.668786e-05
  1.189479e-01    9.121603e-05
  1.192468e-01    8.910080e-05
  1.195458e-01    9.136965e-05
  1.198447e-01    9.804199e-05
  1.201436e-01    1.075727e-04
  1.204425e-01    9.548531e-05
  1.207415e-01    8.181622e-05
  1.210404e-01    7.100255e-05
  1.213393e-01    0.000000e+00
  1.216383e-01    0.000000e+00
  1.219372e-01    0.000000e+00
  1.222361e-01    0.000000e+00
  1.225351e-01    0.000000e+00
  1.228340e-01    0.000000e+00
  1.231329e-01    0.000000e+00
  1.234318e-01    0.000000e+00
  1.237308e-01    0.000000e+00
  1.240297e-01    0.000000e+00
  1.243286e-01    0.000000e+00
  1.246276e-01    0.000000e+00
  1.249265e-01    0.000000e+00
  1.252254e-01    0.000000e+00
  1.255244e-01    0.000000e+00
  1.258233e-01    0.000000e+00
  1.261222e-01    0.000000e+00
  1.264212e-01    0.000000e+00
  1.267201e-01    0.000000e+00
  1.270190e-01    0.000000e+00
  1.273179e-01    0.000000e+00
  1.276169e-01    0.000000e+00
  1.279158e-01    0.000000e+00
  1.282147e-01    0.000000e+00
  1.285137e-01    0.000000e+00
  1.288126e-01    0.000000e+00
  1.291115e-01    0.000000e+00
  1.294105e-01    0.000000e+00
  1.297094e-01    0.000000e+00
  1.300083e-01    0.000000e+00
  1.303072e-01    0.000000e+00
  1.306062e-01    0.000000e+00
  1.309051e-01    0.000000e+00
  1.312040e-01    0.000000e+00
  1.315030e-01    0.000000e+00
  1.318019e-01    0.000000e+00
  1.321008e-01    0.000000e+00
  1.323998e-01    0.000000e+00
  1.326987e-01    0.000000e+00
  1.329976e-01    0.000000e+00
  1.332965e-01    0.000000e+00
  1.335955e-01    0.000000e+00
  1.338944e-01    0.000000e+00
  1.341933e-01    0.000000e+00
  1.344923e-01    0.000000e+00
  1.347912e-01    0.000000e+00
  1.350901e-01    0.000000e+00
  1.353891e-01    0.000000e+00
  1.356880e-01    0.000000e+00
  1.359869e-01    0.000000e+00
  1.362859e-01    0.000000e+00
  1.365848e-01    0.000000e+00
  1.368837e-01    0.000000e+00
  1.371826e-01    0.000000e+00
  1.374816e-01    0.000000e+00
  1.377805e-01    0.000000e+00
  1.380794e-01    0.000000e+00
  1.383784e-01    0.000000e+00
  1.386773e-01    0.000000e+00
  1.389762e-01    0.000000e+00
  1.392752e-01    0.000000e+00
  1.395741e-01    0.000000e+00
  1.398730e-01    0.000000e+00
  1.401719e-01    0.000000e+00
  1.404709e-01    0.000000e+00
  1.407698e-01    0.000000e+00
  1.410687e-01    0.000000e+00
  1.413677e-01    0.000000e+00
  1.416666e-01    0.000000e+00
  1.419655e-01    0.000000e+00
  1.422645e-01    0.000000e+00
  1.425634e-01    0.000000e+00
  1.428623e-01    0.000000e+00
  1.431613e-01    0.000000e+00
  1.434602e-01    0.000000e+00
  1.437591e-01    0.000000e+00
  1.440580e-01    0.000000e+00
  1.443570e-01    0.000000e+00
  1.446559e-01    0.000000e+00
  1.449548e-01    0.000000e+00
  1.452538e-01    0.000000e+00
  1.455527e-01    0.000000e+00
  1.458516e-01    0.000000e+00
  1.461506e-01    0.000000e+00
  1.464495e-01    0.000000e+00
  1.467484e-01    0.000000e+00
  1.470473e-01    0.000000e+00
  1.473463e-01    0.000000e+00
  1.476452e-01    0.000000e+00
  1.479441e-01    0.000000e+00
  1.482431e-01    0.000000e+00
  1.485420e-01    0.000000e+00
  1.488409e-01    0.000000e+00
  1.491399e-01    0.000000e+00
  1.494388e-01    0.000000e+00
  1.497377e-01    0.000000e+00
  1.500367e-01    0.000000e+00
  1.503356e-01    0.000000e+00
  1.506345e-01    0.000000e+00
  1.509334e-01    0.000000e+00
  1.512324e-01    0.000000e+00
  1.515313e-01    0.000000e+00
  1.518302e-01    0.000000e+00
  1.521292e-01    0.000000e+00
  1.524281e-01    0.000000e+00
  1.527270e-01    0.000000e+00
  1.530260e-01    0.000000e+00
  1.533249e-01    0.000000e+00
  1.536238e-01    0.000000e+00
