# == pyFAI calibration ==
# Distance Sample to Detector: 2.266 m
# PONI: 5.659e-02, 4.293e-02 m
# Rotations: 0.000000 0.000000 0.000000 rad
# 
# == Fit2d calibration ==
# Distance Sample-beamCenter: 2266.000 mm
# Center: x=249.594, y=329.012 pix
# Tilt: 0.000 deg  TiltPlanRot: 0.000 deg
# 
# Detector Pilatus 300k	 PixelSize= 1.720e-04, 1.720e-04 m
#    Detector has a mask: True 
#    Detector has a dark current: False 
#    detector has a flat field: False 
# 
# Wavelength: 1.27818e-10 m
# Mask applied: user provided
# Dark current applied: False
# Flat field applied: False
# Polarization factor: None
# Normalization factor: 60355.21
# --> latex_CL3252_TiO2_R706_phiT_0.050_PVC_0.400_DOP_0.015_1_r1d.csv
#        q_A^-1             I 
  4.457554e-03    3.861346e-02
  4.756484e-03    3.077707e-02
  5.055415e-03    2.203515e-02
  5.354345e-03    1.565636e-02
  5.653276e-03    1.229262e-02
  5.952206e-03    1.999817e-02
  6.251136e-03    1.826445e-02
  6.550067e-03    1.576359e-02
  6.848997e-03    1.333391e-02
  7.147927e-03    1.132318e-02
  7.446858e-03    9.613771e-03
  7.745788e-03    8.218192e-03
  8.044719e-03    7.061790e-03
  8.343649e-03    6.166636e-03
  8.642579e-03    5.353231e-03
  8.941510e-03    4.705401e-03
  9.240440e-03    4.152916e-03
  9.539371e-03    3.714234e-03
  9.838301e-03    3.311221e-03
  1.013723e-02    2.975313e-03
  1.043616e-02    2.654727e-03
  1.073509e-02    2.362100e-03
  1.103402e-02    2.116576e-03
  1.133295e-02    1.931403e-03
  1.163188e-02    1.764468e-03
  1.193081e-02    1.601396e-03
  1.222974e-02    1.470744e-03
  1.252867e-02    1.351456e-03
  1.282760e-02    1.251246e-03
  1.312654e-02    1.154436e-03
  1.342547e-02    1.058222e-03
  1.372440e-02    9.754365e-04
  1.402333e-02    9.048491e-04
  1.432226e-02    8.452061e-04
  1.462119e-02    7.840308e-04
  1.492012e-02    7.322947e-04
  1.521905e-02    6.883594e-04
  1.551798e-02    6.492041e-04
  1.581691e-02    6.076416e-04
  1.611584e-02    5.697344e-04
  1.641477e-02    5.357100e-04
  1.671370e-02    4.992904e-04
  1.701263e-02    4.676051e-04
  1.731156e-02    4.479709e-04
  1.761049e-02    4.283459e-04
  1.790942e-02    4.055239e-04
  1.820835e-02    3.815907e-04
  1.850728e-02    3.717577e-04
  1.880621e-02    3.553827e-04
  1.910514e-02    3.395160e-04
  1.940407e-02    3.257415e-04
  1.970300e-02    3.138463e-04
  2.000193e-02    2.990000e-04
  2.030086e-02    2.866002e-04
  2.059979e-02    2.744791e-04
  2.089873e-02    2.641385e-04
  2.119766e-02    2.564162e-04
  2.149659e-02    2.480033e-04
  2.179552e-02    2.430598e-04
  2.209445e-02    2.373217e-04
  2.239338e-02    2.272133e-04
  2.269231e-02    2.254020e-04
  2.299124e-02    2.183227e-04
  2.329017e-02    2.071319e-04
  2.358910e-02    1.985928e-04
  2.388803e-02    1.961490e-04
  2.418696e-02    1.906227e-04
  2.448589e-02    1.874103e-04
  2.478482e-02    1.869629e-04
  2.508375e-02    1.829928e-04
  2.538268e-02    1.798913e-04
  2.568161e-02    1.724145e-04
  2.598054e-02    1.683632e-04
  2.627947e-02    1.670413e-04
  2.657840e-02    1.641166e-04
  2.687733e-02    1.615208e-04
  2.717626e-02    1.561395e-04
  2.747519e-02    1.553574e-04
  2.777412e-02    1.537069e-04
  2.807305e-02    1.483336e-04
  2.837198e-02    1.439329e-04
  2.867092e-02    1.459671e-04
  2.896985e-02    1.457483e-04
  2.926878e-02    1.441566e-04
  2.956771e-02    1.424558e-04
  2.986664e-02    1.384856e-04
  3.016557e-02    1.363965e-04
  3.046450e-02    1.337471e-04
  3.076343e-02    1.336267e-04
  3.106236e-02    1.341344e-04
  3.136129e-02    1.345989e-04
  3.166022e-02    1.293235e-04
  3.195915e-02    1.280534e-04
  3.225808e-02    1.276286e-04
  3.255701e-02    1.254893e-04
  3.285594e-02    1.249293e-04
  3.315487e-02    1.250871e-04
  3.345380e-02    1.254632e-04
  3.375273e-02    1.255040e-04
  3.405166e-02    1.235291e-04
  3.435059e-02    1.242534e-04
  3.464952e-02    1.211511e-04
  3.494845e-02    1.176069e-04
  3.524738e-02    1.150541e-04
  3.554631e-02    1.169524e-04
  3.584524e-02    1.159888e-04
  3.614417e-02    1.128503e-04
  3.644310e-02    1.115833e-04
  3.674204e-02    1.120580e-04
  3.704097e-02    1.108899e-04
  3.733990e-02    1.105202e-04
  3.763883e-02    1.110845e-04
  3.793776e-02    1.096803e-04
  3.823669e-02    1.086139e-04
  3.853562e-02    1.075811e-04
  3.883455e-02    1.084545e-04
  3.913348e-02    1.081738e-04
  3.943241e-02    1.062433e-04
  3.973134e-02    1.052013e-04
  4.003027e-02    1.056166e-04
  4.032920e-02    1.036364e-04
  4.062813e-02    1.017434e-04
  4.092706e-02    1.029666e-04
  4.122599e-02    1.049626e-04
  4.152492e-02    1.057395e-04
  4.182385e-02    1.050187e-04
  4.212278e-02    1.021116e-04
  4.242171e-02    1.039227e-04
  4.272064e-02    1.050221e-04
  4.301957e-02    1.031686e-04
  4.331850e-02    1.006356e-04
  4.361743e-02    9.863314e-05
  4.391636e-02    1.011196e-04
  4.421529e-02    1.026392e-04
  4.451423e-02    1.002501e-04
  4.481316e-02    9.906543e-05
  4.511209e-02    1.008682e-04
  4.541102e-02    1.021910e-04
  4.570995e-02    1.000723e-04
  4.600888e-02    9.868240e-05
  4.630781e-02    9.901444e-05
  4.660674e-02    9.859616e-05
  4.690567e-02    9.976034e-05
  4.720460e-02    1.002161e-04
  4.750353e-02    9.956456e-05
  4.780246e-02    1.007812e-04
  4.810139e-02    1.007722e-04
  4.840032e-02    9.950803e-05
  4.869925e-02    9.790395e-05
  4.899818e-02    9.901844e-05
  4.929711e-02    9.944681e-05
  4.959604e-02    9.770289e-05
  4.989497e-02    9.925663e-05
  5.019390e-02    9.989187e-05
  5.049283e-02    9.786422e-05
  5.079176e-02    9.757307e-05
  5.109069e-02    9.982854e-05
  5.138962e-02    9.919357e-05
  5.168855e-02    1.006255e-04
  5.198748e-02    1.031037e-04
  5.228642e-02    1.029631e-04
  5.258535e-02    1.018121e-04
  5.288428e-02    9.957983e-05
  5.318321e-02    1.002828e-04
  5.348214e-02    1.012351e-04
  5.378107e-02    9.871063e-05
  5.408000e-02    9.718540e-05
  5.437893e-02    9.926648e-05
  5.467786e-02    9.865248e-05
  5.497679e-02    9.907341e-05
  5.527572e-02    9.904328e-05
  5.557465e-02    9.891181e-05
  5.587358e-02    9.960683e-05
  5.617251e-02    1.009398e-04
  5.647144e-02    1.005864e-04
  5.677037e-02    9.989000e-05
  5.706930e-02    1.026624e-04
  5.736823e-02    1.024677e-04
  5.766716e-02    9.948443e-05
  5.796609e-02    9.917104e-05
  5.826502e-02    1.006021e-04
  5.856395e-02    1.021135e-04
  5.886288e-02    1.019504e-04
  5.916181e-02    1.017698e-04
  5.946074e-02    1.016749e-04
  5.975967e-02    1.028970e-04
  6.005861e-02    1.010765e-04
  6.035754e-02    1.021004e-04
  6.065647e-02    1.025568e-04
  6.095540e-02    1.032744e-04
  6.125433e-02    1.034579e-04
  6.155326e-02    1.036289e-04
  6.185219e-02    1.040678e-04
  6.215112e-02    1.043118e-04
  6.245005e-02    1.028140e-04
  6.274898e-02    1.026043e-04
  6.304791e-02    1.036087e-04
  6.334684e-02    1.033721e-04
  6.364577e-02    1.041498e-04
  6.394470e-02    1.030034e-04
  6.424363e-02    1.027759e-04
  6.454256e-02    1.033277e-04
  6.484149e-02    1.040512e-04
  6.514042e-02    1.055500e-04
  6.543935e-02    1.056981e-04
  6.573828e-02    1.049195e-04
  6.603721e-02    1.037379e-04
  6.633614e-02    1.036277e-04
  6.663507e-02    1.047206e-04
  6.693400e-02    1.053315e-04
  6.723293e-02    1.061658e-04
  6.753186e-02    1.054162e-04
  6.783080e-02    1.052478e-04
  6.812973e-02    1.067951e-04
  6.842866e-02    1.055136e-04
  6.872759e-02    1.051483e-04
  6.902652e-02    1.052092e-04
  6.932545e-02    1.062285e-04
  6.962438e-02    1.052200e-04
  6.992331e-02    1.056354e-04
  7.022224e-02    1.061798e-04
  7.052117e-02    1.049898e-04
  7.082010e-02    1.042039e-04
  7.111903e-02    1.073676e-04
  7.141796e-02    1.080478e-04
  7.171689e-02    1.067521e-04
  7.201582e-02    1.066026e-04
  7.231475e-02    1.069402e-04
  7.261368e-02    1.072781e-04
  7.291261e-02    1.068990e-04
  7.321154e-02    1.071425e-04
  7.351047e-02    1.071231e-04
  7.380940e-02    1.068745e-04
  7.410833e-02    1.062666e-04
  7.440726e-02    1.070673e-04
  7.470619e-02    1.083662e-04
  7.500512e-02    1.085768e-04
  7.530405e-02    1.082640e-04
  7.560299e-02    1.073240e-04
  7.590192e-02    1.081170e-04
  7.620085e-02    1.091233e-04
  7.649978e-02    1.075541e-04
  7.679871e-02    1.080558e-04
  7.709764e-02    1.078400e-04
  7.739657e-02    1.074685e-04
  7.769550e-02    1.064917e-04
  7.799443e-02    1.061048e-04
  7.829336e-02    1.071398e-04
  7.859229e-02    1.061535e-04
  7.889122e-02    1.062837e-04
  7.919015e-02    1.078164e-04
  7.948908e-02    1.083183e-04
  7.978801e-02    1.074755e-04
  8.008694e-02    1.072673e-04
  8.038587e-02    1.055304e-04
  8.068480e-02    1.043019e-04
  8.098373e-02    1.053592e-04
  8.128266e-02    1.057715e-04
  8.158159e-02    1.062551e-04
  8.188052e-02    1.051724e-04
  8.217945e-02    1.045034e-04
  8.247838e-02    1.045321e-04
  8.277731e-02    1.065078e-04
  8.307624e-02    1.047343e-04
  8.337518e-02    1.056111e-04
  8.367411e-02    1.064756e-04
  8.397304e-02    1.066055e-04
  8.427197e-02    1.047767e-04
  8.457090e-02    1.042032e-04
  8.486983e-02    1.049985e-04
  8.516876e-02    1.031258e-04
  8.546769e-02    1.027452e-04
  8.576662e-02    1.053005e-04
  8.606555e-02    1.042596e-04
  8.636448e-02    1.032668e-04
  8.666341e-02    1.043938e-04
  8.696234e-02    1.023824e-04
  8.726127e-02    1.004487e-04
  8.756020e-02    1.012965e-04
  8.785913e-02    1.025784e-04
  8.815806e-02    1.017001e-04
  8.845699e-02    1.002229e-04
  8.875592e-02    1.018655e-04
  8.905485e-02    1.040190e-04
  8.935378e-02    1.030335e-04
  8.965271e-02    1.012111e-04
  8.995164e-02    1.010015e-04
  9.025057e-02    1.013464e-04
  9.054950e-02    1.018220e-04
  9.084843e-02    1.025105e-04
  9.114737e-02    1.002532e-04
  9.144630e-02    9.960094e-05
  9.174523e-02    1.011593e-04
  9.204416e-02    1.006176e-04
  9.234309e-02    9.871573e-05
  9.264202e-02    9.873166e-05
  9.294095e-02    9.869935e-05
  9.323988e-02    9.816519e-05
  9.353881e-02    9.823125e-05
  9.383774e-02    9.779787e-05
  9.413667e-02    1.000684e-04
  9.443560e-02    9.871829e-05
  9.473453e-02    9.848887e-05
  9.503346e-02    9.772193e-05
  9.533239e-02    9.929523e-05
  9.563132e-02    9.885286e-05
  9.593025e-02    9.858419e-05
  9.622918e-02    9.855570e-05
  9.652811e-02    9.650222e-05
  9.682704e-02    9.646382e-05
  9.712597e-02    9.728241e-05
  9.742490e-02    9.732982e-05
  9.772383e-02    9.666425e-05
  9.802276e-02    9.770559e-05
  9.832169e-02    9.654732e-05
  9.862062e-02    9.597146e-05
  9.891956e-02    9.718993e-05
  9.921849e-02    9.588883e-05
  9.951742e-02    9.609128e-05
  9.981635e-02    9.701214e-05
  1.001153e-01    9.569275e-05
  1.004142e-01    9.494707e-05
  1.007131e-01    9.626849e-05
  1.010121e-01    9.402879e-05
  1.013110e-01    9.301685e-05
  1.016099e-01    9.222081e-05
  1.019089e-01    9.360227e-05
  1.022078e-01    9.399326e-05
  1.025067e-01    9.380595e-05
  1.028057e-01    9.225043e-05
  1.031046e-01    9.255068e-05
  1.034035e-01    9.146589e-05
  1.037024e-01    9.196698e-05
  1.040014e-01    9.201376e-05
  1.043003e-01    9.185771e-05
  1.045992e-01    9.244207e-05
  1.048982e-01    9.219476e-05
  1.051971e-01    9.388712e-05
  1.054960e-01    9.240512e-05
  1.057950e-01    8.969613e-05
  1.060939e-01    9.052114e-05
  1.063928e-01    9.037638e-05
  1.066917e-01    9.043553e-05
  1.069907e-01    9.190202e-05
  1.072896e-01    9.209679e-05
  1.075885e-01    9.094053e-05
  1.078875e-01    9.054576e-05
  1.081864e-01    8.969595e-05
  1.084853e-01    8.928566e-05
  1.087843e-01    9.016297e-05
  1.090832e-01    9.124052e-05
  1.093821e-01    8.938924e-05
  1.096810e-01    8.972862e-05
  1.099800e-01    9.014097e-05
  1.102789e-01    8.866752e-05
  1.105778e-01    8.850401e-05
  1.108768e-01    8.913816e-05
  1.111757e-01    8.702483e-05
  1.114746e-01    8.734874e-05
  1.117736e-01    8.921980e-05
  1.120725e-01    8.977310e-05
  1.123714e-01    8.783155e-05
  1.126704e-01    8.675492e-05
  1.129693e-01    8.677874e-05
  1.132682e-01    8.499753e-05
  1.135671e-01    8.399713e-05
  1.138661e-01    8.422467e-05
  1.141650e-01    8.680549e-05
  1.144639e-01    8.882353e-05
  1.147629e-01    8.728244e-05
  1.150618e-01    8.553652e-05
  1.153607e-01    8.205757e-05
  1.156597e-01    8.277474e-05
  1.159586e-01    8.467759e-05
  1.162575e-01    8.551965e-05
  1.165564e-01    8.527053e-05
  1.168554e-01    8.679726e-05
  1.171543e-01    8.700798e-05
  1.174532e-01    8.396263e-05
  1.177522e-01    8.113340e-05
  1.180511e-01    8.018702e-05
  1.183500e-01    8.669795e-05
  1.186490e-01    8.543470e-05
  1.189479e-01    8.621258e-05
  1.192468e-01    8.643600e-05
  1.195458e-01    8.451273e-05
  1.198447e-01    8.731248e-05
  1.201436e-01    8.711871e-05
  1.204425e-01    7.819650e-05
  1.207415e-01    7.308552e-05
  1.210404e-01    9.950152e-05
  1.213393e-01    0.000000e+00
  1.216383e-01    0.000000e+00
  1.219372e-01    0.000000e+00
  1.222361e-01    0.000000e+00
  1.225351e-01    0.000000e+00
  1.228340e-01    0.000000e+00
  1.231329e-01    0.000000e+00
  1.234318e-01    0.000000e+00
  1.237308e-01    0.000000e+00
  1.240297e-01    0.000000e+00
  1.243286e-01    0.000000e+00
  1.246276e-01    0.000000e+00
  1.249265e-01    0.000000e+00
  1.252254e-01    0.000000e+00
  1.255244e-01    0.000000e+00
  1.258233e-01    0.000000e+00
  1.261222e-01    0.000000e+00
  1.264212e-01    0.000000e+00
  1.267201e-01    0.000000e+00
  1.270190e-01    0.000000e+00
  1.273179e-01    0.000000e+00
  1.276169e-01    0.000000e+00
  1.279158e-01    0.000000e+00
  1.282147e-01    0.000000e+00
  1.285137e-01    0.000000e+00
  1.288126e-01    0.000000e+00
  1.291115e-01    0.000000e+00
  1.294105e-01    0.000000e+00
  1.297094e-01    0.000000e+00
  1.300083e-01    0.000000e+00
  1.303072e-01    0.000000e+00
  1.306062e-01    0.000000e+00
  1.309051e-01    0.000000e+00
  1.312040e-01    0.000000e+00
  1.315030e-01    0.000000e+00
  1.318019e-01    0.000000e+00
  1.321008e-01    0.000000e+00
  1.323998e-01    0.000000e+00
  1.326987e-01    0.000000e+00
  1.329976e-01    0.000000e+00
  1.332965e-01    0.000000e+00
  1.335955e-01    0.000000e+00
  1.338944e-01    0.000000e+00
  1.341933e-01    0.000000e+00
  1.344923e-01    0.000000e+00
  1.347912e-01    0.000000e+00
  1.350901e-01    0.000000e+00
  1.353891e-01    0.000000e+00
  1.356880e-01    0.000000e+00
  1.359869e-01    0.000000e+00
  1.362859e-01    0.000000e+00
  1.365848e-01    0.000000e+00
  1.368837e-01    0.000000e+00
  1.371826e-01    0.000000e+00
  1.374816e-01    0.000000e+00
  1.377805e-01    0.000000e+00
  1.380794e-01    0.000000e+00
  1.383784e-01    0.000000e+00
  1.386773e-01    0.000000e+00
  1.389762e-01    0.000000e+00
  1.392752e-01    0.000000e+00
  1.395741e-01    0.000000e+00
  1.398730e-01    0.000000e+00
  1.401719e-01    0.000000e+00
  1.404709e-01    0.000000e+00
  1.407698e-01    0.000000e+00
  1.410687e-01    0.000000e+00
  1.413677e-01    0.000000e+00
  1.416666e-01    0.000000e+00
  1.419655e-01    0.000000e+00
  1.422645e-01    0.000000e+00
  1.425634e-01    0.000000e+00
  1.428623e-01    0.000000e+00
  1.431613e-01    0.000000e+00
  1.434602e-01    0.000000e+00
  1.437591e-01    0.000000e+00
  1.440580e-01    0.000000e+00
  1.443570e-01    0.000000e+00
  1.446559e-01    0.000000e+00
  1.449548e-01    0.000000e+00
  1.452538e-01    0.000000e+00
  1.455527e-01    0.000000e+00
  1.458516e-01    0.000000e+00
  1.461506e-01    0.000000e+00
  1.464495e-01    0.000000e+00
  1.467484e-01    0.000000e+00
  1.470473e-01    0.000000e+00
  1.473463e-01    0.000000e+00
  1.476452e-01    0.000000e+00
  1.479441e-01    0.000000e+00
  1.482431e-01    0.000000e+00
  1.485420e-01    0.000000e+00
  1.488409e-01    0.000000e+00
  1.491399e-01    0.000000e+00
  1.494388e-01    0.000000e+00
  1.497377e-01    0.000000e+00
  1.500367e-01    0.000000e+00
  1.503356e-01    0.000000e+00
  1.506345e-01    0.000000e+00
  1.509334e-01    0.000000e+00
  1.512324e-01    0.000000e+00
  1.515313e-01    0.000000e+00
  1.518302e-01    0.000000e+00
  1.521292e-01    0.000000e+00
  1.524281e-01    0.000000e+00
  1.527270e-01    0.000000e+00
  1.530260e-01    0.000000e+00
  1.533249e-01    0.000000e+00
  1.536238e-01    0.000000e+00
