# == pyFAI calibration ==
# Distance Sample to Detector: 2.266 m
# PONI: 5.659e-02, 4.293e-02 m
# Rotations: 0.000000 0.000000 0.000000 rad
# 
# == Fit2d calibration ==
# Distance Sample-beamCenter: 2266.000 mm
# Center: x=249.594, y=329.012 pix
# Tilt: 0.000 deg  TiltPlanRot: 0.000 deg
# 
# Detector Pilatus 300k	 PixelSize= 1.720e-04, 1.720e-04 m
#    Detector has a mask: True 
#    Detector has a dark current: False 
#    detector has a flat field: False 
# 
# Wavelength: 1.27818e-10 m
# Mask applied: user provided
# Dark current applied: False
# Flat field applied: False
# Polarization factor: None
# Normalization factor: 22838.11
# --> latex_CL3252_TiO2_R706_phiT_0.030_PVC_0.600_DOP_0.005_0_r1d.csv
#        q_A^-1             I 
  4.457554e-03    2.802734e-02
  4.756484e-03    2.226380e-02
  5.055415e-03    1.538188e-02
  5.354345e-03    1.087473e-02
  5.653276e-03    8.058715e-03
  5.952206e-03    1.240225e-02
  6.251136e-03    1.134436e-02
  6.550067e-03    9.737858e-03
  6.848997e-03    8.282465e-03
  7.147927e-03    7.064790e-03
  7.446858e-03    5.986031e-03
  7.745788e-03    5.098528e-03
  8.044719e-03    4.410995e-03
  8.343649e-03    3.876647e-03
  8.642579e-03    3.381403e-03
  8.941510e-03    3.007550e-03
  9.240440e-03    2.646849e-03
  9.539371e-03    2.316995e-03
  9.838301e-03    2.081669e-03
  1.013723e-02    1.878422e-03
  1.043616e-02    1.699251e-03
  1.073509e-02    1.521233e-03
  1.103402e-02    1.370064e-03
  1.133295e-02    1.237548e-03
  1.163188e-02    1.139185e-03
  1.193081e-02    1.036642e-03
  1.222974e-02    9.549690e-04
  1.252867e-02    8.767779e-04
  1.282760e-02    7.897267e-04
  1.312654e-02    7.224253e-04
  1.342547e-02    6.749438e-04
  1.372440e-02    6.332277e-04
  1.402333e-02    5.803648e-04
  1.432226e-02    5.322941e-04
  1.462119e-02    4.871925e-04
  1.492012e-02    4.601578e-04
  1.521905e-02    4.377285e-04
  1.551798e-02    4.117002e-04
  1.581691e-02    3.770218e-04
  1.611584e-02    3.583720e-04
  1.641477e-02    3.417584e-04
  1.671370e-02    3.222868e-04
  1.701263e-02    3.026396e-04
  1.731156e-02    2.892867e-04
  1.761049e-02    2.770634e-04
  1.790942e-02    2.558051e-04
  1.820835e-02    2.441853e-04
  1.850728e-02    2.311774e-04
  1.880621e-02    2.243155e-04
  1.910514e-02    2.146460e-04
  1.940407e-02    2.041623e-04
  1.970300e-02    1.962697e-04
  2.000193e-02    1.883347e-04
  2.030086e-02    1.788867e-04
  2.059979e-02    1.745330e-04
  2.089873e-02    1.682072e-04
  2.119766e-02    1.639866e-04
  2.149659e-02    1.545557e-04
  2.179552e-02    1.523592e-04
  2.209445e-02    1.500362e-04
  2.239338e-02    1.429106e-04
  2.269231e-02    1.454542e-04
  2.299124e-02    1.389368e-04
  2.329017e-02    1.362247e-04
  2.358910e-02    1.367238e-04
  2.388803e-02    1.319781e-04
  2.418696e-02    1.306363e-04
  2.448589e-02    1.257984e-04
  2.478482e-02    1.196154e-04
  2.508375e-02    1.192249e-04
  2.538268e-02    1.168295e-04
  2.568161e-02    1.114172e-04
  2.598054e-02    1.103749e-04
  2.627947e-02    1.100600e-04
  2.657840e-02    1.051127e-04
  2.687733e-02    1.036766e-04
  2.717626e-02    1.015816e-04
  2.747519e-02    1.016713e-04
  2.777412e-02    1.007281e-04
  2.807305e-02    1.015372e-04
  2.837198e-02    9.194256e-05
  2.867092e-02    9.169814e-05
  2.896985e-02    9.254016e-05
  2.926878e-02    8.942546e-05
  2.956771e-02    8.799305e-05
  2.986664e-02    8.999562e-05
  3.016557e-02    9.174557e-05
  3.046450e-02    8.666608e-05
  3.076343e-02    8.899778e-05
  3.106236e-02    8.992387e-05
  3.136129e-02    8.605125e-05
  3.166022e-02    8.534256e-05
  3.195915e-02    8.650550e-05
  3.225808e-02    8.459219e-05
  3.255701e-02    8.486274e-05
  3.285594e-02    8.598449e-05
  3.315487e-02    8.657743e-05
  3.345380e-02    8.468993e-05
  3.375273e-02    7.940592e-05
  3.405166e-02    7.766215e-05
  3.435059e-02    7.792586e-05
  3.464952e-02    7.969815e-05
  3.494845e-02    8.206742e-05
  3.524738e-02    7.588199e-05
  3.554631e-02    7.051577e-05
  3.584524e-02    7.014414e-05
  3.614417e-02    7.373461e-05
  3.644310e-02    7.363137e-05
  3.674204e-02    7.091731e-05
  3.704097e-02    7.037672e-05
  3.733990e-02    6.881463e-05
  3.763883e-02    6.873989e-05
  3.793776e-02    6.820477e-05
  3.823669e-02    6.953658e-05
  3.853562e-02    6.996124e-05
  3.883455e-02    6.889454e-05
  3.913348e-02    6.886973e-05
  3.943241e-02    6.958580e-05
  3.973134e-02    6.802463e-05
  4.003027e-02    6.749787e-05
  4.032920e-02    6.635104e-05
  4.062813e-02    6.450454e-05
  4.092706e-02    6.404373e-05
  4.122599e-02    6.338352e-05
  4.152492e-02    6.458372e-05
  4.182385e-02    6.297117e-05
  4.212278e-02    6.409932e-05
  4.242171e-02    6.418080e-05
  4.272064e-02    6.295527e-05
  4.301957e-02    6.364460e-05
  4.331850e-02    6.311102e-05
  4.361743e-02    6.292371e-05
  4.391636e-02    6.318405e-05
  4.421529e-02    6.240456e-05
  4.451423e-02    6.093822e-05
  4.481316e-02    6.080432e-05
  4.511209e-02    6.307100e-05
  4.541102e-02    6.442414e-05
  4.570995e-02    6.192753e-05
  4.600888e-02    6.022711e-05
  4.630781e-02    6.248850e-05
  4.660674e-02    6.383398e-05
  4.690567e-02    6.341548e-05
  4.720460e-02    6.252072e-05
  4.750353e-02    6.080498e-05
  4.780246e-02    6.079498e-05
  4.810139e-02    6.099927e-05
  4.840032e-02    6.234206e-05
  4.869925e-02    6.207520e-05
  4.899818e-02    6.095927e-05
  4.929711e-02    6.190798e-05
  4.959604e-02    6.131838e-05
  4.989497e-02    6.185923e-05
  5.019390e-02    6.318884e-05
  5.049283e-02    6.279624e-05
  5.079176e-02    6.271045e-05
  5.109069e-02    6.144743e-05
  5.138962e-02    6.285014e-05
  5.168855e-02    6.453520e-05
  5.198748e-02    6.547493e-05
  5.228642e-02    6.423082e-05
  5.258535e-02    6.194811e-05
  5.288428e-02    6.093709e-05
  5.318321e-02    6.081329e-05
  5.348214e-02    6.012020e-05
  5.378107e-02    6.155787e-05
  5.408000e-02    6.069028e-05
  5.437893e-02    5.845497e-05
  5.467786e-02    6.032685e-05
  5.497679e-02    5.936155e-05
  5.527572e-02    5.764670e-05
  5.557465e-02    6.041749e-05
  5.587358e-02    6.341180e-05
  5.617251e-02    6.270480e-05
  5.647144e-02    6.160660e-05
  5.677037e-02    6.033722e-05
  5.706930e-02    6.089125e-05
  5.736823e-02    6.201835e-05
  5.766716e-02    6.207566e-05
  5.796609e-02    6.262240e-05
  5.826502e-02    5.999883e-05
  5.856395e-02    6.078722e-05
  5.886288e-02    6.253144e-05
  5.916181e-02    6.135300e-05
  5.946074e-02    6.145777e-05
  5.975967e-02    6.069533e-05
  6.005861e-02    6.073442e-05
  6.035754e-02    6.044727e-05
  6.065647e-02    6.244731e-05
  6.095540e-02    6.613342e-05
  6.125433e-02    6.608397e-05
  6.155326e-02    6.343680e-05
  6.185219e-02    6.396046e-05
  6.215112e-02    6.183444e-05
  6.245005e-02    6.126914e-05
  6.274898e-02    6.385502e-05
  6.304791e-02    6.226564e-05
  6.334684e-02    6.066385e-05
  6.364577e-02    6.386170e-05
  6.394470e-02    6.534466e-05
  6.424363e-02    6.314831e-05
  6.454256e-02    6.234245e-05
  6.484149e-02    6.189216e-05
  6.514042e-02    6.200386e-05
  6.543935e-02    6.175795e-05
  6.573828e-02    6.211918e-05
  6.603721e-02    6.348702e-05
  6.633614e-02    6.392514e-05
  6.663507e-02    6.437423e-05
  6.693400e-02    6.348704e-05
  6.723293e-02    6.334396e-05
  6.753186e-02    6.477658e-05
  6.783080e-02    6.393279e-05
  6.812973e-02    6.138232e-05
  6.842866e-02    6.121988e-05
  6.872759e-02    6.330169e-05
  6.902652e-02    6.430902e-05
  6.932545e-02    6.548588e-05
  6.962438e-02    6.622355e-05
  6.992331e-02    6.329011e-05
  7.022224e-02    6.317851e-05
  7.052117e-02    6.323981e-05
  7.082010e-02    6.229938e-05
  7.111903e-02    6.367462e-05
  7.141796e-02    6.423157e-05
  7.171689e-02    6.359431e-05
  7.201582e-02    6.308769e-05
  7.231475e-02    6.276933e-05
  7.261368e-02    6.225134e-05
  7.291261e-02    6.179462e-05
  7.321154e-02    6.349514e-05
  7.351047e-02    6.343537e-05
  7.380940e-02    6.487224e-05
  7.410833e-02    6.604185e-05
  7.440726e-02    6.697656e-05
  7.470619e-02    6.266355e-05
  7.500512e-02    6.377599e-05
  7.530405e-02    6.637666e-05
  7.560299e-02    6.596522e-05
  7.590192e-02    6.482634e-05
  7.620085e-02    6.623775e-05
  7.649978e-02    6.438134e-05
  7.679871e-02    6.382511e-05
  7.709764e-02    6.440594e-05
  7.739657e-02    6.364640e-05
  7.769550e-02    6.236557e-05
  7.799443e-02    6.465226e-05
  7.829336e-02    6.425880e-05
  7.859229e-02    6.431339e-05
  7.889122e-02    6.313493e-05
  7.919015e-02    6.366822e-05
  7.948908e-02    6.371044e-05
  7.978801e-02    6.186101e-05
  8.008694e-02    6.232008e-05
  8.038587e-02    6.273858e-05
  8.068480e-02    6.240797e-05
  8.098373e-02    6.198302e-05
  8.128266e-02    6.244114e-05
  8.158159e-02    6.543437e-05
  8.188052e-02    6.525298e-05
  8.217945e-02    6.516604e-05
  8.247838e-02    6.306504e-05
  8.277731e-02    6.130392e-05
  8.307624e-02    6.165916e-05
  8.337518e-02    6.135875e-05
  8.367411e-02    6.106967e-05
  8.397304e-02    6.099581e-05
  8.427197e-02    6.139965e-05
  8.457090e-02    6.151851e-05
  8.486983e-02    6.109328e-05
  8.516876e-02    6.136006e-05
  8.546769e-02    6.356247e-05
  8.576662e-02    6.334922e-05
  8.606555e-02    6.184809e-05
  8.636448e-02    6.016215e-05
  8.666341e-02    5.846901e-05
  8.696234e-02    6.064175e-05
  8.726127e-02    6.175367e-05
  8.756020e-02    6.150529e-05
  8.785913e-02    6.137931e-05
  8.815806e-02    6.017913e-05
  8.845699e-02    6.057583e-05
  8.875592e-02    6.092112e-05
  8.905485e-02    6.092322e-05
  8.935378e-02    6.168916e-05
  8.965271e-02    6.154374e-05
  8.995164e-02    6.161086e-05
  9.025057e-02    6.099790e-05
  9.054950e-02    6.064762e-05
  9.084843e-02    6.011257e-05
  9.114737e-02    5.880052e-05
  9.144630e-02    5.817266e-05
  9.174523e-02    5.901789e-05
  9.204416e-02    6.049557e-05
  9.234309e-02    5.838379e-05
  9.264202e-02    5.774776e-05
  9.294095e-02    6.094859e-05
  9.323988e-02    6.134844e-05
  9.353881e-02    6.089648e-05
  9.383774e-02    5.985820e-05
  9.413667e-02    5.891462e-05
  9.443560e-02    5.831530e-05
  9.473453e-02    5.811139e-05
  9.503346e-02    5.919004e-05
  9.533239e-02    5.943292e-05
  9.563132e-02    5.977290e-05
  9.593025e-02    5.803366e-05
  9.622918e-02    5.778152e-05
  9.652811e-02    5.848747e-05
  9.682704e-02    5.772785e-05
  9.712597e-02    5.789847e-05
  9.742490e-02    5.591993e-05
  9.772383e-02    5.630743e-05
  9.802276e-02    5.597848e-05
  9.832169e-02    5.776609e-05
  9.862062e-02    5.993091e-05
  9.891956e-02    5.640459e-05
  9.921849e-02    5.457770e-05
  9.951742e-02    5.542993e-05
  9.981635e-02    5.648455e-05
  1.001153e-01    5.846801e-05
  1.004142e-01    5.829758e-05
  1.007131e-01    5.569492e-05
  1.010121e-01    5.605362e-05
  1.013110e-01    5.724127e-05
  1.016099e-01    5.576051e-05
  1.019089e-01    5.658536e-05
  1.022078e-01    5.694701e-05
  1.025067e-01    5.601384e-05
  1.028057e-01    5.441791e-05
  1.031046e-01    5.336778e-05
  1.034035e-01    5.498275e-05
  1.037024e-01    5.599097e-05
  1.040014e-01    5.562899e-05
  1.043003e-01    5.576771e-05
  1.045992e-01    5.511227e-05
  1.048982e-01    5.343924e-05
  1.051971e-01    5.485640e-05
  1.054960e-01    5.495695e-05
  1.057950e-01    5.271040e-05
  1.060939e-01    5.247909e-05
  1.063928e-01    5.334487e-05
  1.066917e-01    5.533444e-05
  1.069907e-01    5.537253e-05
  1.072896e-01    5.520682e-05
  1.075885e-01    5.477584e-05
  1.078875e-01    5.409752e-05
  1.081864e-01    5.502253e-05
  1.084853e-01    5.355748e-05
  1.087843e-01    5.327256e-05
  1.090832e-01    5.542795e-05
  1.093821e-01    5.545221e-05
  1.096810e-01    5.471561e-05
  1.099800e-01    5.285403e-05
  1.102789e-01    5.220140e-05
  1.105778e-01    5.115040e-05
  1.108768e-01    5.238977e-05
  1.111757e-01    5.171294e-05
  1.114746e-01    5.099129e-05
  1.117736e-01    5.206401e-05
  1.120725e-01    5.333209e-05
  1.123714e-01    5.235124e-05
  1.126704e-01    5.185254e-05
  1.129693e-01    5.238590e-05
  1.132682e-01    5.077281e-05
  1.135671e-01    4.959132e-05
  1.138661e-01    5.209400e-05
  1.141650e-01    5.436912e-05
  1.144639e-01    5.662948e-05
  1.147629e-01    5.307738e-05
  1.150618e-01    5.262013e-05
  1.153607e-01    5.308272e-05
  1.156597e-01    5.232354e-05
  1.159586e-01    5.105736e-05
  1.162575e-01    4.940702e-05
  1.165564e-01    4.793040e-05
  1.168554e-01    4.879940e-05
  1.171543e-01    4.997873e-05
  1.174532e-01    5.022636e-05
  1.177522e-01    5.196160e-05
  1.180511e-01    4.972364e-05
  1.183500e-01    4.767707e-05
  1.186490e-01    4.754026e-05
  1.189479e-01    4.736146e-05
  1.192468e-01    4.918097e-05
  1.195458e-01    5.105964e-05
  1.198447e-01    5.386064e-05
  1.201436e-01    5.197724e-05
  1.204425e-01    4.266277e-05
  1.207415e-01    5.189666e-05
  1.210404e-01    4.382613e-05
  1.213393e-01    0.000000e+00
  1.216383e-01    0.000000e+00
  1.219372e-01    0.000000e+00
  1.222361e-01    0.000000e+00
  1.225351e-01    0.000000e+00
  1.228340e-01    0.000000e+00
  1.231329e-01    0.000000e+00
  1.234318e-01    0.000000e+00
  1.237308e-01    0.000000e+00
  1.240297e-01    0.000000e+00
  1.243286e-01    0.000000e+00
  1.246276e-01    0.000000e+00
  1.249265e-01    0.000000e+00
  1.252254e-01    0.000000e+00
  1.255244e-01    0.000000e+00
  1.258233e-01    0.000000e+00
  1.261222e-01    0.000000e+00
  1.264212e-01    0.000000e+00
  1.267201e-01    0.000000e+00
  1.270190e-01    0.000000e+00
  1.273179e-01    0.000000e+00
  1.276169e-01    0.000000e+00
  1.279158e-01    0.000000e+00
  1.282147e-01    0.000000e+00
  1.285137e-01    0.000000e+00
  1.288126e-01    0.000000e+00
  1.291115e-01    0.000000e+00
  1.294105e-01    0.000000e+00
  1.297094e-01    0.000000e+00
  1.300083e-01    0.000000e+00
  1.303072e-01    0.000000e+00
  1.306062e-01    0.000000e+00
  1.309051e-01    0.000000e+00
  1.312040e-01    0.000000e+00
  1.315030e-01    0.000000e+00
  1.318019e-01    0.000000e+00
  1.321008e-01    0.000000e+00
  1.323998e-01    0.000000e+00
  1.326987e-01    0.000000e+00
  1.329976e-01    0.000000e+00
  1.332965e-01    0.000000e+00
  1.335955e-01    0.000000e+00
  1.338944e-01    0.000000e+00
  1.341933e-01    0.000000e+00
  1.344923e-01    0.000000e+00
  1.347912e-01    0.000000e+00
  1.350901e-01    0.000000e+00
  1.353891e-01    0.000000e+00
  1.356880e-01    0.000000e+00
  1.359869e-01    0.000000e+00
  1.362859e-01    0.000000e+00
  1.365848e-01    0.000000e+00
  1.368837e-01    0.000000e+00
  1.371826e-01    0.000000e+00
  1.374816e-01    0.000000e+00
  1.377805e-01    0.000000e+00
  1.380794e-01    0.000000e+00
  1.383784e-01    0.000000e+00
  1.386773e-01    0.000000e+00
  1.389762e-01    0.000000e+00
  1.392752e-01    0.000000e+00
  1.395741e-01    0.000000e+00
  1.398730e-01    0.000000e+00
  1.401719e-01    0.000000e+00
  1.404709e-01    0.000000e+00
  1.407698e-01    0.000000e+00
  1.410687e-01    0.000000e+00
  1.413677e-01    0.000000e+00
  1.416666e-01    0.000000e+00
  1.419655e-01    0.000000e+00
  1.422645e-01    0.000000e+00
  1.425634e-01    0.000000e+00
  1.428623e-01    0.000000e+00
  1.431613e-01    0.000000e+00
  1.434602e-01    0.000000e+00
  1.437591e-01    0.000000e+00
  1.440580e-01    0.000000e+00
  1.443570e-01    0.000000e+00
  1.446559e-01    0.000000e+00
  1.449548e-01    0.000000e+00
  1.452538e-01    0.000000e+00
  1.455527e-01    0.000000e+00
  1.458516e-01    0.000000e+00
  1.461506e-01    0.000000e+00
  1.464495e-01    0.000000e+00
  1.467484e-01    0.000000e+00
  1.470473e-01    0.000000e+00
  1.473463e-01    0.000000e+00
  1.476452e-01    0.000000e+00
  1.479441e-01    0.000000e+00
  1.482431e-01    0.000000e+00
  1.485420e-01    0.000000e+00
  1.488409e-01    0.000000e+00
  1.491399e-01    0.000000e+00
  1.494388e-01    0.000000e+00
  1.497377e-01    0.000000e+00
  1.500367e-01    0.000000e+00
  1.503356e-01    0.000000e+00
  1.506345e-01    0.000000e+00
  1.509334e-01    0.000000e+00
  1.512324e-01    0.000000e+00
  1.515313e-01    0.000000e+00
  1.518302e-01    0.000000e+00
  1.521292e-01    0.000000e+00
  1.524281e-01    0.000000e+00
  1.527270e-01    0.000000e+00
  1.530260e-01    0.000000e+00
  1.533249e-01    0.000000e+00
  1.536238e-01    0.000000e+00
