# == pyFAI calibration ==
# Distance Sample to Detector: 2.266 m
# PONI: 5.659e-02, 4.293e-02 m
# Rotations: 0.000000 0.000000 0.000000 rad
# 
# == Fit2d calibration ==
# Distance Sample-beamCenter: 2266.000 mm
# Center: x=249.594, y=329.012 pix
# Tilt: 0.000 deg  TiltPlanRot: 0.000 deg
# 
# Detector Pilatus 300k	 PixelSize= 1.720e-04, 1.720e-04 m
#    Detector has a mask: True 
#    Detector has a dark current: False 
#    detector has a flat field: False 
# 
# Wavelength: 1.27818e-10 m
# Mask applied: user provided
# Dark current applied: False
# Flat field applied: False
# Polarization factor: None
# Normalization factor: 37584.24999999999
# --> latex_CL3252_TiO2_R706_phiT_0.110_PVC_0.600_DOP_0.010_2_r1d.csv
#        q_A^-1             I 
  4.457554e-03    4.902676e-02
  4.756484e-03    3.861332e-02
  5.055415e-03    2.801537e-02
  5.354345e-03    2.009050e-02
  5.653276e-03    1.605416e-02
  5.952206e-03    2.793719e-02
  6.251136e-03    2.530547e-02
  6.550067e-03    2.178849e-02
  6.848997e-03    1.846347e-02
  7.147927e-03    1.545129e-02
  7.446858e-03    1.309525e-02
  7.745788e-03    1.109102e-02
  8.044719e-03    9.445939e-03
  8.343649e-03    8.202223e-03
  8.642579e-03    7.157459e-03
  8.941510e-03    6.284879e-03
  9.240440e-03    5.546394e-03
  9.539371e-03    4.884889e-03
  9.838301e-03    4.323849e-03
  1.013723e-02    3.870994e-03
  1.043616e-02    3.480445e-03
  1.073509e-02    3.112030e-03
  1.103402e-02    2.801782e-03
  1.133295e-02    2.507366e-03
  1.163188e-02    2.251175e-03
  1.193081e-02    2.048329e-03
  1.222974e-02    1.886748e-03
  1.252867e-02    1.721419e-03
  1.282760e-02    1.569636e-03
  1.312654e-02    1.440387e-03
  1.342547e-02    1.335794e-03
  1.372440e-02    1.221504e-03
  1.402333e-02    1.128079e-03
  1.432226e-02    1.049296e-03
  1.462119e-02    9.842743e-04
  1.492012e-02    9.111024e-04
  1.521905e-02    8.546244e-04
  1.551798e-02    8.088967e-04
  1.581691e-02    7.669735e-04
  1.611584e-02    7.177816e-04
  1.641477e-02    6.634518e-04
  1.671370e-02    6.186388e-04
  1.701263e-02    5.865053e-04
  1.731156e-02    5.593888e-04
  1.761049e-02    5.328336e-04
  1.790942e-02    5.009075e-04
  1.820835e-02    4.715458e-04
  1.850728e-02    4.462206e-04
  1.880621e-02    4.256216e-04
  1.910514e-02    4.127392e-04
  1.940407e-02    3.898313e-04
  1.970300e-02    3.747405e-04
  2.000193e-02    3.560772e-04
  2.030086e-02    3.425027e-04
  2.059979e-02    3.346911e-04
  2.089873e-02    3.267462e-04
  2.119766e-02    3.089629e-04
  2.149659e-02    2.901296e-04
  2.179552e-02    2.790837e-04
  2.209445e-02    2.712242e-04
  2.239338e-02    2.622183e-04
  2.269231e-02    2.542606e-04
  2.299124e-02    2.523332e-04
  2.329017e-02    2.420223e-04
  2.358910e-02    2.379862e-04
  2.388803e-02    2.328738e-04
  2.418696e-02    2.282390e-04
  2.448589e-02    2.238962e-04
  2.478482e-02    2.151686e-04
  2.508375e-02    2.070231e-04
  2.538268e-02    2.008430e-04
  2.568161e-02    1.951312e-04
  2.598054e-02    1.948032e-04
  2.627947e-02    1.978379e-04
  2.657840e-02    1.943739e-04
  2.687733e-02    1.885263e-04
  2.717626e-02    1.856099e-04
  2.747519e-02    1.802872e-04
  2.777412e-02    1.712607e-04
  2.807305e-02    1.668427e-04
  2.837198e-02    1.689367e-04
  2.867092e-02    1.688833e-04
  2.896985e-02    1.608165e-04
  2.926878e-02    1.601177e-04
  2.956771e-02    1.559414e-04
  2.986664e-02    1.561007e-04
  3.016557e-02    1.589554e-04
  3.046450e-02    1.589906e-04
  3.076343e-02    1.552444e-04
  3.106236e-02    1.525925e-04
  3.136129e-02    1.512760e-04
  3.166022e-02    1.469402e-04
  3.195915e-02    1.438885e-04
  3.225808e-02    1.410052e-04
  3.255701e-02    1.411279e-04
  3.285594e-02    1.387261e-04
  3.315487e-02    1.382468e-04
  3.345380e-02    1.369438e-04
  3.375273e-02    1.367360e-04
  3.405166e-02    1.328154e-04
  3.435059e-02    1.331453e-04
  3.464952e-02    1.320627e-04
  3.494845e-02    1.297647e-04
  3.524738e-02    1.290188e-04
  3.554631e-02    1.286469e-04
  3.584524e-02    1.287563e-04
  3.614417e-02    1.275481e-04
  3.644310e-02    1.237429e-04
  3.674204e-02    1.205143e-04
  3.704097e-02    1.212415e-04
  3.733990e-02    1.241552e-04
  3.763883e-02    1.232057e-04
  3.793776e-02    1.205821e-04
  3.823669e-02    1.187647e-04
  3.853562e-02    1.182981e-04
  3.883455e-02    1.193050e-04
  3.913348e-02    1.203464e-04
  3.943241e-02    1.191009e-04
  3.973134e-02    1.160777e-04
  4.003027e-02    1.139036e-04
  4.032920e-02    1.166394e-04
  4.062813e-02    1.160603e-04
  4.092706e-02    1.130907e-04
  4.122599e-02    1.151643e-04
  4.152492e-02    1.152641e-04
  4.182385e-02    1.134517e-04
  4.212278e-02    1.134099e-04
  4.242171e-02    1.111204e-04
  4.272064e-02    1.092477e-04
  4.301957e-02    1.101744e-04
  4.331850e-02    1.114844e-04
  4.361743e-02    1.098436e-04
  4.391636e-02    1.066985e-04
  4.421529e-02    1.077434e-04
  4.451423e-02    1.087989e-04
  4.481316e-02    1.071483e-04
  4.511209e-02    1.081208e-04
  4.541102e-02    1.090665e-04
  4.570995e-02    1.067219e-04
  4.600888e-02    1.062210e-04
  4.630781e-02    1.094139e-04
  4.660674e-02    1.101835e-04
  4.690567e-02    1.076594e-04
  4.720460e-02    1.069204e-04
  4.750353e-02    1.088561e-04
  4.780246e-02    1.098444e-04
  4.810139e-02    1.091086e-04
  4.840032e-02    1.089563e-04
  4.869925e-02    1.090039e-04
  4.899818e-02    1.056014e-04
  4.929711e-02    1.075957e-04
  4.959604e-02    1.088273e-04
  4.989497e-02    1.050479e-04
  5.019390e-02    1.058702e-04
  5.049283e-02    1.043930e-04
  5.079176e-02    1.086584e-04
  5.109069e-02    1.084256e-04
  5.138962e-02    1.072490e-04
  5.168855e-02    1.097747e-04
  5.198748e-02    1.136649e-04
  5.228642e-02    1.120925e-04
  5.258535e-02    1.074858e-04
  5.288428e-02    1.064378e-04
  5.318321e-02    1.073936e-04
  5.348214e-02    1.063900e-04
  5.378107e-02    1.065871e-04
  5.408000e-02    1.079216e-04
  5.437893e-02    1.089073e-04
  5.467786e-02    1.069444e-04
  5.497679e-02    1.056236e-04
  5.527572e-02    1.069776e-04
  5.557465e-02    1.060700e-04
  5.587358e-02    1.083306e-04
  5.617251e-02    1.080763e-04
  5.647144e-02    1.067598e-04
  5.677037e-02    1.073948e-04
  5.706930e-02    1.075988e-04
  5.736823e-02    1.075610e-04
  5.766716e-02    1.058661e-04
  5.796609e-02    1.067353e-04
  5.826502e-02    1.090508e-04
  5.856395e-02    1.088123e-04
  5.886288e-02    1.112756e-04
  5.916181e-02    1.112829e-04
  5.946074e-02    1.111597e-04
  5.975967e-02    1.102758e-04
  6.005861e-02    1.092445e-04
  6.035754e-02    1.101206e-04
  6.065647e-02    1.117527e-04
  6.095540e-02    1.104469e-04
  6.125433e-02    1.121873e-04
  6.155326e-02    1.131302e-04
  6.185219e-02    1.123387e-04
  6.215112e-02    1.130972e-04
  6.245005e-02    1.137569e-04
  6.274898e-02    1.098874e-04
  6.304791e-02    1.092798e-04
  6.334684e-02    1.086392e-04
  6.364577e-02    1.115036e-04
  6.394470e-02    1.107716e-04
  6.424363e-02    1.116837e-04
  6.454256e-02    1.128394e-04
  6.484149e-02    1.113552e-04
  6.514042e-02    1.120460e-04
  6.543935e-02    1.128518e-04
  6.573828e-02    1.138016e-04
  6.603721e-02    1.125368e-04
  6.633614e-02    1.109092e-04
  6.663507e-02    1.138746e-04
  6.693400e-02    1.138135e-04
  6.723293e-02    1.137273e-04
  6.753186e-02    1.137615e-04
  6.783080e-02    1.131552e-04
  6.812973e-02    1.137719e-04
  6.842866e-02    1.142590e-04
  6.872759e-02    1.126570e-04
  6.902652e-02    1.132704e-04
  6.932545e-02    1.158364e-04
  6.962438e-02    1.158540e-04
  6.992331e-02    1.146996e-04
  7.022224e-02    1.137289e-04
  7.052117e-02    1.146093e-04
  7.082010e-02    1.166025e-04
  7.111903e-02    1.173655e-04
  7.141796e-02    1.150749e-04
  7.171689e-02    1.169778e-04
  7.201582e-02    1.160091e-04
  7.231475e-02    1.160131e-04
  7.261368e-02    1.168464e-04
  7.291261e-02    1.163257e-04
  7.321154e-02    1.158158e-04
  7.351047e-02    1.164616e-04
  7.380940e-02    1.159131e-04
  7.410833e-02    1.163494e-04
  7.440726e-02    1.155152e-04
  7.470619e-02    1.142855e-04
  7.500512e-02    1.169909e-04
  7.530405e-02    1.185157e-04
  7.560299e-02    1.161375e-04
  7.590192e-02    1.159674e-04
  7.620085e-02    1.150630e-04
  7.649978e-02    1.122337e-04
  7.679871e-02    1.142143e-04
  7.709764e-02    1.161714e-04
  7.739657e-02    1.170128e-04
  7.769550e-02    1.166720e-04
  7.799443e-02    1.157420e-04
  7.829336e-02    1.161175e-04
  7.859229e-02    1.167964e-04
  7.889122e-02    1.170191e-04
  7.919015e-02    1.150257e-04
  7.948908e-02    1.156781e-04
  7.978801e-02    1.158599e-04
  8.008694e-02    1.132900e-04
  8.038587e-02    1.140006e-04
  8.068480e-02    1.157015e-04
  8.098373e-02    1.138981e-04
  8.128266e-02    1.151140e-04
  8.158159e-02    1.141857e-04
  8.188052e-02    1.143597e-04
  8.217945e-02    1.147657e-04
  8.247838e-02    1.149449e-04
  8.277731e-02    1.127552e-04
  8.307624e-02    1.133605e-04
  8.337518e-02    1.124827e-04
  8.367411e-02    1.124522e-04
  8.397304e-02    1.120037e-04
  8.427197e-02    1.128240e-04
  8.457090e-02    1.122847e-04
  8.486983e-02    1.122227e-04
  8.516876e-02    1.132194e-04
  8.546769e-02    1.129780e-04
  8.576662e-02    1.137846e-04
  8.606555e-02    1.134577e-04
  8.636448e-02    1.114874e-04
  8.666341e-02    1.109762e-04
  8.696234e-02    1.120183e-04
  8.726127e-02    1.133862e-04
  8.756020e-02    1.118074e-04
  8.785913e-02    1.093413e-04
  8.815806e-02    1.078681e-04
  8.845699e-02    1.102670e-04
  8.875592e-02    1.098376e-04
  8.905485e-02    1.114964e-04
  8.935378e-02    1.118157e-04
  8.965271e-02    1.096051e-04
  8.995164e-02    1.091746e-04
  9.025057e-02    1.071844e-04
  9.054950e-02    1.082898e-04
  9.084843e-02    1.093768e-04
  9.114737e-02    1.102935e-04
  9.144630e-02    1.101528e-04
  9.174523e-02    1.094696e-04
  9.204416e-02    1.066372e-04
  9.234309e-02    1.074655e-04
  9.264202e-02    1.081398e-04
  9.294095e-02    1.071067e-04
  9.323988e-02    1.061065e-04
  9.353881e-02    1.061071e-04
  9.383774e-02    1.071196e-04
  9.413667e-02    1.073453e-04
  9.443560e-02    1.066506e-04
  9.473453e-02    1.050306e-04
  9.503346e-02    1.069847e-04
  9.533239e-02    1.059262e-04
  9.563132e-02    1.057770e-04
  9.593025e-02    1.062523e-04
  9.622918e-02    1.055448e-04
  9.652811e-02    1.061990e-04
  9.682704e-02    1.058656e-04
  9.712597e-02    1.038834e-04
  9.742490e-02    1.051318e-04
  9.772383e-02    1.072592e-04
  9.802276e-02    1.062938e-04
  9.832169e-02    1.048659e-04
  9.862062e-02    1.029876e-04
  9.891956e-02    1.025873e-04
  9.921849e-02    1.026633e-04
  9.951742e-02    1.029051e-04
  9.981635e-02    1.024986e-04
  1.001153e-01    1.018165e-04
  1.004142e-01    1.021372e-04
  1.007131e-01    1.027077e-04
  1.010121e-01    1.036185e-04
  1.013110e-01    1.010500e-04
  1.016099e-01    1.005014e-04
  1.019089e-01    9.988432e-05
  1.022078e-01    1.013069e-04
  1.025067e-01    9.980996e-05
  1.028057e-01    9.983834e-05
  1.031046e-01    1.014971e-04
  1.034035e-01    9.979287e-05
  1.037024e-01    9.966679e-05
  1.040014e-01    1.007430e-04
  1.043003e-01    9.882768e-05
  1.045992e-01    9.748234e-05
  1.048982e-01    9.973202e-05
  1.051971e-01    1.004860e-04
  1.054960e-01    9.958394e-05
  1.057950e-01    9.869748e-05
  1.060939e-01    9.824481e-05
  1.063928e-01    9.857993e-05
  1.066917e-01    9.777697e-05
  1.069907e-01    9.758317e-05
  1.072896e-01    9.786450e-05
  1.075885e-01    9.764730e-05
  1.078875e-01    9.705919e-05
  1.081864e-01    9.764367e-05
  1.084853e-01    9.853423e-05
  1.087843e-01    9.800134e-05
  1.090832e-01    9.758404e-05
  1.093821e-01    9.533911e-05
  1.096810e-01    9.441220e-05
  1.099800e-01    9.571578e-05
  1.102789e-01    9.590127e-05
  1.105778e-01    9.479149e-05
  1.108768e-01    9.256985e-05
  1.111757e-01    9.279040e-05
  1.114746e-01    9.433957e-05
  1.117736e-01    9.326109e-05
  1.120725e-01    9.470154e-05
  1.123714e-01    9.317310e-05
  1.126704e-01    9.137447e-05
  1.129693e-01    9.292219e-05
  1.132682e-01    9.708772e-05
  1.135671e-01    9.503359e-05
  1.138661e-01    9.407175e-05
  1.141650e-01    9.362001e-05
  1.144639e-01    8.981626e-05
  1.147629e-01    8.934965e-05
  1.150618e-01    9.438114e-05
  1.153607e-01    9.345978e-05
  1.156597e-01    8.956302e-05
  1.159586e-01    9.025846e-05
  1.162575e-01    9.095598e-05
  1.165564e-01    9.165507e-05
  1.168554e-01    8.968867e-05
  1.171543e-01    9.028798e-05
  1.174532e-01    9.001734e-05
  1.177522e-01    9.031055e-05
  1.180511e-01    9.343641e-05
  1.183500e-01    9.460490e-05
  1.186490e-01    9.455678e-05
  1.189479e-01    8.884744e-05
  1.192468e-01    7.932475e-05
  1.195458e-01    7.642291e-05
  1.198447e-01    8.322503e-05
  1.201436e-01    8.970492e-05
  1.204425e-01    9.515209e-05
  1.207415e-01    8.343558e-05
  1.210404e-01    5.326199e-05
  1.213393e-01    0.000000e+00
  1.216383e-01    0.000000e+00
  1.219372e-01    0.000000e+00
  1.222361e-01    0.000000e+00
  1.225351e-01    0.000000e+00
  1.228340e-01    0.000000e+00
  1.231329e-01    0.000000e+00
  1.234318e-01    0.000000e+00
  1.237308e-01    0.000000e+00
  1.240297e-01    0.000000e+00
  1.243286e-01    0.000000e+00
  1.246276e-01    0.000000e+00
  1.249265e-01    0.000000e+00
  1.252254e-01    0.000000e+00
  1.255244e-01    0.000000e+00
  1.258233e-01    0.000000e+00
  1.261222e-01    0.000000e+00
  1.264212e-01    0.000000e+00
  1.267201e-01    0.000000e+00
  1.270190e-01    0.000000e+00
  1.273179e-01    0.000000e+00
  1.276169e-01    0.000000e+00
  1.279158e-01    0.000000e+00
  1.282147e-01    0.000000e+00
  1.285137e-01    0.000000e+00
  1.288126e-01    0.000000e+00
  1.291115e-01    0.000000e+00
  1.294105e-01    0.000000e+00
  1.297094e-01    0.000000e+00
  1.300083e-01    0.000000e+00
  1.303072e-01    0.000000e+00
  1.306062e-01    0.000000e+00
  1.309051e-01    0.000000e+00
  1.312040e-01    0.000000e+00
  1.315030e-01    0.000000e+00
  1.318019e-01    0.000000e+00
  1.321008e-01    0.000000e+00
  1.323998e-01    0.000000e+00
  1.326987e-01    0.000000e+00
  1.329976e-01    0.000000e+00
  1.332965e-01    0.000000e+00
  1.335955e-01    0.000000e+00
  1.338944e-01    0.000000e+00
  1.341933e-01    0.000000e+00
  1.344923e-01    0.000000e+00
  1.347912e-01    0.000000e+00
  1.350901e-01    0.000000e+00
  1.353891e-01    0.000000e+00
  1.356880e-01    0.000000e+00
  1.359869e-01    0.000000e+00
  1.362859e-01    0.000000e+00
  1.365848e-01    0.000000e+00
  1.368837e-01    0.000000e+00
  1.371826e-01    0.000000e+00
  1.374816e-01    0.000000e+00
  1.377805e-01    0.000000e+00
  1.380794e-01    0.000000e+00
  1.383784e-01    0.000000e+00
  1.386773e-01    0.000000e+00
  1.389762e-01    0.000000e+00
  1.392752e-01    0.000000e+00
  1.395741e-01    0.000000e+00
  1.398730e-01    0.000000e+00
  1.401719e-01    0.000000e+00
  1.404709e-01    0.000000e+00
  1.407698e-01    0.000000e+00
  1.410687e-01    0.000000e+00
  1.413677e-01    0.000000e+00
  1.416666e-01    0.000000e+00
  1.419655e-01    0.000000e+00
  1.422645e-01    0.000000e+00
  1.425634e-01    0.000000e+00
  1.428623e-01    0.000000e+00
  1.431613e-01    0.000000e+00
  1.434602e-01    0.000000e+00
  1.437591e-01    0.000000e+00
  1.440580e-01    0.000000e+00
  1.443570e-01    0.000000e+00
  1.446559e-01    0.000000e+00
  1.449548e-01    0.000000e+00
  1.452538e-01    0.000000e+00
  1.455527e-01    0.000000e+00
  1.458516e-01    0.000000e+00
  1.461506e-01    0.000000e+00
  1.464495e-01    0.000000e+00
  1.467484e-01    0.000000e+00
  1.470473e-01    0.000000e+00
  1.473463e-01    0.000000e+00
  1.476452e-01    0.000000e+00
  1.479441e-01    0.000000e+00
  1.482431e-01    0.000000e+00
  1.485420e-01    0.000000e+00
  1.488409e-01    0.000000e+00
  1.491399e-01    0.000000e+00
  1.494388e-01    0.000000e+00
  1.497377e-01    0.000000e+00
  1.500367e-01    0.000000e+00
  1.503356e-01    0.000000e+00
  1.506345e-01    0.000000e+00
  1.509334e-01    0.000000e+00
  1.512324e-01    0.000000e+00
  1.515313e-01    0.000000e+00
  1.518302e-01    0.000000e+00
  1.521292e-01    0.000000e+00
  1.524281e-01    0.000000e+00
  1.527270e-01    0.000000e+00
  1.530260e-01    0.000000e+00
  1.533249e-01    0.000000e+00
  1.536238e-01    0.000000e+00
