# == pyFAI calibration ==
# Distance Sample to Detector: 2.266 m
# PONI: 5.659e-02, 4.293e-02 m
# Rotations: 0.000000 0.000000 0.000000 rad
# 
# == Fit2d calibration ==
# Distance Sample-beamCenter: 2266.000 mm
# Center: x=249.594, y=329.012 pix
# Tilt: 0.000 deg  TiltPlanRot: 0.000 deg
# 
# Detector Pilatus 300k	 PixelSize= 1.720e-04, 1.720e-04 m
#    Detector has a mask: True 
#    Detector has a dark current: False 
#    detector has a flat field: False 
# 
# Wavelength: 1.27818e-10 m
# Mask applied: user provided
# Dark current applied: False
# Flat field applied: False
# Polarization factor: None
# Normalization factor: 8093.55
# --> latex_CL3252_TiO2_R706_phiT_0.050_PVC_0.200_DOP_0.010_2_r1d.csv
#        q_A^-1             I 
  4.457554e-03    1.585242e+01
  4.756484e-03    1.392365e+01
  5.055415e-03    1.165863e+01
  5.354345e-03    9.597649e+00
  5.653276e-03    8.179682e+00
  5.952206e-03    1.634671e+01
  6.251136e-03    1.515366e+01
  6.550067e-03    1.322311e+01
  6.848997e-03    1.109034e+01
  7.147927e-03    9.141517e+00
  7.446858e-03    7.585688e+00
  7.745788e-03    6.313783e+00
  8.044719e-03    5.289114e+00
  8.343649e-03    4.493703e+00
  8.642579e-03    3.828881e+00
  8.941510e-03    3.287897e+00
  9.240440e-03    2.843217e+00
  9.539371e-03    2.461907e+00
  9.838301e-03    2.139472e+00
  1.013723e-02    1.877063e+00
  1.043616e-02    1.651337e+00
  1.073509e-02    1.445867e+00
  1.103402e-02    1.278244e+00
  1.133295e-02    1.132740e+00
  1.163188e-02    1.011068e+00
  1.193081e-02    9.049717e-01
  1.222974e-02    8.116096e-01
  1.252867e-02    7.302122e-01
  1.282760e-02    6.596866e-01
  1.312654e-02    5.972618e-01
  1.342547e-02    5.422732e-01
  1.372440e-02    4.935952e-01
  1.402333e-02    4.506570e-01
  1.432226e-02    4.112428e-01
  1.462119e-02    3.758959e-01
  1.492012e-02    3.449603e-01
  1.521905e-02    3.163378e-01
  1.551798e-02    2.912044e-01
  1.581691e-02    2.684145e-01
  1.611584e-02    2.479073e-01
  1.641477e-02    2.289399e-01
  1.671370e-02    2.112619e-01
  1.701263e-02    1.952794e-01
  1.731156e-02    1.809582e-01
  1.761049e-02    1.681625e-01
  1.790942e-02    1.565647e-01
  1.820835e-02    1.454798e-01
  1.850728e-02    1.357855e-01
  1.880621e-02    1.269647e-01
  1.910514e-02    1.185387e-01
  1.940407e-02    1.109486e-01
  1.970300e-02    1.040756e-01
  2.000193e-02    9.764396e-02
  2.030086e-02    9.135254e-02
  2.059979e-02    8.558352e-02
  2.089873e-02    8.023702e-02
  2.119766e-02    7.540121e-02
  2.149659e-02    7.115233e-02
  2.179552e-02    6.699623e-02
  2.209445e-02    6.293995e-02
  2.239338e-02    5.937254e-02
  2.269231e-02    5.622393e-02
  2.299124e-02    5.314074e-02
  2.329017e-02    5.023431e-02
  2.358910e-02    4.753222e-02
  2.388803e-02    4.501746e-02
  2.418696e-02    4.268203e-02
  2.448589e-02    4.046886e-02
  2.478482e-02    3.838372e-02
  2.508375e-02    3.657897e-02
  2.538268e-02    3.472101e-02
  2.568161e-02    3.294756e-02
  2.598054e-02    3.133886e-02
  2.627947e-02    2.985661e-02
  2.657840e-02    2.827455e-02
  2.687733e-02    2.698535e-02
  2.717626e-02    2.575958e-02
  2.747519e-02    2.457234e-02
  2.777412e-02    2.342972e-02
  2.807305e-02    2.235252e-02
  2.837198e-02    2.136932e-02
  2.867092e-02    2.046354e-02
  2.896985e-02    1.965887e-02
  2.926878e-02    1.874477e-02
  2.956771e-02    1.794576e-02
  2.986664e-02    1.711508e-02
  3.016557e-02    1.633735e-02
  3.046450e-02    1.568582e-02
  3.076343e-02    1.511427e-02
  3.106236e-02    1.445859e-02
  3.136129e-02    1.388332e-02
  3.166022e-02    1.339202e-02
  3.195915e-02    1.289346e-02
  3.225808e-02    1.232640e-02
  3.255701e-02    1.182679e-02
  3.285594e-02    1.144077e-02
  3.315487e-02    1.099008e-02
  3.345380e-02    1.051291e-02
  3.375273e-02    1.013640e-02
  3.405166e-02    9.844527e-03
  3.435059e-02    9.477010e-03
  3.464952e-02    9.090221e-03
  3.494845e-02    8.805215e-03
  3.524738e-02    8.499253e-03
  3.554631e-02    8.165199e-03
  3.584524e-02    7.882626e-03
  3.614417e-02    7.570465e-03
  3.644310e-02    7.317473e-03
  3.674204e-02    7.082466e-03
  3.704097e-02    6.849492e-03
  3.733990e-02    6.648057e-03
  3.763883e-02    6.396314e-03
  3.793776e-02    6.204926e-03
  3.823669e-02    6.001639e-03
  3.853562e-02    5.766096e-03
  3.883455e-02    5.615607e-03
  3.913348e-02    5.431182e-03
  3.943241e-02    5.211710e-03
  3.973134e-02    5.066993e-03
  4.003027e-02    4.914971e-03
  4.032920e-02    4.784247e-03
  4.062813e-02    4.649487e-03
  4.092706e-02    4.454628e-03
  4.122599e-02    4.373607e-03
  4.152492e-02    4.284888e-03
  4.182385e-02    4.157713e-03
  4.212278e-02    3.990264e-03
  4.242171e-02    3.877288e-03
  4.272064e-02    3.762667e-03
  4.301957e-02    3.666254e-03
  4.331850e-02    3.573082e-03
  4.361743e-02    3.489514e-03
  4.391636e-02    3.389983e-03
  4.421529e-02    3.287922e-03
  4.451423e-02    3.234511e-03
  4.481316e-02    3.144539e-03
  4.511209e-02    3.016756e-03
  4.541102e-02    2.934413e-03
  4.570995e-02    2.876980e-03
  4.600888e-02    2.821087e-03
  4.630781e-02    2.728851e-03
  4.660674e-02    2.673513e-03
  4.690567e-02    2.641764e-03
  4.720460e-02    2.581056e-03
  4.750353e-02    2.512733e-03
  4.780246e-02    2.464988e-03
  4.810139e-02    2.397163e-03
  4.840032e-02    2.331866e-03
  4.869925e-02    2.291284e-03
  4.899818e-02    2.247286e-03
  4.929711e-02    2.183391e-03
  4.959604e-02    2.130482e-03
  4.989497e-02    2.103226e-03
  5.019390e-02    2.062903e-03
  5.049283e-02    2.004295e-03
  5.079176e-02    1.964669e-03
  5.109069e-02    1.944723e-03
  5.138962e-02    1.927025e-03
  5.168855e-02    1.887763e-03
  5.198748e-02    1.864900e-03
  5.228642e-02    1.843501e-03
  5.258535e-02    1.798686e-03
  5.288428e-02    1.744204e-03
  5.318321e-02    1.695033e-03
  5.348214e-02    1.656411e-03
  5.378107e-02    1.623159e-03
  5.408000e-02    1.625407e-03
  5.437893e-02    1.585876e-03
  5.467786e-02    1.526426e-03
  5.497679e-02    1.482016e-03
  5.527572e-02    1.454402e-03
  5.557465e-02    1.426805e-03
  5.587358e-02    1.421249e-03
  5.617251e-02    1.409227e-03
  5.647144e-02    1.365933e-03
  5.677037e-02    1.333876e-03
  5.706930e-02    1.313209e-03
  5.736823e-02    1.290375e-03
  5.766716e-02    1.277216e-03
  5.796609e-02    1.243716e-03
  5.826502e-02    1.222083e-03
  5.856395e-02    1.191651e-03
  5.886288e-02    1.193985e-03
  5.916181e-02    1.192253e-03
  5.946074e-02    1.174598e-03
  5.975967e-02    1.151334e-03
  6.005861e-02    1.131622e-03
  6.035754e-02    1.117958e-03
  6.065647e-02    1.115669e-03
  6.095540e-02    1.096575e-03
  6.125433e-02    1.088590e-03
  6.155326e-02    1.093992e-03
  6.185219e-02    1.068817e-03
  6.215112e-02    1.050587e-03
  6.245005e-02    1.030193e-03
  6.274898e-02    1.009257e-03
  6.304791e-02    1.004925e-03
  6.334684e-02    1.005129e-03
  6.364577e-02    9.845707e-04
  6.394470e-02    9.618357e-04
  6.424363e-02    9.626875e-04
  6.454256e-02    9.350577e-04
  6.484149e-02    9.275257e-04
  6.514042e-02    9.109487e-04
  6.543935e-02    9.026655e-04
  6.573828e-02    9.041700e-04
  6.603721e-02    8.844270e-04
  6.633614e-02    8.731958e-04
  6.663507e-02    8.619613e-04
  6.693400e-02    8.521073e-04
  6.723293e-02    8.600870e-04
  6.753186e-02    8.415614e-04
  6.783080e-02    8.238922e-04
  6.812973e-02    8.227956e-04
  6.842866e-02    8.033767e-04
  6.872759e-02    8.000637e-04
  6.902652e-02    7.877555e-04
  6.932545e-02    7.807813e-04
  6.962438e-02    7.793948e-04
  6.992331e-02    7.751976e-04
  7.022224e-02    7.766411e-04
  7.052117e-02    7.784729e-04
  7.082010e-02    7.535478e-04
  7.111903e-02    7.434630e-04
  7.141796e-02    7.356365e-04
  7.171689e-02    7.246148e-04
  7.201582e-02    7.273183e-04
  7.231475e-02    7.330111e-04
  7.261368e-02    7.143712e-04
  7.291261e-02    7.124458e-04
  7.321154e-02    7.208497e-04
  7.351047e-02    7.137841e-04
  7.380940e-02    6.994106e-04
  7.410833e-02    6.789920e-04
  7.440726e-02    6.754692e-04
  7.470619e-02    6.810367e-04
  7.500512e-02    6.615883e-04
  7.530405e-02    6.560787e-04
  7.560299e-02    6.527470e-04
  7.590192e-02    6.636752e-04
  7.620085e-02    6.684887e-04
  7.649978e-02    6.627750e-04
  7.679871e-02    6.416442e-04
  7.709764e-02    6.329631e-04
  7.739657e-02    6.318485e-04
  7.769550e-02    6.296111e-04
  7.799443e-02    6.165765e-04
  7.829336e-02    6.137016e-04
  7.859229e-02    6.120807e-04
  7.889122e-02    6.063406e-04
  7.919015e-02    6.051096e-04
  7.948908e-02    6.105652e-04
  7.978801e-02    5.940372e-04
  8.008694e-02    5.804208e-04
  8.038587e-02    5.712498e-04
  8.068480e-02    5.688902e-04
  8.098373e-02    5.771452e-04
  8.128266e-02    5.847681e-04
  8.158159e-02    5.746405e-04
  8.188052e-02    5.556612e-04
  8.217945e-02    5.586492e-04
  8.247838e-02    5.532554e-04
  8.277731e-02    5.342907e-04
  8.307624e-02    5.444226e-04
  8.337518e-02    5.363257e-04
  8.367411e-02    5.284630e-04
  8.397304e-02    5.282814e-04
  8.427197e-02    5.205866e-04
  8.457090e-02    5.307769e-04
  8.486983e-02    5.236132e-04
  8.516876e-02    5.065468e-04
  8.546769e-02    5.062314e-04
  8.576662e-02    4.978519e-04
  8.606555e-02    5.039232e-04
  8.636448e-02    4.988609e-04
  8.666341e-02    4.871253e-04
  8.696234e-02    4.927457e-04
  8.726127e-02    4.965455e-04
  8.756020e-02    4.822601e-04
  8.785913e-02    4.760196e-04
  8.815806e-02    4.834681e-04
  8.845699e-02    4.861733e-04
  8.875592e-02    4.749498e-04
  8.905485e-02    4.638271e-04
  8.935378e-02    4.543408e-04
  8.965271e-02    4.571772e-04
  8.995164e-02    4.592609e-04
  9.025057e-02    4.611735e-04
  9.054950e-02    4.656958e-04
  9.084843e-02    4.593266e-04
  9.114737e-02    4.573580e-04
  9.144630e-02    4.435085e-04
  9.174523e-02    4.369760e-04
  9.204416e-02    4.436596e-04
  9.234309e-02    4.383913e-04
  9.264202e-02    4.245737e-04
  9.294095e-02    4.209367e-04
  9.323988e-02    4.299570e-04
  9.353881e-02    4.329988e-04
  9.383774e-02    4.250129e-04
  9.413667e-02    4.170666e-04
  9.443560e-02    4.291848e-04
  9.473453e-02    4.219993e-04
  9.503346e-02    4.230616e-04
  9.533239e-02    4.291401e-04
  9.563132e-02    4.203728e-04
  9.593025e-02    4.094054e-04
  9.622918e-02    4.054552e-04
  9.652811e-02    4.058396e-04
  9.682704e-02    4.082242e-04
  9.712597e-02    4.160426e-04
  9.742490e-02    4.138637e-04
  9.772383e-02    4.128580e-04
  9.802276e-02    4.040656e-04
  9.832169e-02    3.990521e-04
  9.862062e-02    4.026166e-04
  9.891956e-02    4.039104e-04
  9.921849e-02    3.906138e-04
  9.951742e-02    3.848356e-04
  9.981635e-02    3.780696e-04
  1.001153e-01    3.694728e-04
  1.004142e-01    3.676450e-04
  1.007131e-01    3.716517e-04
  1.010121e-01    3.690717e-04
  1.013110e-01    3.644618e-04
  1.016099e-01    3.714147e-04
  1.019089e-01    3.664916e-04
  1.022078e-01    3.594276e-04
  1.025067e-01    3.620716e-04
  1.028057e-01    3.604949e-04
  1.031046e-01    3.512260e-04
  1.034035e-01    3.591600e-04
  1.037024e-01    3.589886e-04
  1.040014e-01    3.573794e-04
  1.043003e-01    3.493709e-04
  1.045992e-01    3.459883e-04
  1.048982e-01    3.484568e-04
  1.051971e-01    3.460023e-04
  1.054960e-01    3.431245e-04
  1.057950e-01    3.400684e-04
  1.060939e-01    3.432137e-04
  1.063928e-01    3.432166e-04
  1.066917e-01    3.421980e-04
  1.069907e-01    3.394420e-04
  1.072896e-01    3.361132e-04
  1.075885e-01    3.385585e-04
  1.078875e-01    3.425478e-04
  1.081864e-01    3.356441e-04
  1.084853e-01    3.320106e-04
  1.087843e-01    3.311920e-04
  1.090832e-01    3.284299e-04
  1.093821e-01    3.241922e-04
  1.096810e-01    3.272911e-04
  1.099800e-01    3.332635e-04
  1.102789e-01    3.250890e-04
  1.105778e-01    3.203873e-04
  1.108768e-01    3.239118e-04
  1.111757e-01    3.265762e-04
  1.114746e-01    3.100040e-04
  1.117736e-01    3.109070e-04
  1.120725e-01    3.149771e-04
  1.123714e-01    3.214926e-04
  1.126704e-01    3.143583e-04
  1.129693e-01    3.128204e-04
  1.132682e-01    3.071760e-04
  1.135671e-01    2.953488e-04
  1.138661e-01    3.010848e-04
  1.141650e-01    3.023177e-04
  1.144639e-01    3.027761e-04
  1.147629e-01    3.025699e-04
  1.150618e-01    2.853762e-04
  1.153607e-01    2.732084e-04
  1.156597e-01    2.625045e-04
  1.159586e-01    2.691358e-04
  1.162575e-01    2.900767e-04
  1.165564e-01    2.884473e-04
  1.168554e-01    2.711573e-04
  1.171543e-01    2.742714e-04
  1.174532e-01    2.796626e-04
  1.177522e-01    2.838928e-04
  1.180511e-01    3.025426e-04
  1.183500e-01    2.920055e-04
  1.186490e-01    2.756924e-04
  1.189479e-01    2.758479e-04
  1.192468e-01    2.648913e-04
  1.195458e-01    2.691938e-04
  1.198447e-01    3.024919e-04
  1.201436e-01    3.133387e-04
  1.204425e-01    2.795149e-04
  1.207415e-01    2.202701e-04
  1.210404e-01    2.473342e-04
  1.213393e-01    0.000000e+00
  1.216383e-01    0.000000e+00
  1.219372e-01    0.000000e+00
  1.222361e-01    0.000000e+00
  1.225351e-01    0.000000e+00
  1.228340e-01    0.000000e+00
  1.231329e-01    0.000000e+00
  1.234318e-01    0.000000e+00
  1.237308e-01    0.000000e+00
  1.240297e-01    0.000000e+00
  1.243286e-01    0.000000e+00
  1.246276e-01    0.000000e+00
  1.249265e-01    0.000000e+00
  1.252254e-01    0.000000e+00
  1.255244e-01    0.000000e+00
  1.258233e-01    0.000000e+00
  1.261222e-01    0.000000e+00
  1.264212e-01    0.000000e+00
  1.267201e-01    0.000000e+00
  1.270190e-01    0.000000e+00
  1.273179e-01    0.000000e+00
  1.276169e-01    0.000000e+00
  1.279158e-01    0.000000e+00
  1.282147e-01    0.000000e+00
  1.285137e-01    0.000000e+00
  1.288126e-01    0.000000e+00
  1.291115e-01    0.000000e+00
  1.294105e-01    0.000000e+00
  1.297094e-01    0.000000e+00
  1.300083e-01    0.000000e+00
  1.303072e-01    0.000000e+00
  1.306062e-01    0.000000e+00
  1.309051e-01    0.000000e+00
  1.312040e-01    0.000000e+00
  1.315030e-01    0.000000e+00
  1.318019e-01    0.000000e+00
  1.321008e-01    0.000000e+00
  1.323998e-01    0.000000e+00
  1.326987e-01    0.000000e+00
  1.329976e-01    0.000000e+00
  1.332965e-01    0.000000e+00
  1.335955e-01    0.000000e+00
  1.338944e-01    0.000000e+00
  1.341933e-01    0.000000e+00
  1.344923e-01    0.000000e+00
  1.347912e-01    0.000000e+00
  1.350901e-01    0.000000e+00
  1.353891e-01    0.000000e+00
  1.356880e-01    0.000000e+00
  1.359869e-01    0.000000e+00
  1.362859e-01    0.000000e+00
  1.365848e-01    0.000000e+00
  1.368837e-01    0.000000e+00
  1.371826e-01    0.000000e+00
  1.374816e-01    0.000000e+00
  1.377805e-01    0.000000e+00
  1.380794e-01    0.000000e+00
  1.383784e-01    0.000000e+00
  1.386773e-01    0.000000e+00
  1.389762e-01    0.000000e+00
  1.392752e-01    0.000000e+00
  1.395741e-01    0.000000e+00
  1.398730e-01    0.000000e+00
  1.401719e-01    0.000000e+00
  1.404709e-01    0.000000e+00
  1.407698e-01    0.000000e+00
  1.410687e-01    0.000000e+00
  1.413677e-01    0.000000e+00
  1.416666e-01    0.000000e+00
  1.419655e-01    0.000000e+00
  1.422645e-01    0.000000e+00
  1.425634e-01    0.000000e+00
  1.428623e-01    0.000000e+00
  1.431613e-01    0.000000e+00
  1.434602e-01    0.000000e+00
  1.437591e-01    0.000000e+00
  1.440580e-01    0.000000e+00
  1.443570e-01    0.000000e+00
  1.446559e-01    0.000000e+00
  1.449548e-01    0.000000e+00
  1.452538e-01    0.000000e+00
  1.455527e-01    0.000000e+00
  1.458516e-01    0.000000e+00
  1.461506e-01    0.000000e+00
  1.464495e-01    0.000000e+00
  1.467484e-01    0.000000e+00
  1.470473e-01    0.000000e+00
  1.473463e-01    0.000000e+00
  1.476452e-01    0.000000e+00
  1.479441e-01    0.000000e+00
  1.482431e-01    0.000000e+00
  1.485420e-01    0.000000e+00
  1.488409e-01    0.000000e+00
  1.491399e-01    0.000000e+00
  1.494388e-01    0.000000e+00
  1.497377e-01    0.000000e+00
  1.500367e-01    0.000000e+00
  1.503356e-01    0.000000e+00
  1.506345e-01    0.000000e+00
  1.509334e-01    0.000000e+00
  1.512324e-01    0.000000e+00
  1.515313e-01    0.000000e+00
  1.518302e-01    0.000000e+00
  1.521292e-01    0.000000e+00
  1.524281e-01    0.000000e+00
  1.527270e-01    0.000000e+00
  1.530260e-01    0.000000e+00
  1.533249e-01    0.000000e+00
  1.536238e-01    0.000000e+00
