# == pyFAI calibration ==
# Distance Sample to Detector: 2.266 m
# PONI: 5.659e-02, 4.293e-02 m
# Rotations: 0.000000 0.000000 0.000000 rad
# 
# == Fit2d calibration ==
# Distance Sample-beamCenter: 2266.000 mm
# Center: x=249.594, y=329.012 pix
# Tilt: 0.000 deg  TiltPlanRot: 0.000 deg
# 
# Detector Pilatus 300k	 PixelSize= 1.720e-04, 1.720e-04 m
#    Detector has a mask: True 
#    Detector has a dark current: False 
#    detector has a flat field: False 
# 
# Wavelength: 1.27818e-10 m
# Mask applied: user provided
# Dark current applied: False
# Flat field applied: False
# Polarization factor: None
# Normalization factor: 7787.820000000001
# --> latex_CL3252_TiO2_R706_phiT_0.070_PVC_0.200_DOP_0.020_0_r1d.csv
#        q_A^-1             I 
  4.457554e-03    3.083550e-01
  4.756484e-03    2.463867e-01
  5.055415e-03    1.814005e-01
  5.354345e-03    1.329730e-01
  5.653276e-03    1.056979e-01
  5.952206e-03    1.777016e-01
  6.251136e-03    1.611020e-01
  6.550067e-03    1.400177e-01
  6.848997e-03    1.173675e-01
  7.147927e-03    9.850163e-02
  7.446858e-03    8.343235e-02
  7.745788e-03    7.061543e-02
  8.044719e-03    6.007551e-02
  8.343649e-03    5.267121e-02
  8.642579e-03    4.592726e-02
  8.941510e-03    4.019444e-02
  9.240440e-03    3.552745e-02
  9.539371e-03    3.127123e-02
  9.838301e-03    2.771728e-02
  1.013723e-02    2.486104e-02
  1.043616e-02    2.218357e-02
  1.073509e-02    1.976973e-02
  1.103402e-02    1.779885e-02
  1.133295e-02    1.618747e-02
  1.163188e-02    1.468213e-02
  1.193081e-02    1.336560e-02
  1.222974e-02    1.219087e-02
  1.252867e-02    1.115193e-02
  1.282760e-02    1.027226e-02
  1.312654e-02    9.410386e-03
  1.342547e-02    8.693772e-03
  1.372440e-02    8.061827e-03
  1.402333e-02    7.447223e-03
  1.432226e-02    6.895950e-03
  1.462119e-02    6.413996e-03
  1.492012e-02    6.025430e-03
  1.521905e-02    5.598757e-03
  1.551798e-02    5.167248e-03
  1.581691e-02    4.838295e-03
  1.611584e-02    4.543963e-03
  1.641477e-02    4.283032e-03
  1.671370e-02    4.024754e-03
  1.701263e-02    3.737942e-03
  1.731156e-02    3.570577e-03
  1.761049e-02    3.455372e-03
  1.790942e-02    3.288638e-03
  1.820835e-02    3.118029e-03
  1.850728e-02    2.983376e-03
  1.880621e-02    2.850510e-03
  1.910514e-02    2.707509e-03
  1.940407e-02    2.533806e-03
  1.970300e-02    2.444628e-03
  2.000193e-02    2.387968e-03
  2.030086e-02    2.319332e-03
  2.059979e-02    2.235370e-03
  2.089873e-02    2.125005e-03
  2.119766e-02    2.016462e-03
  2.149659e-02    1.961356e-03
  2.179552e-02    1.882757e-03
  2.209445e-02    1.827091e-03
  2.239338e-02    1.775974e-03
  2.269231e-02    1.711431e-03
  2.299124e-02    1.663148e-03
  2.329017e-02    1.635413e-03
  2.358910e-02    1.589985e-03
  2.388803e-02    1.550461e-03
  2.418696e-02    1.503745e-03
  2.448589e-02    1.468031e-03
  2.478482e-02    1.478088e-03
  2.508375e-02    1.441437e-03
  2.538268e-02    1.403827e-03
  2.568161e-02    1.386959e-03
  2.598054e-02    1.328299e-03
  2.627947e-02    1.292818e-03
  2.657840e-02    1.265257e-03
  2.687733e-02    1.238589e-03
  2.717626e-02    1.231250e-03
  2.747519e-02    1.205297e-03
  2.777412e-02    1.162915e-03
  2.807305e-02    1.172981e-03
  2.837198e-02    1.160939e-03
  2.867092e-02    1.117179e-03
  2.896985e-02    1.081281e-03
  2.926878e-02    1.077557e-03
  2.956771e-02    1.071478e-03
  2.986664e-02    1.078600e-03
  3.016557e-02    1.059362e-03
  3.046450e-02    1.058061e-03
  3.076343e-02    1.046354e-03
  3.106236e-02    1.008103e-03
  3.136129e-02    1.003202e-03
  3.166022e-02    9.995350e-04
  3.195915e-02    9.977600e-04
  3.225808e-02    9.840983e-04
  3.255701e-02    9.589735e-04
  3.285594e-02    9.571095e-04
  3.315487e-02    9.529333e-04
  3.345380e-02    9.572776e-04
  3.375273e-02    9.549357e-04
  3.405166e-02    9.396980e-04
  3.435059e-02    9.218018e-04
  3.464952e-02    8.961103e-04
  3.494845e-02    8.954523e-04
  3.524738e-02    8.917887e-04
  3.554631e-02    8.744098e-04
  3.584524e-02    8.730101e-04
  3.614417e-02    8.646843e-04
  3.644310e-02    8.641710e-04
  3.674204e-02    8.645142e-04
  3.704097e-02    8.352879e-04
  3.733990e-02    8.489128e-04
  3.763883e-02    8.599781e-04
  3.793776e-02    8.483043e-04
  3.823669e-02    8.287780e-04
  3.853562e-02    8.146800e-04
  3.883455e-02    8.033825e-04
  3.913348e-02    8.127312e-04
  3.943241e-02    8.050913e-04
  3.973134e-02    7.931388e-04
  4.003027e-02    7.942979e-04
  4.032920e-02    8.124760e-04
  4.062813e-02    8.255080e-04
  4.092706e-02    8.142061e-04
  4.122599e-02    7.953640e-04
  4.152492e-02    7.921652e-04
  4.182385e-02    7.828485e-04
  4.212278e-02    7.820066e-04
  4.242171e-02    7.807119e-04
  4.272064e-02    7.790072e-04
  4.301957e-02    7.859755e-04
  4.331850e-02    7.720707e-04
  4.361743e-02    7.674885e-04
  4.391636e-02    7.701260e-04
  4.421529e-02    7.498966e-04
  4.451423e-02    7.638328e-04
  4.481316e-02    7.613761e-04
  4.511209e-02    7.480202e-04
  4.541102e-02    7.457634e-04
  4.570995e-02    7.584996e-04
  4.600888e-02    7.591560e-04
  4.630781e-02    7.510707e-04
  4.660674e-02    7.465349e-04
  4.690567e-02    7.359092e-04
  4.720460e-02    7.477963e-04
  4.750353e-02    7.438847e-04
  4.780246e-02    7.420058e-04
  4.810139e-02    7.558991e-04
  4.840032e-02    7.606872e-04
  4.869925e-02    7.498622e-04
  4.899818e-02    7.424890e-04
  4.929711e-02    7.417260e-04
  4.959604e-02    7.378442e-04
  4.989497e-02    7.385937e-04
  5.019390e-02    7.462919e-04
  5.049283e-02    7.529984e-04
  5.079176e-02    7.616584e-04
  5.109069e-02    7.594471e-04
  5.138962e-02    7.511369e-04
  5.168855e-02    7.662931e-04
  5.198748e-02    7.890869e-04
  5.228642e-02    7.774063e-04
  5.258535e-02    7.598220e-04
  5.288428e-02    7.511802e-04
  5.318321e-02    7.600173e-04
  5.348214e-02    7.628379e-04
  5.378107e-02    7.574448e-04
  5.408000e-02    7.568477e-04
  5.437893e-02    7.496673e-04
  5.467786e-02    7.528301e-04
  5.497679e-02    7.527022e-04
  5.527572e-02    7.553760e-04
  5.557465e-02    7.526644e-04
  5.587358e-02    7.498208e-04
  5.617251e-02    7.515738e-04
  5.647144e-02    7.502172e-04
  5.677037e-02    7.493569e-04
  5.706930e-02    7.527379e-04
  5.736823e-02    7.431509e-04
  5.766716e-02    7.479024e-04
  5.796609e-02    7.578420e-04
  5.826502e-02    7.601579e-04
  5.856395e-02    7.593181e-04
  5.886288e-02    7.633607e-04
  5.916181e-02    7.403111e-04
  5.946074e-02    7.500335e-04
  5.975967e-02    7.645855e-04
  6.005861e-02    7.608720e-04
  6.035754e-02    7.641983e-04
  6.065647e-02    7.721045e-04
  6.095540e-02    7.761815e-04
  6.125433e-02    7.884183e-04
  6.155326e-02    7.832738e-04
  6.185219e-02    7.650918e-04
  6.215112e-02    7.633485e-04
  6.245005e-02    7.613283e-04
  6.274898e-02    7.726520e-04
  6.304791e-02    7.736235e-04
  6.334684e-02    7.685001e-04
  6.364577e-02    7.690904e-04
  6.394470e-02    7.798409e-04
  6.424363e-02    7.946689e-04
  6.454256e-02    7.899222e-04
  6.484149e-02    7.892466e-04
  6.514042e-02    7.789373e-04
  6.543935e-02    7.843059e-04
  6.573828e-02    7.852375e-04
  6.603721e-02    7.881999e-04
  6.633614e-02    7.825171e-04
  6.663507e-02    7.726245e-04
  6.693400e-02    7.864489e-04
  6.723293e-02    7.856413e-04
  6.753186e-02    7.827972e-04
  6.783080e-02    7.803720e-04
  6.812973e-02    7.826812e-04
  6.842866e-02    8.022559e-04
  6.872759e-02    8.054740e-04
  6.902652e-02    7.968751e-04
  6.932545e-02    7.971526e-04
  6.962438e-02    8.091179e-04
  6.992331e-02    8.097637e-04
  7.022224e-02    7.928638e-04
  7.052117e-02    7.957244e-04
  7.082010e-02    8.051116e-04
  7.111903e-02    7.966446e-04
  7.141796e-02    7.913094e-04
  7.171689e-02    8.044773e-04
  7.201582e-02    8.056486e-04
  7.231475e-02    8.106798e-04
  7.261368e-02    8.072117e-04
  7.291261e-02    7.968461e-04
  7.321154e-02    7.942534e-04
  7.351047e-02    8.060336e-04
  7.380940e-02    7.980206e-04
  7.410833e-02    8.031403e-04
  7.440726e-02    8.103528e-04
  7.470619e-02    8.064734e-04
  7.500512e-02    7.931778e-04
  7.530405e-02    8.053152e-04
  7.560299e-02    8.165655e-04
  7.590192e-02    8.049763e-04
  7.620085e-02    7.890337e-04
  7.649978e-02    7.895383e-04
  7.679871e-02    7.831362e-04
  7.709764e-02    7.922516e-04
  7.739657e-02    8.024949e-04
  7.769550e-02    7.992633e-04
  7.799443e-02    8.002403e-04
  7.829336e-02    8.039310e-04
  7.859229e-02    8.061984e-04
  7.889122e-02    7.954562e-04
  7.919015e-02    7.886864e-04
  7.948908e-02    7.866941e-04
  7.978801e-02    7.885284e-04
  8.008694e-02    7.867796e-04
  8.038587e-02    7.917591e-04
  8.068480e-02    7.912510e-04
  8.098373e-02    8.014638e-04
  8.128266e-02    7.956579e-04
  8.158159e-02    7.832671e-04
  8.188052e-02    7.748350e-04
  8.217945e-02    7.743876e-04
  8.247838e-02    7.781506e-04
  8.277731e-02    7.933470e-04
  8.307624e-02    7.840858e-04
  8.337518e-02    7.834812e-04
  8.367411e-02    7.912549e-04
  8.397304e-02    7.846308e-04
  8.427197e-02    7.728796e-04
  8.457090e-02    7.712189e-04
  8.486983e-02    7.829895e-04
  8.516876e-02    7.913821e-04
  8.546769e-02    7.928343e-04
  8.576662e-02    7.878056e-04
  8.606555e-02    7.840733e-04
  8.636448e-02    7.788101e-04
  8.666341e-02    7.843606e-04
  8.696234e-02    7.761766e-04
  8.726127e-02    7.694894e-04
  8.756020e-02    7.689161e-04
  8.785913e-02    7.766268e-04
  8.815806e-02    7.742577e-04
  8.845699e-02    7.769727e-04
  8.875592e-02    7.706089e-04
  8.905485e-02    7.642073e-04
  8.935378e-02    7.624036e-04
  8.965271e-02    7.643608e-04
  8.995164e-02    7.604032e-04
  9.025057e-02    7.594993e-04
  9.054950e-02    7.501536e-04
  9.084843e-02    7.452377e-04
  9.114737e-02    7.545949e-04
  9.144630e-02    7.600632e-04
  9.174523e-02    7.528287e-04
  9.204416e-02    7.483953e-04
  9.234309e-02    7.500749e-04
  9.264202e-02    7.469690e-04
  9.294095e-02    7.477773e-04
  9.323988e-02    7.437218e-04
  9.353881e-02    7.365969e-04
  9.383774e-02    7.373283e-04
  9.413667e-02    7.385743e-04
  9.443560e-02    7.485805e-04
  9.473453e-02    7.417634e-04
  9.503346e-02    7.424981e-04
  9.533239e-02    7.453255e-04
  9.563132e-02    7.388147e-04
  9.593025e-02    7.380077e-04
  9.622918e-02    7.390953e-04
  9.652811e-02    7.346609e-04
  9.682704e-02    7.383711e-04
  9.712597e-02    7.455859e-04
  9.742490e-02    7.431118e-04
  9.772383e-02    7.293644e-04
  9.802276e-02    7.163237e-04
  9.832169e-02    7.148446e-04
  9.862062e-02    7.212266e-04
  9.891956e-02    7.220205e-04
  9.921849e-02    7.229390e-04
  9.951742e-02    7.145216e-04
  9.981635e-02    7.067833e-04
  1.001153e-01    7.122749e-04
  1.004142e-01    7.137283e-04
  1.007131e-01    7.156967e-04
  1.010121e-01    7.204947e-04
  1.013110e-01    7.117418e-04
  1.016099e-01    7.110365e-04
  1.019089e-01    7.128034e-04
  1.022078e-01    7.009468e-04
  1.025067e-01    6.886132e-04
  1.028057e-01    6.979630e-04
  1.031046e-01    6.976220e-04
  1.034035e-01    7.027976e-04
  1.037024e-01    6.990029e-04
  1.040014e-01    6.981295e-04
  1.043003e-01    6.941776e-04
  1.045992e-01    6.897791e-04
  1.048982e-01    6.846311e-04
  1.051971e-01    6.790529e-04
  1.054960e-01    6.970871e-04
  1.057950e-01    7.037191e-04
  1.060939e-01    6.904620e-04
  1.063928e-01    6.928128e-04
  1.066917e-01    6.932324e-04
  1.069907e-01    6.790719e-04
  1.072896e-01    6.751437e-04
  1.075885e-01    6.834752e-04
  1.078875e-01    6.787648e-04
  1.081864e-01    6.724673e-04
  1.084853e-01    6.728022e-04
  1.087843e-01    6.725750e-04
  1.090832e-01    6.624185e-04
  1.093821e-01    6.745238e-04
  1.096810e-01    6.741324e-04
  1.099800e-01    6.664460e-04
  1.102789e-01    6.691877e-04
  1.105778e-01    6.644060e-04
  1.108768e-01    6.574466e-04
  1.111757e-01    6.529327e-04
  1.114746e-01    6.437331e-04
  1.117736e-01    6.459849e-04
  1.120725e-01    6.423205e-04
  1.123714e-01    6.469903e-04
  1.126704e-01    6.526590e-04
  1.129693e-01    6.484111e-04
  1.132682e-01    6.417516e-04
  1.135671e-01    6.393908e-04
  1.138661e-01    6.457039e-04
  1.141650e-01    6.438508e-04
  1.144639e-01    6.371608e-04
  1.147629e-01    6.444026e-04
  1.150618e-01    6.356534e-04
  1.153607e-01    6.205318e-04
  1.156597e-01    6.347905e-04
  1.159586e-01    6.634479e-04
  1.162575e-01    6.700184e-04
  1.165564e-01    6.459120e-04
  1.168554e-01    6.273466e-04
  1.171543e-01    6.312510e-04
  1.174532e-01    6.241694e-04
  1.177522e-01    6.247440e-04
  1.180511e-01    6.350384e-04
  1.183500e-01    6.302221e-04
  1.186490e-01    6.109318e-04
  1.189479e-01    6.074033e-04
  1.192468e-01    6.059239e-04
  1.195458e-01    6.307887e-04
  1.198447e-01    6.172506e-04
  1.201436e-01    5.714083e-04
  1.204425e-01    5.497257e-04
  1.207415e-01    4.727725e-04
  1.210404e-01    5.140878e-04
  1.213393e-01    0.000000e+00
  1.216383e-01    0.000000e+00
  1.219372e-01    0.000000e+00
  1.222361e-01    0.000000e+00
  1.225351e-01    0.000000e+00
  1.228340e-01    0.000000e+00
  1.231329e-01    0.000000e+00
  1.234318e-01    0.000000e+00
  1.237308e-01    0.000000e+00
  1.240297e-01    0.000000e+00
  1.243286e-01    0.000000e+00
  1.246276e-01    0.000000e+00
  1.249265e-01    0.000000e+00
  1.252254e-01    0.000000e+00
  1.255244e-01    0.000000e+00
  1.258233e-01    0.000000e+00
  1.261222e-01    0.000000e+00
  1.264212e-01    0.000000e+00
  1.267201e-01    0.000000e+00
  1.270190e-01    0.000000e+00
  1.273179e-01    0.000000e+00
  1.276169e-01    0.000000e+00
  1.279158e-01    0.000000e+00
  1.282147e-01    0.000000e+00
  1.285137e-01    0.000000e+00
  1.288126e-01    0.000000e+00
  1.291115e-01    0.000000e+00
  1.294105e-01    0.000000e+00
  1.297094e-01    0.000000e+00
  1.300083e-01    0.000000e+00
  1.303072e-01    0.000000e+00
  1.306062e-01    0.000000e+00
  1.309051e-01    0.000000e+00
  1.312040e-01    0.000000e+00
  1.315030e-01    0.000000e+00
  1.318019e-01    0.000000e+00
  1.321008e-01    0.000000e+00
  1.323998e-01    0.000000e+00
  1.326987e-01    0.000000e+00
  1.329976e-01    0.000000e+00
  1.332965e-01    0.000000e+00
  1.335955e-01    0.000000e+00
  1.338944e-01    0.000000e+00
  1.341933e-01    0.000000e+00
  1.344923e-01    0.000000e+00
  1.347912e-01    0.000000e+00
  1.350901e-01    0.000000e+00
  1.353891e-01    0.000000e+00
  1.356880e-01    0.000000e+00
  1.359869e-01    0.000000e+00
  1.362859e-01    0.000000e+00
  1.365848e-01    0.000000e+00
  1.368837e-01    0.000000e+00
  1.371826e-01    0.000000e+00
  1.374816e-01    0.000000e+00
  1.377805e-01    0.000000e+00
  1.380794e-01    0.000000e+00
  1.383784e-01    0.000000e+00
  1.386773e-01    0.000000e+00
  1.389762e-01    0.000000e+00
  1.392752e-01    0.000000e+00
  1.395741e-01    0.000000e+00
  1.398730e-01    0.000000e+00
  1.401719e-01    0.000000e+00
  1.404709e-01    0.000000e+00
  1.407698e-01    0.000000e+00
  1.410687e-01    0.000000e+00
  1.413677e-01    0.000000e+00
  1.416666e-01    0.000000e+00
  1.419655e-01    0.000000e+00
  1.422645e-01    0.000000e+00
  1.425634e-01    0.000000e+00
  1.428623e-01    0.000000e+00
  1.431613e-01    0.000000e+00
  1.434602e-01    0.000000e+00
  1.437591e-01    0.000000e+00
  1.440580e-01    0.000000e+00
  1.443570e-01    0.000000e+00
  1.446559e-01    0.000000e+00
  1.449548e-01    0.000000e+00
  1.452538e-01    0.000000e+00
  1.455527e-01    0.000000e+00
  1.458516e-01    0.000000e+00
  1.461506e-01    0.000000e+00
  1.464495e-01    0.000000e+00
  1.467484e-01    0.000000e+00
  1.470473e-01    0.000000e+00
  1.473463e-01    0.000000e+00
  1.476452e-01    0.000000e+00
  1.479441e-01    0.000000e+00
  1.482431e-01    0.000000e+00
  1.485420e-01    0.000000e+00
  1.488409e-01    0.000000e+00
  1.491399e-01    0.000000e+00
  1.494388e-01    0.000000e+00
  1.497377e-01    0.000000e+00
  1.500367e-01    0.000000e+00
  1.503356e-01    0.000000e+00
  1.506345e-01    0.000000e+00
  1.509334e-01    0.000000e+00
  1.512324e-01    0.000000e+00
  1.515313e-01    0.000000e+00
  1.518302e-01    0.000000e+00
  1.521292e-01    0.000000e+00
  1.524281e-01    0.000000e+00
  1.527270e-01    0.000000e+00
  1.530260e-01    0.000000e+00
  1.533249e-01    0.000000e+00
  1.536238e-01    0.000000e+00
