# == pyFAI calibration ==
# Distance Sample to Detector: 2.266 m
# PONI: 5.659e-02, 4.293e-02 m
# Rotations: 0.000000 0.000000 0.000000 rad
# 
# == Fit2d calibration ==
# Distance Sample-beamCenter: 2266.000 mm
# Center: x=249.594, y=329.012 pix
# Tilt: 0.000 deg  TiltPlanRot: 0.000 deg
# 
# Detector Pilatus 300k	 PixelSize= 1.720e-04, 1.720e-04 m
#    Detector has a mask: True 
#    Detector has a dark current: False 
#    detector has a flat field: False 
# 
# Wavelength: 1.27818e-10 m
# Mask applied: user provided
# Dark current applied: False
# Flat field applied: False
# Polarization factor: None
# Normalization factor: 8269.720000000001
# --> latex_CL3252_TiO2_R706_phiT_0.110_PVC_0.000_DOP_0.010_1_r1d.csv
#        q_A^-1             I 
  4.457554e-03    6.202045e-02
  4.756484e-03    4.996312e-02
  5.055415e-03    3.630484e-02
  5.354345e-03    2.557124e-02
  5.653276e-03    1.987180e-02
  5.952206e-03    4.284358e-02
  6.251136e-03    3.903550e-02
  6.550067e-03    3.348471e-02
  6.848997e-03    2.768400e-02
  7.147927e-03    2.252416e-02
  7.446858e-03    1.876331e-02
  7.745788e-03    1.552275e-02
  8.044719e-03    1.298351e-02
  8.343649e-03    1.119806e-02
  8.642579e-03    9.644338e-03
  8.941510e-03    8.403597e-03
  9.240440e-03    7.378391e-03
  9.539371e-03    6.578377e-03
  9.838301e-03    5.797406e-03
  1.013723e-02    5.203178e-03
  1.043616e-02    4.593950e-03
  1.073509e-02    4.089277e-03
  1.103402e-02    3.671641e-03
  1.133295e-02    3.326451e-03
  1.163188e-02    2.986696e-03
  1.193081e-02    2.704178e-03
  1.222974e-02    2.471761e-03
  1.252867e-02    2.248836e-03
  1.282760e-02    1.980183e-03
  1.312654e-02    1.813637e-03
  1.342547e-02    1.670185e-03
  1.372440e-02    1.548049e-03
  1.402333e-02    1.440058e-03
  1.432226e-02    1.312706e-03
  1.462119e-02    1.215293e-03
  1.492012e-02    1.143630e-03
  1.521905e-02    1.081902e-03
  1.551798e-02    1.018102e-03
  1.581691e-02    9.518005e-04
  1.611584e-02    8.561060e-04
  1.641477e-02    7.871324e-04
  1.671370e-02    7.470805e-04
  1.701263e-02    7.072500e-04
  1.731156e-02    6.679308e-04
  1.761049e-02    6.338652e-04
  1.790942e-02    6.035488e-04
  1.820835e-02    5.675492e-04
  1.850728e-02    5.274537e-04
  1.880621e-02    4.952353e-04
  1.910514e-02    4.863106e-04
  1.940407e-02    4.622765e-04
  1.970300e-02    4.302197e-04
  2.000193e-02    4.233848e-04
  2.030086e-02    4.224098e-04
  2.059979e-02    4.060864e-04
  2.089873e-02    3.853992e-04
  2.119766e-02    3.657007e-04
  2.149659e-02    3.556055e-04
  2.179552e-02    3.358765e-04
  2.209445e-02    3.206007e-04
  2.239338e-02    3.127355e-04
  2.269231e-02    3.008156e-04
  2.299124e-02    2.876814e-04
  2.329017e-02    2.854273e-04
  2.358910e-02    2.704111e-04
  2.388803e-02    2.511760e-04
  2.418696e-02    2.575738e-04
  2.448589e-02    2.519451e-04
  2.478482e-02    2.451343e-04
  2.508375e-02    2.379238e-04
  2.538268e-02    2.413682e-04
  2.568161e-02    2.347784e-04
  2.598054e-02    2.266431e-04
  2.627947e-02    2.240692e-04
  2.657840e-02    2.127276e-04
  2.687733e-02    2.077650e-04
  2.717626e-02    2.049810e-04
  2.747519e-02    2.027249e-04
  2.777412e-02    2.056621e-04
  2.807305e-02    1.970613e-04
  2.837198e-02    1.949940e-04
  2.867092e-02    1.864431e-04
  2.896985e-02    1.814416e-04
  2.926878e-02    1.832197e-04
  2.956771e-02    1.724057e-04
  2.986664e-02    1.652813e-04
  3.016557e-02    1.668238e-04
  3.046450e-02    1.685927e-04
  3.076343e-02    1.710430e-04
  3.106236e-02    1.641128e-04
  3.136129e-02    1.607736e-04
  3.166022e-02    1.575122e-04
  3.195915e-02    1.631406e-04
  3.225808e-02    1.629701e-04
  3.255701e-02    1.478412e-04
  3.285594e-02    1.522305e-04
  3.315487e-02    1.547830e-04
  3.345380e-02    1.428197e-04
  3.375273e-02    1.432322e-04
  3.405166e-02    1.456590e-04
  3.435059e-02    1.440771e-04
  3.464952e-02    1.510493e-04
  3.494845e-02    1.419216e-04
  3.524738e-02    1.367218e-04
  3.554631e-02    1.425920e-04
  3.584524e-02    1.367241e-04
  3.614417e-02    1.290759e-04
  3.644310e-02    1.343465e-04
  3.674204e-02    1.368023e-04
  3.704097e-02    1.390627e-04
  3.733990e-02    1.393172e-04
  3.763883e-02    1.329379e-04
  3.793776e-02    1.291266e-04
  3.823669e-02    1.257951e-04
  3.853562e-02    1.238640e-04
  3.883455e-02    1.193444e-04
  3.913348e-02    1.190607e-04
  3.943241e-02    1.166532e-04
  3.973134e-02    1.202496e-04
  4.003027e-02    1.211587e-04
  4.032920e-02    1.218426e-04
  4.062813e-02    1.192314e-04
  4.092706e-02    1.179400e-04
  4.122599e-02    1.168433e-04
  4.152492e-02    1.166800e-04
  4.182385e-02    1.191915e-04
  4.212278e-02    1.191434e-04
  4.242171e-02    1.184080e-04
  4.272064e-02    1.197052e-04
  4.301957e-02    1.190883e-04
  4.331850e-02    1.202961e-04
  4.361743e-02    1.180542e-04
  4.391636e-02    1.146155e-04
  4.421529e-02    1.150945e-04
  4.451423e-02    1.158416e-04
  4.481316e-02    1.129762e-04
  4.511209e-02    1.147161e-04
  4.541102e-02    1.116301e-04
  4.570995e-02    1.031220e-04
  4.600888e-02    1.098502e-04
  4.630781e-02    1.146197e-04
  4.660674e-02    1.125813e-04
  4.690567e-02    1.162397e-04
  4.720460e-02    1.107425e-04
  4.750353e-02    1.083923e-04
  4.780246e-02    1.135094e-04
  4.810139e-02    1.116419e-04
  4.840032e-02    1.136697e-04
  4.869925e-02    1.116518e-04
  4.899818e-02    1.059550e-04
  4.929711e-02    1.100297e-04
  4.959604e-02    1.095168e-04
  4.989497e-02    1.062960e-04
  5.019390e-02    1.087333e-04
  5.049283e-02    1.146553e-04
  5.079176e-02    1.160031e-04
  5.109069e-02    1.128066e-04
  5.138962e-02    1.144590e-04
  5.168855e-02    1.124029e-04
  5.198748e-02    1.154334e-04
  5.228642e-02    1.171480e-04
  5.258535e-02    1.115395e-04
  5.288428e-02    1.145077e-04
  5.318321e-02    1.126978e-04
  5.348214e-02    1.063840e-04
  5.378107e-02    1.085386e-04
  5.408000e-02    1.055323e-04
  5.437893e-02    1.034832e-04
  5.467786e-02    1.111275e-04
  5.497679e-02    1.134875e-04
  5.527572e-02    1.066994e-04
  5.557465e-02    1.049751e-04
  5.587358e-02    1.047691e-04
  5.617251e-02    1.051970e-04
  5.647144e-02    1.063141e-04
  5.677037e-02    1.050097e-04
  5.706930e-02    1.031829e-04
  5.736823e-02    1.077175e-04
  5.766716e-02    1.064171e-04
  5.796609e-02    1.060647e-04
  5.826502e-02    1.072219e-04
  5.856395e-02    1.092490e-04
  5.886288e-02    1.074865e-04
  5.916181e-02    1.086717e-04
  5.946074e-02    1.133607e-04
  5.975967e-02    1.123592e-04
  6.005861e-02    1.081284e-04
  6.035754e-02    1.062599e-04
  6.065647e-02    1.079895e-04
  6.095540e-02    1.097507e-04
  6.125433e-02    1.132205e-04
  6.155326e-02    1.111653e-04
  6.185219e-02    1.104113e-04
  6.215112e-02    1.107418e-04
  6.245005e-02    1.054810e-04
  6.274898e-02    1.040728e-04
  6.304791e-02    1.070299e-04
  6.334684e-02    1.090510e-04
  6.364577e-02    1.094062e-04
  6.394470e-02    1.067048e-04
  6.424363e-02    1.111948e-04
  6.454256e-02    1.130919e-04
  6.484149e-02    1.112962e-04
  6.514042e-02    1.117461e-04
  6.543935e-02    1.103612e-04
  6.573828e-02    1.119884e-04
  6.603721e-02    1.143142e-04
  6.633614e-02    1.139579e-04
  6.663507e-02    1.166883e-04
  6.693400e-02    1.178532e-04
  6.723293e-02    1.114066e-04
  6.753186e-02    1.116715e-04
  6.783080e-02    1.102582e-04
  6.812973e-02    1.139958e-04
  6.842866e-02    1.115667e-04
  6.872759e-02    1.064605e-04
  6.902652e-02    1.107589e-04
  6.932545e-02    1.102882e-04
  6.962438e-02    1.061432e-04
  6.992331e-02    1.076068e-04
  7.022224e-02    1.100217e-04
  7.052117e-02    1.148517e-04
  7.082010e-02    1.158668e-04
  7.111903e-02    1.198284e-04
  7.141796e-02    1.156741e-04
  7.171689e-02    1.114147e-04
  7.201582e-02    1.108652e-04
  7.231475e-02    1.105994e-04
  7.261368e-02    1.143838e-04
  7.291261e-02    1.148422e-04
  7.321154e-02    1.132342e-04
  7.351047e-02    1.123591e-04
  7.380940e-02    1.093390e-04
  7.410833e-02    1.086010e-04
  7.440726e-02    1.114220e-04
  7.470619e-02    1.133507e-04
  7.500512e-02    1.123360e-04
  7.530405e-02    1.129884e-04
  7.560299e-02    1.151518e-04
  7.590192e-02    1.132694e-04
  7.620085e-02    1.099870e-04
  7.649978e-02    1.090653e-04
  7.679871e-02    1.105915e-04
  7.709764e-02    1.100019e-04
  7.739657e-02    1.166458e-04
  7.769550e-02    1.141745e-04
  7.799443e-02    1.067952e-04
  7.829336e-02    1.094196e-04
  7.859229e-02    1.097551e-04
  7.889122e-02    1.141756e-04
  7.919015e-02    1.161056e-04
  7.948908e-02    1.130839e-04
  7.978801e-02    1.124648e-04
  8.008694e-02    1.083272e-04
  8.038587e-02    1.128445e-04
  8.068480e-02    1.104118e-04
  8.098373e-02    1.126405e-04
  8.128266e-02    1.083786e-04
  8.158159e-02    1.050149e-04
  8.188052e-02    1.063246e-04
  8.217945e-02    1.075378e-04
  8.247838e-02    1.067701e-04
  8.277731e-02    1.070529e-04
  8.307624e-02    1.059893e-04
  8.337518e-02    1.091698e-04
  8.367411e-02    1.053922e-04
  8.397304e-02    1.037591e-04
  8.427197e-02    1.074545e-04
  8.457090e-02    1.090644e-04
  8.486983e-02    1.086879e-04
  8.516876e-02    1.075988e-04
  8.546769e-02    1.038234e-04
  8.576662e-02    1.029239e-04
  8.606555e-02    1.062700e-04
  8.636448e-02    1.112010e-04
  8.666341e-02    1.106086e-04
  8.696234e-02    1.071457e-04
  8.726127e-02    1.071192e-04
  8.756020e-02    1.073050e-04
  8.785913e-02    1.091148e-04
  8.815806e-02    1.074263e-04
  8.845699e-02    1.064952e-04
  8.875592e-02    1.033818e-04
  8.905485e-02    1.033831e-04
  8.935378e-02    1.028981e-04
  8.965271e-02    1.029138e-04
  8.995164e-02    1.087789e-04
  9.025057e-02    1.046676e-04
  9.054950e-02    1.048569e-04
  9.084843e-02    1.047856e-04
  9.114737e-02    1.034581e-04
  9.144630e-02    1.039081e-04
  9.174523e-02    9.997820e-05
  9.204416e-02    1.004796e-04
  9.234309e-02    1.051951e-04
  9.264202e-02    1.029153e-04
  9.294095e-02    1.004811e-04
  9.323988e-02    9.965050e-05
  9.353881e-02    1.020109e-04
  9.383774e-02    1.027246e-04
  9.413667e-02    1.055505e-04
  9.443560e-02    1.004309e-04
  9.473453e-02    9.812417e-05
  9.503346e-02    9.474318e-05
  9.533239e-02    9.668914e-05
  9.563132e-02    9.988974e-05
  9.593025e-02    1.041350e-04
  9.622918e-02    1.044584e-04
  9.652811e-02    9.910578e-05
  9.682704e-02    9.950489e-05
  9.712597e-02    9.736565e-05
  9.742490e-02    9.698662e-05
  9.772383e-02    1.029123e-04
  9.802276e-02    1.010958e-04
  9.832169e-02    9.674147e-05
  9.862062e-02    1.002340e-04
  9.891956e-02    1.010986e-04
  9.921849e-02    9.586111e-05
  9.951742e-02    9.719058e-05
  9.981635e-02    9.974930e-05
  1.001153e-01    9.718013e-05
  1.004142e-01    9.594840e-05
  1.007131e-01    9.478881e-05
  1.010121e-01    9.528326e-05
  1.013110e-01    9.911681e-05
  1.016099e-01    9.735023e-05
  1.019089e-01    9.829448e-05
  1.022078e-01    9.725655e-05
  1.025067e-01    9.030734e-05
  1.028057e-01    9.370847e-05
  1.031046e-01    9.468021e-05
  1.034035e-01    9.617012e-05
  1.037024e-01    9.389767e-05
  1.040014e-01    9.281637e-05
  1.043003e-01    9.592423e-05
  1.045992e-01    9.606061e-05
  1.048982e-01    9.462996e-05
  1.051971e-01    9.510018e-05
  1.054960e-01    9.302208e-05
  1.057950e-01    9.680731e-05
  1.060939e-01    9.494822e-05
  1.063928e-01    9.042926e-05
  1.066917e-01    9.234624e-05
  1.069907e-01    8.939142e-05
  1.072896e-01    8.977276e-05
  1.075885e-01    9.585381e-05
  1.078875e-01    9.685628e-05
  1.081864e-01    9.069560e-05
  1.084853e-01    8.983716e-05
  1.087843e-01    9.350551e-05
  1.090832e-01    9.101567e-05
  1.093821e-01    8.980851e-05
  1.096810e-01    9.095250e-05
  1.099800e-01    9.297322e-05
  1.102789e-01    9.223767e-05
  1.105778e-01    9.151920e-05
  1.108768e-01    8.751597e-05
  1.111757e-01    8.877846e-05
  1.114746e-01    9.201042e-05
  1.117736e-01    9.459408e-05
  1.120725e-01    9.039412e-05
  1.123714e-01    9.234343e-05
  1.126704e-01    9.277701e-05
  1.129693e-01    9.240613e-05
  1.132682e-01    9.207526e-05
  1.135671e-01    8.851659e-05
  1.138661e-01    8.919649e-05
  1.141650e-01    9.099810e-05
  1.144639e-01    8.511625e-05
  1.147629e-01    8.290625e-05
  1.150618e-01    8.945895e-05
  1.153607e-01    8.549639e-05
  1.156597e-01    8.141639e-05
  1.159586e-01    8.168577e-05
  1.162575e-01    8.807977e-05
  1.165564e-01    8.939071e-05
  1.168554e-01    8.284017e-05
  1.171543e-01    7.871289e-05
  1.174532e-01    8.507969e-05
  1.177522e-01    8.677876e-05
  1.180511e-01    9.417059e-05
  1.183500e-01    8.960678e-05
  1.186490e-01    7.782414e-05
  1.189479e-01    8.132598e-05
  1.192468e-01    8.695258e-05
  1.195458e-01    9.448936e-05
  1.198447e-01    9.221883e-05
  1.201436e-01    9.728400e-05
  1.204425e-01    1.128365e-04
  1.207415e-01    8.488754e-05
  1.210404e-01    0.000000e+00
  1.213393e-01    0.000000e+00
  1.216383e-01    0.000000e+00
  1.219372e-01    0.000000e+00
  1.222361e-01    0.000000e+00
  1.225351e-01    0.000000e+00
  1.228340e-01    0.000000e+00
  1.231329e-01    0.000000e+00
  1.234318e-01    0.000000e+00
  1.237308e-01    0.000000e+00
  1.240297e-01    0.000000e+00
  1.243286e-01    0.000000e+00
  1.246276e-01    0.000000e+00
  1.249265e-01    0.000000e+00
  1.252254e-01    0.000000e+00
  1.255244e-01    0.000000e+00
  1.258233e-01    0.000000e+00
  1.261222e-01    0.000000e+00
  1.264212e-01    0.000000e+00
  1.267201e-01    0.000000e+00
  1.270190e-01    0.000000e+00
  1.273179e-01    0.000000e+00
  1.276169e-01    0.000000e+00
  1.279158e-01    0.000000e+00
  1.282147e-01    0.000000e+00
  1.285137e-01    0.000000e+00
  1.288126e-01    0.000000e+00
  1.291115e-01    0.000000e+00
  1.294105e-01    0.000000e+00
  1.297094e-01    0.000000e+00
  1.300083e-01    0.000000e+00
  1.303072e-01    0.000000e+00
  1.306062e-01    0.000000e+00
  1.309051e-01    0.000000e+00
  1.312040e-01    0.000000e+00
  1.315030e-01    0.000000e+00
  1.318019e-01    0.000000e+00
  1.321008e-01    0.000000e+00
  1.323998e-01    0.000000e+00
  1.326987e-01    0.000000e+00
  1.329976e-01    0.000000e+00
  1.332965e-01    0.000000e+00
  1.335955e-01    0.000000e+00
  1.338944e-01    0.000000e+00
  1.341933e-01    0.000000e+00
  1.344923e-01    0.000000e+00
  1.347912e-01    0.000000e+00
  1.350901e-01    0.000000e+00
  1.353891e-01    0.000000e+00
  1.356880e-01    0.000000e+00
  1.359869e-01    0.000000e+00
  1.362859e-01    0.000000e+00
  1.365848e-01    0.000000e+00
  1.368837e-01    0.000000e+00
  1.371826e-01    0.000000e+00
  1.374816e-01    0.000000e+00
  1.377805e-01    0.000000e+00
  1.380794e-01    0.000000e+00
  1.383784e-01    0.000000e+00
  1.386773e-01    0.000000e+00
  1.389762e-01    0.000000e+00
  1.392752e-01    0.000000e+00
  1.395741e-01    0.000000e+00
  1.398730e-01    0.000000e+00
  1.401719e-01    0.000000e+00
  1.404709e-01    0.000000e+00
  1.407698e-01    0.000000e+00
  1.410687e-01    0.000000e+00
  1.413677e-01    0.000000e+00
  1.416666e-01    0.000000e+00
  1.419655e-01    0.000000e+00
  1.422645e-01    0.000000e+00
  1.425634e-01    0.000000e+00
  1.428623e-01    0.000000e+00
  1.431613e-01    0.000000e+00
  1.434602e-01    0.000000e+00
  1.437591e-01    0.000000e+00
  1.440580e-01    0.000000e+00
  1.443570e-01    0.000000e+00
  1.446559e-01    0.000000e+00
  1.449548e-01    0.000000e+00
  1.452538e-01    0.000000e+00
  1.455527e-01    0.000000e+00
  1.458516e-01    0.000000e+00
  1.461506e-01    0.000000e+00
  1.464495e-01    0.000000e+00
  1.467484e-01    0.000000e+00
  1.470473e-01    0.000000e+00
  1.473463e-01    0.000000e+00
  1.476452e-01    0.000000e+00
  1.479441e-01    0.000000e+00
  1.482431e-01    0.000000e+00
  1.485420e-01    0.000000e+00
  1.488409e-01    0.000000e+00
  1.491399e-01    0.000000e+00
  1.494388e-01    0.000000e+00
  1.497377e-01    0.000000e+00
  1.500367e-01    0.000000e+00
  1.503356e-01    0.000000e+00
  1.506345e-01    0.000000e+00
  1.509334e-01    0.000000e+00
  1.512324e-01    0.000000e+00
  1.515313e-01    0.000000e+00
  1.518302e-01    0.000000e+00
  1.521292e-01    0.000000e+00
  1.524281e-01    0.000000e+00
  1.527270e-01    0.000000e+00
  1.530260e-01    0.000000e+00
  1.533249e-01    0.000000e+00
  1.536238e-01    0.000000e+00
