# == pyFAI calibration ==
# Distance Sample to Detector: 2.266 m
# PONI: 5.659e-02, 4.293e-02 m
# Rotations: 0.000000 0.000000 0.000000 rad
# 
# == Fit2d calibration ==
# Distance Sample-beamCenter: 2266.000 mm
# Center: x=249.594, y=329.012 pix
# Tilt: 0.000 deg  TiltPlanRot: 0.000 deg
# 
# Detector Pilatus 300k	 PixelSize= 1.720e-04, 1.720e-04 m
#    Detector has a mask: True 
#    Detector has a dark current: False 
#    detector has a flat field: False 
# 
# Wavelength: 1.27818e-10 m
# Mask applied: user provided
# Dark current applied: False
# Flat field applied: False
# Polarization factor: None
# Normalization factor: 680.1900000000002
# --> latex_CL3252_TiO2_R706_phiT_0.030_PVC_0.600_DOP_0.000_1_r1d.csv
#        q_A^-1             I 
  4.457554e-03    4.586877e+01
  4.756484e-03    4.046260e+01
  5.055415e-03    3.360596e+01
  5.354345e-03    2.745886e+01
  5.653276e-03    2.339551e+01
  5.952206e-03    5.698130e+01
  6.251136e-03    5.225822e+01
  6.550067e-03    4.487798e+01
  6.848997e-03    3.700882e+01
  7.147927e-03    3.000874e+01
  7.446858e-03    2.455024e+01
  7.745788e-03    2.013132e+01
  8.044719e-03    1.660822e+01
  8.343649e-03    1.391714e+01
  8.642579e-03    1.174090e+01
  8.941510e-03    9.978389e+00
  9.240440e-03    8.531845e+00
  9.539371e-03    7.316608e+00
  9.838301e-03    6.298011e+00
  1.013723e-02    5.468680e+00
  1.043616e-02    4.779505e+00
  1.073509e-02    4.147191e+00
  1.103402e-02    3.642322e+00
  1.133295e-02    3.214941e+00
  1.163188e-02    2.859245e+00
  1.193081e-02    2.545072e+00
  1.222974e-02    2.280439e+00
  1.252867e-02    2.051760e+00
  1.282760e-02    1.844031e+00
  1.312654e-02    1.659063e+00
  1.342547e-02    1.504203e+00
  1.372440e-02    1.362481e+00
  1.402333e-02    1.240864e+00
  1.432226e-02    1.127442e+00
  1.462119e-02    1.026443e+00
  1.492012e-02    9.384492e-01
  1.521905e-02    8.590981e-01
  1.551798e-02    7.927404e-01
  1.581691e-02    7.292604e-01
  1.611584e-02    6.695881e-01
  1.641477e-02    6.191275e-01
  1.671370e-02    5.732845e-01
  1.701263e-02    5.280806e-01
  1.731156e-02    4.881202e-01
  1.761049e-02    4.509173e-01
  1.790942e-02    4.185344e-01
  1.820835e-02    3.900955e-01
  1.850728e-02    3.644516e-01
  1.880621e-02    3.395616e-01
  1.910514e-02    3.163873e-01
  1.940407e-02    2.962303e-01
  1.970300e-02    2.764865e-01
  2.000193e-02    2.584162e-01
  2.030086e-02    2.414947e-01
  2.059979e-02    2.260559e-01
  2.089873e-02    2.129312e-01
  2.119766e-02    1.989677e-01
  2.149659e-02    1.868178e-01
  2.179552e-02    1.772519e-01
  2.209445e-02    1.670567e-01
  2.239338e-02    1.577933e-01
  2.269231e-02    1.491792e-01
  2.299124e-02    1.406383e-01
  2.329017e-02    1.324269e-01
  2.358910e-02    1.249611e-01
  2.388803e-02    1.181068e-01
  2.418696e-02    1.110691e-01
  2.448589e-02    1.056905e-01
  2.478482e-02    1.011425e-01
  2.508375e-02    9.543898e-02
  2.538268e-02    8.985844e-02
  2.568161e-02    8.510924e-02
  2.598054e-02    8.093081e-02
  2.627947e-02    7.699341e-02
  2.657840e-02    7.331937e-02
  2.687733e-02    6.989762e-02
  2.717626e-02    6.688236e-02
  2.747519e-02    6.377751e-02
  2.777412e-02    6.109557e-02
  2.807305e-02    5.822393e-02
  2.837198e-02    5.523138e-02
  2.867092e-02    5.257588e-02
  2.896985e-02    5.049549e-02
  2.926878e-02    4.837402e-02
  2.956771e-02    4.682237e-02
  2.986664e-02    4.529872e-02
  3.016557e-02    4.305639e-02
  3.046450e-02    4.059296e-02
  3.076343e-02    3.885250e-02
  3.106236e-02    3.740405e-02
  3.136129e-02    3.591485e-02
  3.166022e-02    3.466859e-02
  3.195915e-02    3.280712e-02
  3.225808e-02    3.152717e-02
  3.255701e-02    3.038854e-02
  3.285594e-02    2.903653e-02
  3.315487e-02    2.840441e-02
  3.345380e-02    2.723091e-02
  3.375273e-02    2.614667e-02
  3.405166e-02    2.504490e-02
  3.435059e-02    2.411108e-02
  3.464952e-02    2.334732e-02
  3.494845e-02    2.266662e-02
  3.524738e-02    2.159316e-02
  3.554631e-02    2.058847e-02
  3.584524e-02    1.986569e-02
  3.614417e-02    1.922888e-02
  3.644310e-02    1.888251e-02
  3.674204e-02    1.843337e-02
  3.704097e-02    1.739017e-02
  3.733990e-02    1.696902e-02
  3.763883e-02    1.638527e-02
  3.793776e-02    1.570694e-02
  3.823669e-02    1.502379e-02
  3.853562e-02    1.465795e-02
  3.883455e-02    1.431314e-02
  3.913348e-02    1.384458e-02
  3.943241e-02    1.337760e-02
  3.973134e-02    1.279645e-02
  4.003027e-02    1.224858e-02
  4.032920e-02    1.191085e-02
  4.062813e-02    1.153507e-02
  4.092706e-02    1.143446e-02
  4.122599e-02    1.109761e-02
  4.152492e-02    1.084186e-02
  4.182385e-02    1.046232e-02
  4.212278e-02    1.008120e-02
  4.242171e-02    9.821270e-03
  4.272064e-02    9.448509e-03
  4.301957e-02    9.183599e-03
  4.331850e-02    9.052305e-03
  4.361743e-02    8.762533e-03
  4.391636e-02    8.396951e-03
  4.421529e-02    8.112878e-03
  4.451423e-02    7.939741e-03
  4.481316e-02    7.864289e-03
  4.511209e-02    7.711518e-03
  4.541102e-02    7.438391e-03
  4.570995e-02    7.158434e-03
  4.600888e-02    6.989009e-03
  4.630781e-02    6.878783e-03
  4.660674e-02    6.600900e-03
  4.690567e-02    6.424126e-03
  4.720460e-02    6.312177e-03
  4.750353e-02    6.366052e-03
  4.780246e-02    6.207838e-03
  4.810139e-02    5.893001e-03
  4.840032e-02    5.742727e-03
  4.869925e-02    5.673231e-03
  4.899818e-02    5.577064e-03
  4.929711e-02    5.384622e-03
  4.959604e-02    5.152743e-03
  4.989497e-02    5.146854e-03
  5.019390e-02    5.002894e-03
  5.049283e-02    4.891890e-03
  5.079176e-02    4.733484e-03
  5.109069e-02    4.729586e-03
  5.138962e-02    4.673550e-03
  5.168855e-02    4.598660e-03
  5.198748e-02    4.585997e-03
  5.228642e-02    4.426347e-03
  5.258535e-02    4.370325e-03
  5.288428e-02    4.242677e-03
  5.318321e-02    4.061649e-03
  5.348214e-02    3.982811e-03
  5.378107e-02    3.919122e-03
  5.408000e-02    3.910024e-03
  5.437893e-02    3.792112e-03
  5.467786e-02    3.725330e-03
  5.497679e-02    3.620047e-03
  5.527572e-02    3.588867e-03
  5.557465e-02    3.541403e-03
  5.587358e-02    3.396820e-03
  5.617251e-02    3.304442e-03
  5.647144e-02    3.333048e-03
  5.677037e-02    3.306801e-03
  5.706930e-02    3.203009e-03
  5.736823e-02    3.041434e-03
  5.766716e-02    2.987047e-03
  5.796609e-02    2.958777e-03
  5.826502e-02    2.918317e-03
  5.856395e-02    2.910228e-03
  5.886288e-02    2.810650e-03
  5.916181e-02    2.736362e-03
  5.946074e-02    2.715246e-03
  5.975967e-02    2.748098e-03
  6.005861e-02    2.711990e-03
  6.035754e-02    2.656240e-03
  6.065647e-02    2.533026e-03
  6.095540e-02    2.561931e-03
  6.125433e-02    2.500154e-03
  6.155326e-02    2.486230e-03
  6.185219e-02    2.450986e-03
  6.215112e-02    2.362695e-03
  6.245005e-02    2.317360e-03
  6.274898e-02    2.290179e-03
  6.304791e-02    2.220389e-03
  6.334684e-02    2.248973e-03
  6.364577e-02    2.342892e-03
  6.394470e-02    2.262111e-03
  6.424363e-02    2.137331e-03
  6.454256e-02    2.156507e-03
  6.484149e-02    2.212186e-03
  6.514042e-02    2.140131e-03
  6.543935e-02    2.085304e-03
  6.573828e-02    1.955217e-03
  6.603721e-02    1.932980e-03
  6.633614e-02    2.008582e-03
  6.663507e-02    1.982738e-03
  6.693400e-02    1.929783e-03
  6.723293e-02    1.882359e-03
  6.753186e-02    1.851417e-03
  6.783080e-02    1.829111e-03
  6.812973e-02    1.815158e-03
  6.842866e-02    1.796468e-03
  6.872759e-02    1.784794e-03
  6.902652e-02    1.760995e-03
  6.932545e-02    1.754847e-03
  6.962438e-02    1.745241e-03
  6.992331e-02    1.747077e-03
  7.022224e-02    1.646819e-03
  7.052117e-02    1.693086e-03
  7.082010e-02    1.685613e-03
  7.111903e-02    1.635723e-03
  7.141796e-02    1.658823e-03
  7.171689e-02    1.635747e-03
  7.201582e-02    1.569306e-03
  7.231475e-02    1.570964e-03
  7.261368e-02    1.631253e-03
  7.291261e-02    1.616314e-03
  7.321154e-02    1.541600e-03
  7.351047e-02    1.447825e-03
  7.380940e-02    1.445628e-03
  7.410833e-02    1.495859e-03
  7.440726e-02    1.490412e-03
  7.470619e-02    1.454818e-03
  7.500512e-02    1.465056e-03
  7.530405e-02    1.516193e-03
  7.560299e-02    1.480496e-03
  7.590192e-02    1.451239e-03
  7.620085e-02    1.449923e-03
  7.649978e-02    1.428823e-03
  7.679871e-02    1.358506e-03
  7.709764e-02    1.311819e-03
  7.739657e-02    1.324877e-03
  7.769550e-02    1.271138e-03
  7.799443e-02    1.229803e-03
  7.829336e-02    1.256093e-03
  7.859229e-02    1.283822e-03
  7.889122e-02    1.276395e-03
  7.919015e-02    1.260893e-03
  7.948908e-02    1.293852e-03
  7.978801e-02    1.263117e-03
  8.008694e-02    1.215966e-03
  8.038587e-02    1.171148e-03
  8.068480e-02    1.184362e-03
  8.098373e-02    1.247965e-03
  8.128266e-02    1.248106e-03
  8.158159e-02    1.177231e-03
  8.188052e-02    1.155443e-03
  8.217945e-02    1.151558e-03
  8.247838e-02    1.149834e-03
  8.277731e-02    1.142606e-03
  8.307624e-02    1.106170e-03
  8.337518e-02    1.117502e-03
  8.367411e-02    1.116610e-03
  8.397304e-02    1.077604e-03
  8.427197e-02    1.054746e-03
  8.457090e-02    1.079929e-03
  8.486983e-02    1.105647e-03
  8.516876e-02    1.007365e-03
  8.546769e-02    9.693063e-04
  8.576662e-02    1.000778e-03
  8.606555e-02    1.007342e-03
  8.636448e-02    9.960864e-04
  8.666341e-02    9.870778e-04
  8.696234e-02    9.922950e-04
  8.726127e-02    9.631441e-04
  8.756020e-02    9.941115e-04
  8.785913e-02    9.660849e-04
  8.815806e-02    9.452722e-04
  8.845699e-02    9.919910e-04
  8.875592e-02    9.644798e-04
  8.905485e-02    9.089518e-04
  8.935378e-02    9.035485e-04
  8.965271e-02    9.411179e-04
  8.995164e-02    9.204274e-04
  9.025057e-02    8.938062e-04
  9.054950e-02    9.062501e-04
  9.084843e-02    9.079084e-04
  9.114737e-02    8.709405e-04
  9.144630e-02    8.562692e-04
  9.174523e-02    8.693839e-04
  9.204416e-02    8.803830e-04
  9.234309e-02    8.636292e-04
  9.264202e-02    8.669102e-04
  9.294095e-02    8.201823e-04
  9.323988e-02    8.191779e-04
  9.353881e-02    8.327595e-04
  9.383774e-02    8.270810e-04
  9.413667e-02    8.378151e-04
  9.443560e-02    8.240073e-04
  9.473453e-02    8.225871e-04
  9.503346e-02    8.187885e-04
  9.533239e-02    8.185080e-04
  9.563132e-02    7.766445e-04
  9.593025e-02    7.421537e-04
  9.622918e-02    7.604430e-04
  9.652811e-02    8.020686e-04
  9.682704e-02    8.057117e-04
  9.712597e-02    8.034038e-04
  9.742490e-02    7.723941e-04
  9.772383e-02    7.716321e-04
  9.802276e-02    7.870545e-04
  9.832169e-02    7.801183e-04
  9.862062e-02    8.100335e-04
  9.891956e-02    7.961437e-04
  9.921849e-02    7.209393e-04
  9.951742e-02    7.301795e-04
  9.981635e-02    7.272675e-04
  1.001153e-01    7.098031e-04
  1.004142e-01    7.164782e-04
  1.007131e-01    7.400903e-04
  1.010121e-01    7.223959e-04
  1.013110e-01    7.202252e-04
  1.016099e-01    7.005952e-04
  1.019089e-01    6.691813e-04
  1.022078e-01    6.448191e-04
  1.025067e-01    6.418430e-04
  1.028057e-01    6.600871e-04
  1.031046e-01    6.638021e-04
  1.034035e-01    6.645573e-04
  1.037024e-01    6.419449e-04
  1.040014e-01    6.691747e-04
  1.043003e-01    6.641165e-04
  1.045992e-01    6.204203e-04
  1.048982e-01    6.449635e-04
  1.051971e-01    6.200920e-04
  1.054960e-01    6.227627e-04
  1.057950e-01    6.177041e-04
  1.060939e-01    5.934624e-04
  1.063928e-01    6.120036e-04
  1.066917e-01    6.036828e-04
  1.069907e-01    5.924554e-04
  1.072896e-01    6.123555e-04
  1.075885e-01    6.125597e-04
  1.078875e-01    6.066057e-04
  1.081864e-01    6.102570e-04
  1.084853e-01    6.104725e-04
  1.087843e-01    5.586120e-04
  1.090832e-01    5.270747e-04
  1.093821e-01    5.885772e-04
  1.096810e-01    5.976672e-04
  1.099800e-01    5.608943e-04
  1.102789e-01    5.499250e-04
  1.105778e-01    5.835195e-04
  1.108768e-01    6.026934e-04
  1.111757e-01    5.836630e-04
  1.114746e-01    5.667548e-04
  1.117736e-01    5.932189e-04
  1.120725e-01    6.108319e-04
  1.123714e-01    5.750927e-04
  1.126704e-01    5.650902e-04
  1.129693e-01    5.571656e-04
  1.132682e-01    5.943969e-04
  1.135671e-01    6.143340e-04
  1.138661e-01    5.732545e-04
  1.141650e-01    5.052667e-04
  1.144639e-01    5.225844e-04
  1.147629e-01    4.825867e-04
  1.150618e-01    4.766945e-04
  1.153607e-01    5.567638e-04
  1.156597e-01    5.009750e-04
  1.159586e-01    4.834998e-04
  1.162575e-01    4.443565e-04
  1.165564e-01    4.258876e-04
  1.168554e-01    5.478406e-04
  1.171543e-01    5.355286e-04
  1.174532e-01    4.621241e-04
  1.177522e-01    4.866584e-04
  1.180511e-01    5.896052e-04
  1.183500e-01    5.517757e-04
  1.186490e-01    5.311183e-04
  1.189479e-01    5.266934e-04
  1.192468e-01    4.824311e-04
  1.195458e-01    5.246860e-04
  1.198447e-01    6.386857e-04
  1.201436e-01    6.539403e-04
  1.204425e-01    3.969048e-04
  1.207415e-01    5.186872e-04
  1.210404e-01    1.471509e-03
  1.213393e-01    0.000000e+00
  1.216383e-01    0.000000e+00
  1.219372e-01    0.000000e+00
  1.222361e-01    0.000000e+00
  1.225351e-01    0.000000e+00
  1.228340e-01    0.000000e+00
  1.231329e-01    0.000000e+00
  1.234318e-01    0.000000e+00
  1.237308e-01    0.000000e+00
  1.240297e-01    0.000000e+00
  1.243286e-01    0.000000e+00
  1.246276e-01    0.000000e+00
  1.249265e-01    0.000000e+00
  1.252254e-01    0.000000e+00
  1.255244e-01    0.000000e+00
  1.258233e-01    0.000000e+00
  1.261222e-01    0.000000e+00
  1.264212e-01    0.000000e+00
  1.267201e-01    0.000000e+00
  1.270190e-01    0.000000e+00
  1.273179e-01    0.000000e+00
  1.276169e-01    0.000000e+00
  1.279158e-01    0.000000e+00
  1.282147e-01    0.000000e+00
  1.285137e-01    0.000000e+00
  1.288126e-01    0.000000e+00
  1.291115e-01    0.000000e+00
  1.294105e-01    0.000000e+00
  1.297094e-01    0.000000e+00
  1.300083e-01    0.000000e+00
  1.303072e-01    0.000000e+00
  1.306062e-01    0.000000e+00
  1.309051e-01    0.000000e+00
  1.312040e-01    0.000000e+00
  1.315030e-01    0.000000e+00
  1.318019e-01    0.000000e+00
  1.321008e-01    0.000000e+00
  1.323998e-01    0.000000e+00
  1.326987e-01    0.000000e+00
  1.329976e-01    0.000000e+00
  1.332965e-01    0.000000e+00
  1.335955e-01    0.000000e+00
  1.338944e-01    0.000000e+00
  1.341933e-01    0.000000e+00
  1.344923e-01    0.000000e+00
  1.347912e-01    0.000000e+00
  1.350901e-01    0.000000e+00
  1.353891e-01    0.000000e+00
  1.356880e-01    0.000000e+00
  1.359869e-01    0.000000e+00
  1.362859e-01    0.000000e+00
  1.365848e-01    0.000000e+00
  1.368837e-01    0.000000e+00
  1.371826e-01    0.000000e+00
  1.374816e-01    0.000000e+00
  1.377805e-01    0.000000e+00
  1.380794e-01    0.000000e+00
  1.383784e-01    0.000000e+00
  1.386773e-01    0.000000e+00
  1.389762e-01    0.000000e+00
  1.392752e-01    0.000000e+00
  1.395741e-01    0.000000e+00
  1.398730e-01    0.000000e+00
  1.401719e-01    0.000000e+00
  1.404709e-01    0.000000e+00
  1.407698e-01    0.000000e+00
  1.410687e-01    0.000000e+00
  1.413677e-01    0.000000e+00
  1.416666e-01    0.000000e+00
  1.419655e-01    0.000000e+00
  1.422645e-01    0.000000e+00
  1.425634e-01    0.000000e+00
  1.428623e-01    0.000000e+00
  1.431613e-01    0.000000e+00
  1.434602e-01    0.000000e+00
  1.437591e-01    0.000000e+00
  1.440580e-01    0.000000e+00
  1.443570e-01    0.000000e+00
  1.446559e-01    0.000000e+00
  1.449548e-01    0.000000e+00
  1.452538e-01    0.000000e+00
  1.455527e-01    0.000000e+00
  1.458516e-01    0.000000e+00
  1.461506e-01    0.000000e+00
  1.464495e-01    0.000000e+00
  1.467484e-01    0.000000e+00
  1.470473e-01    0.000000e+00
  1.473463e-01    0.000000e+00
  1.476452e-01    0.000000e+00
  1.479441e-01    0.000000e+00
  1.482431e-01    0.000000e+00
  1.485420e-01    0.000000e+00
  1.488409e-01    0.000000e+00
  1.491399e-01    0.000000e+00
  1.494388e-01    0.000000e+00
  1.497377e-01    0.000000e+00
  1.500367e-01    0.000000e+00
  1.503356e-01    0.000000e+00
  1.506345e-01    0.000000e+00
  1.509334e-01    0.000000e+00
  1.512324e-01    0.000000e+00
  1.515313e-01    0.000000e+00
  1.518302e-01    0.000000e+00
  1.521292e-01    0.000000e+00
  1.524281e-01    0.000000e+00
  1.527270e-01    0.000000e+00
  1.530260e-01    0.000000e+00
  1.533249e-01    0.000000e+00
  1.536238e-01    0.000000e+00
