# == pyFAI calibration ==
# Distance Sample to Detector: 2.266 m
# PONI: 5.659e-02, 4.293e-02 m
# Rotations: 0.000000 0.000000 0.000000 rad
# 
# == Fit2d calibration ==
# Distance Sample-beamCenter: 2266.000 mm
# Center: x=249.594, y=329.012 pix
# Tilt: 0.000 deg  TiltPlanRot: 0.000 deg
# 
# Detector Pilatus 300k	 PixelSize= 1.720e-04, 1.720e-04 m
#    Detector has a mask: True 
#    Detector has a dark current: False 
#    detector has a flat field: False 
# 
# Wavelength: 1.27818e-10 m
# Mask applied: user provided
# Dark current applied: False
# Flat field applied: False
# Polarization factor: None
# Normalization factor: 2146.4300000000003
# --> latex_CL3252_TiO2_R706_phiT_0.010_PVC_1.000_DOP_0.000_2_r1d.csv
#        q_A^-1             I 
  4.457554e-03    6.670776e+01
  4.756484e-03    5.872223e+01
  5.055415e-03    4.909856e+01
  5.354345e-03    4.028297e+01
  5.653276e-03    3.418380e+01
  5.952206e-03    6.766535e+01
  6.251136e-03    6.276722e+01
  6.550067e-03    5.471122e+01
  6.848997e-03    4.578263e+01
  7.147927e-03    3.762817e+01
  7.446858e-03    3.110883e+01
  7.745788e-03    2.577769e+01
  8.044719e-03    2.146142e+01
  8.343649e-03    1.812449e+01
  8.642579e-03    1.534605e+01
  8.941510e-03    1.309217e+01
  9.240440e-03    1.124672e+01
  9.539371e-03    9.678778e+00
  9.838301e-03    8.363008e+00
  1.013723e-02    7.286004e+00
  1.043616e-02    6.374275e+00
  1.073509e-02    5.554055e+00
  1.103402e-02    4.889983e+00
  1.133295e-02    4.321144e+00
  1.163188e-02    3.845784e+00
  1.193081e-02    3.439749e+00
  1.222974e-02    3.080396e+00
  1.252867e-02    2.764073e+00
  1.282760e-02    2.492476e+00
  1.312654e-02    2.252797e+00
  1.342547e-02    2.042331e+00
  1.372440e-02    1.853266e+00
  1.402333e-02    1.684160e+00
  1.432226e-02    1.531488e+00
  1.462119e-02    1.397732e+00
  1.492012e-02    1.282525e+00
  1.521905e-02    1.172987e+00
  1.551798e-02    1.077492e+00
  1.581691e-02    9.895893e-01
  1.611584e-02    9.110987e-01
  1.641477e-02    8.402998e-01
  1.671370e-02    7.759441e-01
  1.701263e-02    7.191436e-01
  1.731156e-02    6.662259e-01
  1.761049e-02    6.178837e-01
  1.790942e-02    5.742978e-01
  1.820835e-02    5.332328e-01
  1.850728e-02    4.966034e-01
  1.880621e-02    4.632797e-01
  1.910514e-02    4.312408e-01
  1.940407e-02    4.016266e-01
  1.970300e-02    3.761746e-01
  2.000193e-02    3.530063e-01
  2.030086e-02    3.300990e-01
  2.059979e-02    3.094518e-01
  2.089873e-02    2.906476e-01
  2.119766e-02    2.727033e-01
  2.149659e-02    2.561842e-01
  2.179552e-02    2.417818e-01
  2.209445e-02    2.281073e-01
  2.239338e-02    2.154443e-01
  2.269231e-02    2.034612e-01
  2.299124e-02    1.903715e-01
  2.329017e-02    1.795683e-01
  2.358910e-02    1.708682e-01
  2.388803e-02    1.621139e-01
  2.418696e-02    1.532028e-01
  2.448589e-02    1.451507e-01
  2.478482e-02    1.370590e-01
  2.508375e-02    1.301378e-01
  2.538268e-02    1.238265e-01
  2.568161e-02    1.172911e-01
  2.598054e-02    1.114116e-01
  2.627947e-02    1.060831e-01
  2.657840e-02    1.009482e-01
  2.687733e-02    9.616282e-02
  2.717626e-02    9.148547e-02
  2.747519e-02    8.713066e-02
  2.777412e-02    8.315982e-02
  2.807305e-02    7.918565e-02
  2.837198e-02    7.597118e-02
  2.867092e-02    7.265108e-02
  2.896985e-02    6.918795e-02
  2.926878e-02    6.616151e-02
  2.956771e-02    6.330746e-02
  2.986664e-02    6.067391e-02
  3.016557e-02    5.785626e-02
  3.046450e-02    5.566468e-02
  3.076343e-02    5.350741e-02
  3.106236e-02    5.103027e-02
  3.136129e-02    4.899304e-02
  3.166022e-02    4.745772e-02
  3.195915e-02    4.556039e-02
  3.225808e-02    4.346236e-02
  3.255701e-02    4.178456e-02
  3.285594e-02    3.992116e-02
  3.315487e-02    3.830700e-02
  3.345380e-02    3.692768e-02
  3.375273e-02    3.558802e-02
  3.405166e-02    3.423460e-02
  3.435059e-02    3.305628e-02
  3.464952e-02    3.192478e-02
  3.494845e-02    3.067742e-02
  3.524738e-02    2.936389e-02
  3.554631e-02    2.844149e-02
  3.584524e-02    2.738841e-02
  3.614417e-02    2.633167e-02
  3.644310e-02    2.543432e-02
  3.674204e-02    2.447397e-02
  3.704097e-02    2.374049e-02
  3.733990e-02    2.302250e-02
  3.763883e-02    2.214574e-02
  3.793776e-02    2.135598e-02
  3.823669e-02    2.077307e-02
  3.853562e-02    2.007154e-02
  3.883455e-02    1.924943e-02
  3.913348e-02    1.874894e-02
  3.943241e-02    1.799740e-02
  3.973134e-02    1.754658e-02
  4.003027e-02    1.694849e-02
  4.032920e-02    1.654093e-02
  4.062813e-02    1.602335e-02
  4.092706e-02    1.540826e-02
  4.122599e-02    1.496367e-02
  4.152492e-02    1.455057e-02
  4.182385e-02    1.413083e-02
  4.212278e-02    1.359735e-02
  4.242171e-02    1.313384e-02
  4.272064e-02    1.287611e-02
  4.301957e-02    1.256003e-02
  4.331850e-02    1.219705e-02
  4.361743e-02    1.174118e-02
  4.391636e-02    1.146470e-02
  4.421529e-02    1.125173e-02
  4.451423e-02    1.099975e-02
  4.481316e-02    1.058720e-02
  4.511209e-02    1.030198e-02
  4.541102e-02    1.015320e-02
  4.570995e-02    9.901432e-03
  4.600888e-02    9.596258e-03
  4.630781e-02    9.280766e-03
  4.660674e-02    9.088296e-03
  4.690567e-02    8.898395e-03
  4.720460e-02    8.664269e-03
  4.750353e-02    8.387876e-03
  4.780246e-02    8.247907e-03
  4.810139e-02    8.044055e-03
  4.840032e-02    7.769437e-03
  4.869925e-02    7.668098e-03
  4.899818e-02    7.401043e-03
  4.929711e-02    7.187934e-03
  4.959604e-02    7.085705e-03
  4.989497e-02    7.023356e-03
  5.019390e-02    6.832458e-03
  5.049283e-02    6.708912e-03
  5.079176e-02    6.543030e-03
  5.109069e-02    6.454910e-03
  5.138962e-02    6.415081e-03
  5.168855e-02    6.286890e-03
  5.198748e-02    6.183217e-03
  5.228642e-02    6.126530e-03
  5.258535e-02    5.870473e-03
  5.288428e-02    5.678644e-03
  5.318321e-02    5.514174e-03
  5.348214e-02    5.382058e-03
  5.378107e-02    5.297914e-03
  5.408000e-02    5.232473e-03
  5.437893e-02    5.102628e-03
  5.467786e-02    4.929394e-03
  5.497679e-02    4.842842e-03
  5.527572e-02    4.778340e-03
  5.557465e-02    4.701674e-03
  5.587358e-02    4.595459e-03
  5.617251e-02    4.474264e-03
  5.647144e-02    4.412864e-03
  5.677037e-02    4.373935e-03
  5.706930e-02    4.303890e-03
  5.736823e-02    4.182190e-03
  5.766716e-02    4.159176e-03
  5.796609e-02    4.076832e-03
  5.826502e-02    4.028200e-03
  5.856395e-02    3.977232e-03
  5.886288e-02    3.851013e-03
  5.916181e-02    3.761388e-03
  5.946074e-02    3.707341e-03
  5.975967e-02    3.677993e-03
  6.005861e-02    3.605178e-03
  6.035754e-02    3.611428e-03
  6.065647e-02    3.577471e-03
  6.095540e-02    3.492770e-03
  6.125433e-02    3.541759e-03
  6.155326e-02    3.507092e-03
  6.185219e-02    3.392086e-03
  6.215112e-02    3.315611e-03
  6.245005e-02    3.261656e-03
  6.274898e-02    3.178326e-03
  6.304791e-02    3.115721e-03
  6.334684e-02    3.092866e-03
  6.364577e-02    3.029842e-03
  6.394470e-02    2.965168e-03
  6.424363e-02    2.924940e-03
  6.454256e-02    2.869647e-03
  6.484149e-02    2.813551e-03
  6.514042e-02    2.804757e-03
  6.543935e-02    2.811277e-03
  6.573828e-02    2.809687e-03
  6.603721e-02    2.756418e-03
  6.633614e-02    2.709428e-03
  6.663507e-02    2.726229e-03
  6.693400e-02    2.689376e-03
  6.723293e-02    2.601232e-03
  6.753186e-02    2.614736e-03
  6.783080e-02    2.596637e-03
  6.812973e-02    2.484892e-03
  6.842866e-02    2.418789e-03
  6.872759e-02    2.445271e-03
  6.902652e-02    2.437421e-03
  6.932545e-02    2.404096e-03
  6.962438e-02    2.368870e-03
  6.992331e-02    2.354767e-03
  7.022224e-02    2.290912e-03
  7.052117e-02    2.269252e-03
  7.082010e-02    2.277164e-03
  7.111903e-02    2.246238e-03
  7.141796e-02    2.260113e-03
  7.171689e-02    2.274312e-03
  7.201582e-02    2.208569e-03
  7.231475e-02    2.198634e-03
  7.261368e-02    2.174445e-03
  7.291261e-02    2.144550e-03
  7.321154e-02    2.098073e-03
  7.351047e-02    2.056046e-03
  7.380940e-02    2.037636e-03
  7.410833e-02    2.039858e-03
  7.440726e-02    2.002168e-03
  7.470619e-02    2.033180e-03
  7.500512e-02    2.023322e-03
  7.530405e-02    1.965699e-03
  7.560299e-02    1.945108e-03
  7.590192e-02    1.953009e-03
  7.620085e-02    1.927594e-03
  7.649978e-02    1.891384e-03
  7.679871e-02    1.876967e-03
  7.709764e-02    1.853921e-03
  7.739657e-02    1.849920e-03
  7.769550e-02    1.827264e-03
  7.799443e-02    1.805342e-03
  7.829336e-02    1.826164e-03
  7.859229e-02    1.802101e-03
  7.889122e-02    1.753685e-03
  7.919015e-02    1.743708e-03
  7.948908e-02    1.744130e-03
  7.978801e-02    1.734957e-03
  8.008694e-02    1.751329e-03
  8.038587e-02    1.716158e-03
  8.068480e-02    1.675123e-03
  8.098373e-02    1.656732e-03
  8.128266e-02    1.671780e-03
  8.158159e-02    1.700720e-03
  8.188052e-02    1.661811e-03
  8.217945e-02    1.625651e-03
  8.247838e-02    1.638243e-03
  8.277731e-02    1.607966e-03
  8.307624e-02    1.562803e-03
  8.337518e-02    1.535197e-03
  8.367411e-02    1.541400e-03
  8.397304e-02    1.560615e-03
  8.427197e-02    1.512018e-03
  8.457090e-02    1.481593e-03
  8.486983e-02    1.496903e-03
  8.516876e-02    1.486389e-03
  8.546769e-02    1.460549e-03
  8.576662e-02    1.454500e-03
  8.606555e-02    1.424295e-03
  8.636448e-02    1.395959e-03
  8.666341e-02    1.385330e-03
  8.696234e-02    1.383295e-03
  8.726127e-02    1.371416e-03
  8.756020e-02    1.374636e-03
  8.785913e-02    1.364933e-03
  8.815806e-02    1.334385e-03
  8.845699e-02    1.338254e-03
  8.875592e-02    1.334039e-03
  8.905485e-02    1.309906e-03
  8.935378e-02    1.296518e-03
  8.965271e-02    1.266866e-03
  8.995164e-02    1.262593e-03
  9.025057e-02    1.295983e-03
  9.054950e-02    1.272265e-03
  9.084843e-02    1.213326e-03
  9.114737e-02    1.206893e-03
  9.144630e-02    1.218321e-03
  9.174523e-02    1.200821e-03
  9.204416e-02    1.174631e-03
  9.234309e-02    1.177235e-03
  9.264202e-02    1.172909e-03
  9.294095e-02    1.156178e-03
  9.323988e-02    1.176646e-03
  9.353881e-02    1.174012e-03
  9.383774e-02    1.158449e-03
  9.413667e-02    1.161454e-03
  9.443560e-02    1.159669e-03
  9.473453e-02    1.166569e-03
  9.503346e-02    1.152264e-03
  9.533239e-02    1.151735e-03
  9.563132e-02    1.148891e-03
  9.593025e-02    1.131728e-03
  9.622918e-02    1.158914e-03
  9.652811e-02    1.138224e-03
  9.682704e-02    1.123259e-03
  9.712597e-02    1.121340e-03
  9.742490e-02    1.108162e-03
  9.772383e-02    1.100254e-03
  9.802276e-02    1.081322e-03
  9.832169e-02    1.066762e-03
  9.862062e-02    1.077644e-03
  9.891956e-02    1.051930e-03
  9.921849e-02    1.051489e-03
  9.951742e-02    1.031650e-03
  9.981635e-02    1.004718e-03
  1.001153e-01    9.940485e-04
  1.004142e-01    1.000008e-03
  1.007131e-01    9.920069e-04
  1.010121e-01    9.900123e-04
  1.013110e-01    9.868068e-04
  1.016099e-01    9.663512e-04
  1.019089e-01    9.845513e-04
  1.022078e-01    9.448542e-04
  1.025067e-01    9.506823e-04
  1.028057e-01    9.698922e-04
  1.031046e-01    9.477135e-04
  1.034035e-01    9.065690e-04
  1.037024e-01    8.966734e-04
  1.040014e-01    9.132096e-04
  1.043003e-01    8.943706e-04
  1.045992e-01    8.823662e-04
  1.048982e-01    8.791388e-04
  1.051971e-01    8.833901e-04
  1.054960e-01    8.939058e-04
  1.057950e-01    8.815375e-04
  1.060939e-01    8.723648e-04
  1.063928e-01    8.883444e-04
  1.066917e-01    9.101879e-04
  1.069907e-01    9.088209e-04
  1.072896e-01    8.899253e-04
  1.075885e-01    8.885422e-04
  1.078875e-01    8.603724e-04
  1.081864e-01    8.701164e-04
  1.084853e-01    8.690882e-04
  1.087843e-01    8.321963e-04
  1.090832e-01    8.270156e-04
  1.093821e-01    8.491246e-04
  1.096810e-01    8.637421e-04
  1.099800e-01    8.534547e-04
  1.102789e-01    8.298536e-04
  1.105778e-01    8.176570e-04
  1.108768e-01    8.216437e-04
  1.111757e-01    7.928424e-04
  1.114746e-01    7.949960e-04
  1.117736e-01    8.044622e-04
  1.120725e-01    8.113463e-04
  1.123714e-01    8.140730e-04
  1.126704e-01    8.304199e-04
  1.129693e-01    8.116971e-04
  1.132682e-01    7.903374e-04
  1.135671e-01    7.638158e-04
  1.138661e-01    7.855193e-04
  1.141650e-01    7.518507e-04
  1.144639e-01    6.791273e-04
  1.147629e-01    6.384440e-04
  1.150618e-01    6.780304e-04
  1.153607e-01    6.976797e-04
  1.156597e-01    6.586161e-04
  1.159586e-01    6.640645e-04
  1.162575e-01    6.875691e-04
  1.165564e-01    6.778977e-04
  1.168554e-01    6.390323e-04
  1.171543e-01    6.627592e-04
  1.174532e-01    7.220438e-04
  1.177522e-01    7.299742e-04
  1.180511e-01    7.430827e-04
  1.183500e-01    7.299334e-04
  1.186490e-01    6.940041e-04
  1.189479e-01    7.036775e-04
  1.192468e-01    7.239743e-04
  1.195458e-01    6.990508e-04
  1.198447e-01    6.817743e-04
  1.201436e-01    6.643122e-04
  1.204425e-01    7.934030e-04
  1.207415e-01    6.424832e-04
  1.210404e-01    4.663119e-04
  1.213393e-01    0.000000e+00
  1.216383e-01    0.000000e+00
  1.219372e-01    0.000000e+00
  1.222361e-01    0.000000e+00
  1.225351e-01    0.000000e+00
  1.228340e-01    0.000000e+00
  1.231329e-01    0.000000e+00
  1.234318e-01    0.000000e+00
  1.237308e-01    0.000000e+00
  1.240297e-01    0.000000e+00
  1.243286e-01    0.000000e+00
  1.246276e-01    0.000000e+00
  1.249265e-01    0.000000e+00
  1.252254e-01    0.000000e+00
  1.255244e-01    0.000000e+00
  1.258233e-01    0.000000e+00
  1.261222e-01    0.000000e+00
  1.264212e-01    0.000000e+00
  1.267201e-01    0.000000e+00
  1.270190e-01    0.000000e+00
  1.273179e-01    0.000000e+00
  1.276169e-01    0.000000e+00
  1.279158e-01    0.000000e+00
  1.282147e-01    0.000000e+00
  1.285137e-01    0.000000e+00
  1.288126e-01    0.000000e+00
  1.291115e-01    0.000000e+00
  1.294105e-01    0.000000e+00
  1.297094e-01    0.000000e+00
  1.300083e-01    0.000000e+00
  1.303072e-01    0.000000e+00
  1.306062e-01    0.000000e+00
  1.309051e-01    0.000000e+00
  1.312040e-01    0.000000e+00
  1.315030e-01    0.000000e+00
  1.318019e-01    0.000000e+00
  1.321008e-01    0.000000e+00
  1.323998e-01    0.000000e+00
  1.326987e-01    0.000000e+00
  1.329976e-01    0.000000e+00
  1.332965e-01    0.000000e+00
  1.335955e-01    0.000000e+00
  1.338944e-01    0.000000e+00
  1.341933e-01    0.000000e+00
  1.344923e-01    0.000000e+00
  1.347912e-01    0.000000e+00
  1.350901e-01    0.000000e+00
  1.353891e-01    0.000000e+00
  1.356880e-01    0.000000e+00
  1.359869e-01    0.000000e+00
  1.362859e-01    0.000000e+00
  1.365848e-01    0.000000e+00
  1.368837e-01    0.000000e+00
  1.371826e-01    0.000000e+00
  1.374816e-01    0.000000e+00
  1.377805e-01    0.000000e+00
  1.380794e-01    0.000000e+00
  1.383784e-01    0.000000e+00
  1.386773e-01    0.000000e+00
  1.389762e-01    0.000000e+00
  1.392752e-01    0.000000e+00
  1.395741e-01    0.000000e+00
  1.398730e-01    0.000000e+00
  1.401719e-01    0.000000e+00
  1.404709e-01    0.000000e+00
  1.407698e-01    0.000000e+00
  1.410687e-01    0.000000e+00
  1.413677e-01    0.000000e+00
  1.416666e-01    0.000000e+00
  1.419655e-01    0.000000e+00
  1.422645e-01    0.000000e+00
  1.425634e-01    0.000000e+00
  1.428623e-01    0.000000e+00
  1.431613e-01    0.000000e+00
  1.434602e-01    0.000000e+00
  1.437591e-01    0.000000e+00
  1.440580e-01    0.000000e+00
  1.443570e-01    0.000000e+00
  1.446559e-01    0.000000e+00
  1.449548e-01    0.000000e+00
  1.452538e-01    0.000000e+00
  1.455527e-01    0.000000e+00
  1.458516e-01    0.000000e+00
  1.461506e-01    0.000000e+00
  1.464495e-01    0.000000e+00
  1.467484e-01    0.000000e+00
  1.470473e-01    0.000000e+00
  1.473463e-01    0.000000e+00
  1.476452e-01    0.000000e+00
  1.479441e-01    0.000000e+00
  1.482431e-01    0.000000e+00
  1.485420e-01    0.000000e+00
  1.488409e-01    0.000000e+00
  1.491399e-01    0.000000e+00
  1.494388e-01    0.000000e+00
  1.497377e-01    0.000000e+00
  1.500367e-01    0.000000e+00
  1.503356e-01    0.000000e+00
  1.506345e-01    0.000000e+00
  1.509334e-01    0.000000e+00
  1.512324e-01    0.000000e+00
  1.515313e-01    0.000000e+00
  1.518302e-01    0.000000e+00
  1.521292e-01    0.000000e+00
  1.524281e-01    0.000000e+00
  1.527270e-01    0.000000e+00
  1.530260e-01    0.000000e+00
  1.533249e-01    0.000000e+00
  1.536238e-01    0.000000e+00
