# == pyFAI calibration ==
# Distance Sample to Detector: 2.266 m
# PONI: 5.659e-02, 4.293e-02 m
# Rotations: 0.000000 0.000000 0.000000 rad
# 
# == Fit2d calibration ==
# Distance Sample-beamCenter: 2266.000 mm
# Center: x=249.594, y=329.012 pix
# Tilt: 0.000 deg  TiltPlanRot: 0.000 deg
# 
# Detector Pilatus 300k	 PixelSize= 1.720e-04, 1.720e-04 m
#    Detector has a mask: True 
#    Detector has a dark current: False 
#    detector has a flat field: False 
# 
# Wavelength: 1.27818e-10 m
# Mask applied: user provided
# Dark current applied: False
# Flat field applied: False
# Polarization factor: None
# Normalization factor: 17040.3
# --> latex_CL3252_TiO2_R706_phiT_0.070_PVC_0.600_DOP_0.015_1_r1d.csv
#        q_A^-1             I 
  4.457554e-03    4.412958e-02
  4.756484e-03    3.528047e-02
  5.055415e-03    2.436693e-02
  5.354345e-03    1.685990e-02
  5.653276e-03    1.290997e-02
  5.952206e-03    2.084831e-02
  6.251136e-03    1.910627e-02
  6.550067e-03    1.652772e-02
  6.848997e-03    1.393881e-02
  7.147927e-03    1.184933e-02
  7.446858e-03    1.015059e-02
  7.745788e-03    8.637656e-03
  8.044719e-03    7.418795e-03
  8.343649e-03    6.525099e-03
  8.642579e-03    5.685004e-03
  8.941510e-03    4.932203e-03
  9.240440e-03    4.333066e-03
  9.539371e-03    3.799517e-03
  9.838301e-03    3.361040e-03
  1.013723e-02    3.016374e-03
  1.043616e-02    2.730795e-03
  1.073509e-02    2.464673e-03
  1.103402e-02    2.231993e-03
  1.133295e-02    2.010152e-03
  1.163188e-02    1.815327e-03
  1.193081e-02    1.648934e-03
  1.222974e-02    1.519160e-03
  1.252867e-02    1.394525e-03
  1.282760e-02    1.298706e-03
  1.312654e-02    1.207057e-03
  1.342547e-02    1.121752e-03
  1.372440e-02    1.019105e-03
  1.402333e-02    9.437006e-04
  1.432226e-02    8.941741e-04
  1.462119e-02    8.252283e-04
  1.492012e-02    7.710746e-04
  1.521905e-02    7.150788e-04
  1.551798e-02    6.602593e-04
  1.581691e-02    6.189210e-04
  1.611584e-02    5.885115e-04
  1.641477e-02    5.525888e-04
  1.671370e-02    5.189457e-04
  1.701263e-02    4.843381e-04
  1.731156e-02    4.562832e-04
  1.761049e-02    4.233349e-04
  1.790942e-02    4.072093e-04
  1.820835e-02    3.901443e-04
  1.850728e-02    3.817512e-04
  1.880621e-02    3.664840e-04
  1.910514e-02    3.390972e-04
  1.940407e-02    3.274154e-04
  1.970300e-02    3.167837e-04
  2.000193e-02    3.117649e-04
  2.030086e-02    2.972958e-04
  2.059979e-02    2.845052e-04
  2.089873e-02    2.747109e-04
  2.119766e-02    2.672567e-04
  2.149659e-02    2.595200e-04
  2.179552e-02    2.588160e-04
  2.209445e-02    2.527967e-04
  2.239338e-02    2.327664e-04
  2.269231e-02    2.261255e-04
  2.299124e-02    2.210605e-04
  2.329017e-02    2.135486e-04
  2.358910e-02    2.116905e-04
  2.388803e-02    2.102143e-04
  2.418696e-02    2.077735e-04
  2.448589e-02    2.014183e-04
  2.478482e-02    1.910209e-04
  2.508375e-02    1.927231e-04
  2.538268e-02    1.920353e-04
  2.568161e-02    1.830197e-04
  2.598054e-02    1.828726e-04
  2.627947e-02    1.749021e-04
  2.657840e-02    1.743757e-04
  2.687733e-02    1.676681e-04
  2.717626e-02    1.618520e-04
  2.747519e-02    1.616900e-04
  2.777412e-02    1.607313e-04
  2.807305e-02    1.614658e-04
  2.837198e-02    1.592797e-04
  2.867092e-02    1.539586e-04
  2.896985e-02    1.513011e-04
  2.926878e-02    1.539725e-04
  2.956771e-02    1.536025e-04
  2.986664e-02    1.496283e-04
  3.016557e-02    1.510896e-04
  3.046450e-02    1.463592e-04
  3.076343e-02    1.335820e-04
  3.106236e-02    1.385337e-04
  3.136129e-02    1.407132e-04
  3.166022e-02    1.372244e-04
  3.195915e-02    1.294350e-04
  3.225808e-02    1.314991e-04
  3.255701e-02    1.387068e-04
  3.285594e-02    1.363511e-04
  3.315487e-02    1.357734e-04
  3.345380e-02    1.343018e-04
  3.375273e-02    1.339316e-04
  3.405166e-02    1.378442e-04
  3.435059e-02    1.382138e-04
  3.464952e-02    1.285969e-04
  3.494845e-02    1.227775e-04
  3.524738e-02    1.230793e-04
  3.554631e-02    1.214922e-04
  3.584524e-02    1.216104e-04
  3.614417e-02    1.190398e-04
  3.644310e-02    1.198213e-04
  3.674204e-02    1.179827e-04
  3.704097e-02    1.130825e-04
  3.733990e-02    1.144787e-04
  3.763883e-02    1.151081e-04
  3.793776e-02    1.141758e-04
  3.823669e-02    1.145490e-04
  3.853562e-02    1.152638e-04
  3.883455e-02    1.119406e-04
  3.913348e-02    1.141782e-04
  3.943241e-02    1.117459e-04
  3.973134e-02    1.107290e-04
  4.003027e-02    1.106127e-04
  4.032920e-02    1.085629e-04
  4.062813e-02    1.048100e-04
  4.092706e-02    1.070238e-04
  4.122599e-02    1.082705e-04
  4.152492e-02    1.081638e-04
  4.182385e-02    1.054176e-04
  4.212278e-02    1.062369e-04
  4.242171e-02    1.107489e-04
  4.272064e-02    1.094041e-04
  4.301957e-02    1.102473e-04
  4.331850e-02    1.094782e-04
  4.361743e-02    1.058961e-04
  4.391636e-02    1.021333e-04
  4.421529e-02    9.993827e-05
  4.451423e-02    1.009735e-04
  4.481316e-02    1.017921e-04
  4.511209e-02    1.008945e-04
  4.541102e-02    1.052048e-04
  4.570995e-02    1.059062e-04
  4.600888e-02    1.062421e-04
  4.630781e-02    1.064590e-04
  4.660674e-02    1.033980e-04
  4.690567e-02    1.039272e-04
  4.720460e-02    1.021249e-04
  4.750353e-02    9.926093e-05
  4.780246e-02    1.002439e-04
  4.810139e-02    1.019943e-04
  4.840032e-02    9.889114e-05
  4.869925e-02    9.819569e-05
  4.899818e-02    9.739236e-05
  4.929711e-02    9.730900e-05
  4.959604e-02    1.005662e-04
  4.989497e-02    1.030641e-04
  5.019390e-02    1.026000e-04
  5.049283e-02    1.005124e-04
  5.079176e-02    1.022502e-04
  5.109069e-02    1.028880e-04
  5.138962e-02    1.077045e-04
  5.168855e-02    1.078975e-04
  5.198748e-02    1.079889e-04
  5.228642e-02    1.064794e-04
  5.258535e-02    1.032079e-04
  5.288428e-02    1.004188e-04
  5.318321e-02    9.962693e-05
  5.348214e-02    9.773328e-05
  5.378107e-02    1.023184e-04
  5.408000e-02    1.034461e-04
  5.437893e-02    1.011708e-04
  5.467786e-02    1.004613e-04
  5.497679e-02    1.004889e-04
  5.527572e-02    1.045735e-04
  5.557465e-02    1.030776e-04
  5.587358e-02    1.031988e-04
  5.617251e-02    1.051977e-04
  5.647144e-02    9.783537e-05
  5.677037e-02    9.707876e-05
  5.706930e-02    1.000822e-04
  5.736823e-02    1.013643e-04
  5.766716e-02    1.019136e-04
  5.796609e-02    1.022161e-04
  5.826502e-02    1.009690e-04
  5.856395e-02    1.022458e-04
  5.886288e-02    1.010818e-04
  5.916181e-02    1.000892e-04
  5.946074e-02    1.000456e-04
  5.975967e-02    1.008695e-04
  6.005861e-02    1.034630e-04
  6.035754e-02    1.051804e-04
  6.065647e-02    1.038155e-04
  6.095540e-02    1.024991e-04
  6.125433e-02    1.023280e-04
  6.155326e-02    1.063376e-04
  6.185219e-02    1.042246e-04
  6.215112e-02    1.020444e-04
  6.245005e-02    1.049109e-04
  6.274898e-02    1.025419e-04
  6.304791e-02    1.016942e-04
  6.334684e-02    1.017120e-04
  6.364577e-02    1.036194e-04
  6.394470e-02    1.013732e-04
  6.424363e-02    1.010346e-04
  6.454256e-02    1.018278e-04
  6.484149e-02    1.057320e-04
  6.514042e-02    1.048342e-04
  6.543935e-02    1.038673e-04
  6.573828e-02    1.035469e-04
  6.603721e-02    1.055450e-04
  6.633614e-02    1.086040e-04
  6.663507e-02    1.038051e-04
  6.693400e-02    1.005837e-04
  6.723293e-02    1.026871e-04
  6.753186e-02    1.040535e-04
  6.783080e-02    1.048357e-04
  6.812973e-02    1.049964e-04
  6.842866e-02    1.078571e-04
  6.872759e-02    1.070248e-04
  6.902652e-02    1.043423e-04
  6.932545e-02    1.046415e-04
  6.962438e-02    1.080637e-04
  6.992331e-02    1.083095e-04
  7.022224e-02    1.057505e-04
  7.052117e-02    1.026535e-04
  7.082010e-02    1.053668e-04
  7.111903e-02    1.054385e-04
  7.141796e-02    1.059291e-04
  7.171689e-02    1.063192e-04
  7.201582e-02    1.087729e-04
  7.231475e-02    1.092524e-04
  7.261368e-02    1.072774e-04
  7.291261e-02    1.096841e-04
  7.321154e-02    1.083919e-04
  7.351047e-02    1.068795e-04
  7.380940e-02    1.060101e-04
  7.410833e-02    1.036075e-04
  7.440726e-02    1.084950e-04
  7.470619e-02    1.103194e-04
  7.500512e-02    1.066965e-04
  7.530405e-02    1.056831e-04
  7.560299e-02    1.058814e-04
  7.590192e-02    1.066721e-04
  7.620085e-02    1.041222e-04
  7.649978e-02    1.056552e-04
  7.679871e-02    1.049938e-04
  7.709764e-02    1.040153e-04
  7.739657e-02    1.068796e-04
  7.769550e-02    1.078672e-04
  7.799443e-02    1.073304e-04
  7.829336e-02    1.067037e-04
  7.859229e-02    1.056733e-04
  7.889122e-02    1.048534e-04
  7.919015e-02    1.057588e-04
  7.948908e-02    1.050506e-04
  7.978801e-02    1.059677e-04
  8.008694e-02    1.050022e-04
  8.038587e-02    1.071203e-04
  8.068480e-02    1.064157e-04
  8.098373e-02    1.070434e-04
  8.128266e-02    1.033555e-04
  8.158159e-02    1.022101e-04
  8.188052e-02    1.045115e-04
  8.217945e-02    1.038232e-04
  8.247838e-02    1.033002e-04
  8.277731e-02    1.045163e-04
  8.307624e-02    1.061844e-04
  8.337518e-02    1.028644e-04
  8.367411e-02    1.035660e-04
  8.397304e-02    1.023783e-04
  8.427197e-02    1.035056e-04
  8.457090e-02    1.045720e-04
  8.486983e-02    1.047457e-04
  8.516876e-02    1.037533e-04
  8.546769e-02    1.053989e-04
  8.576662e-02    1.042625e-04
  8.606555e-02    1.047760e-04
  8.636448e-02    1.039327e-04
  8.666341e-02    1.014737e-04
  8.696234e-02    1.011327e-04
  8.726127e-02    1.008455e-04
  8.756020e-02    1.001929e-04
  8.785913e-02    9.936311e-05
  8.815806e-02    1.018420e-04
  8.845699e-02    1.022689e-04
  8.875592e-02    1.003379e-04
  8.905485e-02    9.949758e-05
  8.935378e-02    9.970434e-05
  8.965271e-02    1.016222e-04
  8.995164e-02    9.911741e-05
  9.025057e-02    9.658399e-05
  9.054950e-02    9.746196e-05
  9.084843e-02    9.775264e-05
  9.114737e-02    9.888876e-05
  9.144630e-02    9.880866e-05
  9.174523e-02    1.008879e-04
  9.204416e-02    1.043591e-04
  9.234309e-02    1.012929e-04
  9.264202e-02    1.007080e-04
  9.294095e-02    1.000418e-04
  9.323988e-02    1.001998e-04
  9.353881e-02    1.004228e-04
  9.383774e-02    9.752665e-05
  9.413667e-02    9.825372e-05
  9.443560e-02    1.014715e-04
  9.473453e-02    9.990570e-05
  9.503346e-02    9.568517e-05
  9.533239e-02    9.366499e-05
  9.563132e-02    9.601859e-05
  9.593025e-02    9.708702e-05
  9.622918e-02    1.004094e-04
  9.652811e-02    1.002769e-04
  9.682704e-02    9.896148e-05
  9.712597e-02    9.707431e-05
  9.742490e-02    9.733258e-05
  9.772383e-02    9.672478e-05
  9.802276e-02    9.297232e-05
  9.832169e-02    9.541662e-05
  9.862062e-02    9.701463e-05
  9.891956e-02    9.620843e-05
  9.921849e-02    9.591073e-05
  9.951742e-02    9.351365e-05
  9.981635e-02    8.968280e-05
  1.001153e-01    9.150640e-05
  1.004142e-01    9.218829e-05
  1.007131e-01    9.327538e-05
  1.010121e-01    9.267227e-05
  1.013110e-01    9.024770e-05
  1.016099e-01    9.199670e-05
  1.019089e-01    9.253907e-05
  1.022078e-01    9.411476e-05
  1.025067e-01    9.390803e-05
  1.028057e-01    9.203650e-05
  1.031046e-01    8.924483e-05
  1.034035e-01    8.934822e-05
  1.037024e-01    9.415890e-05
  1.040014e-01    9.309275e-05
  1.043003e-01    9.075756e-05
  1.045992e-01    9.253628e-05
  1.048982e-01    9.061032e-05
  1.051971e-01    8.940787e-05
  1.054960e-01    9.140783e-05
  1.057950e-01    9.060214e-05
  1.060939e-01    9.202304e-05
  1.063928e-01    9.064315e-05
  1.066917e-01    8.814601e-05
  1.069907e-01    8.796207e-05
  1.072896e-01    8.915449e-05
  1.075885e-01    8.921046e-05
  1.078875e-01    8.899250e-05
  1.081864e-01    8.727139e-05
  1.084853e-01    8.828026e-05
  1.087843e-01    9.128478e-05
  1.090832e-01    9.124974e-05
  1.093821e-01    8.989240e-05
  1.096810e-01    8.451595e-05
  1.099800e-01    8.397509e-05
  1.102789e-01    8.857540e-05
  1.105778e-01    8.762260e-05
  1.108768e-01    8.931066e-05
  1.111757e-01    9.005156e-05
  1.114746e-01    8.535520e-05
  1.117736e-01    8.648036e-05
  1.120725e-01    8.691217e-05
  1.123714e-01    8.438958e-05
  1.126704e-01    8.536783e-05
  1.129693e-01    8.372230e-05
  1.132682e-01    8.335099e-05
  1.135671e-01    8.666395e-05
  1.138661e-01    8.515418e-05
  1.141650e-01    7.880646e-05
  1.144639e-01    8.393154e-05
  1.147629e-01    8.633285e-05
  1.150618e-01    8.681779e-05
  1.153607e-01    8.699278e-05
  1.156597e-01    8.206405e-05
  1.159586e-01    8.241832e-05
  1.162575e-01    8.620013e-05
  1.165564e-01    8.722170e-05
  1.168554e-01    8.864743e-05
  1.171543e-01    9.215577e-05
  1.174532e-01    8.445843e-05
  1.177522e-01    7.694191e-05
  1.180511e-01    8.253646e-05
  1.183500e-01    8.707746e-05
  1.186490e-01    9.232252e-05
  1.189479e-01    8.589055e-05
  1.192468e-01    8.213679e-05
  1.195458e-01    8.390652e-05
  1.198447e-01    8.053338e-05
  1.201436e-01    8.936484e-05
  1.204425e-01    1.047637e-04
  1.207415e-01    6.809372e-05
  1.210404e-01    5.873757e-05
  1.213393e-01    0.000000e+00
  1.216383e-01    0.000000e+00
  1.219372e-01    0.000000e+00
  1.222361e-01    0.000000e+00
  1.225351e-01    0.000000e+00
  1.228340e-01    0.000000e+00
  1.231329e-01    0.000000e+00
  1.234318e-01    0.000000e+00
  1.237308e-01    0.000000e+00
  1.240297e-01    0.000000e+00
  1.243286e-01    0.000000e+00
  1.246276e-01    0.000000e+00
  1.249265e-01    0.000000e+00
  1.252254e-01    0.000000e+00
  1.255244e-01    0.000000e+00
  1.258233e-01    0.000000e+00
  1.261222e-01    0.000000e+00
  1.264212e-01    0.000000e+00
  1.267201e-01    0.000000e+00
  1.270190e-01    0.000000e+00
  1.273179e-01    0.000000e+00
  1.276169e-01    0.000000e+00
  1.279158e-01    0.000000e+00
  1.282147e-01    0.000000e+00
  1.285137e-01    0.000000e+00
  1.288126e-01    0.000000e+00
  1.291115e-01    0.000000e+00
  1.294105e-01    0.000000e+00
  1.297094e-01    0.000000e+00
  1.300083e-01    0.000000e+00
  1.303072e-01    0.000000e+00
  1.306062e-01    0.000000e+00
  1.309051e-01    0.000000e+00
  1.312040e-01    0.000000e+00
  1.315030e-01    0.000000e+00
  1.318019e-01    0.000000e+00
  1.321008e-01    0.000000e+00
  1.323998e-01    0.000000e+00
  1.326987e-01    0.000000e+00
  1.329976e-01    0.000000e+00
  1.332965e-01    0.000000e+00
  1.335955e-01    0.000000e+00
  1.338944e-01    0.000000e+00
  1.341933e-01    0.000000e+00
  1.344923e-01    0.000000e+00
  1.347912e-01    0.000000e+00
  1.350901e-01    0.000000e+00
  1.353891e-01    0.000000e+00
  1.356880e-01    0.000000e+00
  1.359869e-01    0.000000e+00
  1.362859e-01    0.000000e+00
  1.365848e-01    0.000000e+00
  1.368837e-01    0.000000e+00
  1.371826e-01    0.000000e+00
  1.374816e-01    0.000000e+00
  1.377805e-01    0.000000e+00
  1.380794e-01    0.000000e+00
  1.383784e-01    0.000000e+00
  1.386773e-01    0.000000e+00
  1.389762e-01    0.000000e+00
  1.392752e-01    0.000000e+00
  1.395741e-01    0.000000e+00
  1.398730e-01    0.000000e+00
  1.401719e-01    0.000000e+00
  1.404709e-01    0.000000e+00
  1.407698e-01    0.000000e+00
  1.410687e-01    0.000000e+00
  1.413677e-01    0.000000e+00
  1.416666e-01    0.000000e+00
  1.419655e-01    0.000000e+00
  1.422645e-01    0.000000e+00
  1.425634e-01    0.000000e+00
  1.428623e-01    0.000000e+00
  1.431613e-01    0.000000e+00
  1.434602e-01    0.000000e+00
  1.437591e-01    0.000000e+00
  1.440580e-01    0.000000e+00
  1.443570e-01    0.000000e+00
  1.446559e-01    0.000000e+00
  1.449548e-01    0.000000e+00
  1.452538e-01    0.000000e+00
  1.455527e-01    0.000000e+00
  1.458516e-01    0.000000e+00
  1.461506e-01    0.000000e+00
  1.464495e-01    0.000000e+00
  1.467484e-01    0.000000e+00
  1.470473e-01    0.000000e+00
  1.473463e-01    0.000000e+00
  1.476452e-01    0.000000e+00
  1.479441e-01    0.000000e+00
  1.482431e-01    0.000000e+00
  1.485420e-01    0.000000e+00
  1.488409e-01    0.000000e+00
  1.491399e-01    0.000000e+00
  1.494388e-01    0.000000e+00
  1.497377e-01    0.000000e+00
  1.500367e-01    0.000000e+00
  1.503356e-01    0.000000e+00
  1.506345e-01    0.000000e+00
  1.509334e-01    0.000000e+00
  1.512324e-01    0.000000e+00
  1.515313e-01    0.000000e+00
  1.518302e-01    0.000000e+00
  1.521292e-01    0.000000e+00
  1.524281e-01    0.000000e+00
  1.527270e-01    0.000000e+00
  1.530260e-01    0.000000e+00
  1.533249e-01    0.000000e+00
  1.536238e-01    0.000000e+00
