# == pyFAI calibration ==
# Distance Sample to Detector: 2.266 m
# PONI: 5.659e-02, 4.293e-02 m
# Rotations: 0.000000 0.000000 0.000000 rad
# 
# == Fit2d calibration ==
# Distance Sample-beamCenter: 2266.000 mm
# Center: x=249.594, y=329.012 pix
# Tilt: 0.000 deg  TiltPlanRot: 0.000 deg
# 
# Detector Pilatus 300k	 PixelSize= 1.720e-04, 1.720e-04 m
#    Detector has a mask: True 
#    Detector has a dark current: False 
#    detector has a flat field: False 
# 
# Wavelength: 1.27818e-10 m
# Mask applied: user provided
# Dark current applied: False
# Flat field applied: False
# Polarization factor: None
# Normalization factor: 68654.95
# --> latex_CL3252_TiO2_R706_phiT_0.110_PVC_0.400_DOP_0.000_1_r1d.csv
#        q_A^-1             I 
  4.457554e-03    1.265539e+00
  4.756484e-03    1.109159e+00
  5.055415e-03    9.266315e-01
  5.354345e-03    7.635118e-01
  5.653276e-03    6.484737e-01
  5.952206e-03    1.112167e+00
  6.251136e-03    1.026380e+00
  6.550067e-03    8.954583e-01
  6.848997e-03    7.538610e-01
  7.147927e-03    6.260536e-01
  7.446858e-03    5.241657e-01
  7.745788e-03    4.399585e-01
  8.044719e-03    3.705204e-01
  8.343649e-03    3.160205e-01
  8.642579e-03    2.708313e-01
  8.941510e-03    2.335480e-01
  9.240440e-03    2.024624e-01
  9.539371e-03    1.756165e-01
  9.838301e-03    1.531569e-01
  1.013723e-02    1.344189e-01
  1.043616e-02    1.183568e-01
  1.073509e-02    1.040481e-01
  1.103402e-02    9.226853e-02
  1.133295e-02    8.199888e-02
  1.163188e-02    7.319389e-02
  1.193081e-02    6.559548e-02
  1.222974e-02    5.895837e-02
  1.252867e-02    5.315923e-02
  1.282760e-02    4.804460e-02
  1.312654e-02    4.348294e-02
  1.342547e-02    3.948608e-02
  1.372440e-02    3.594872e-02
  1.402333e-02    3.278205e-02
  1.432226e-02    2.989187e-02
  1.462119e-02    2.735083e-02
  1.492012e-02    2.509057e-02
  1.521905e-02    2.304345e-02
  1.551798e-02    2.122737e-02
  1.581691e-02    1.956083e-02
  1.611584e-02    1.800062e-02
  1.641477e-02    1.659465e-02
  1.671370e-02    1.535375e-02
  1.701263e-02    1.424804e-02
  1.731156e-02    1.321476e-02
  1.761049e-02    1.229752e-02
  1.790942e-02    1.144578e-02
  1.820835e-02    1.065276e-02
  1.850728e-02    9.921583e-03
  1.880621e-02    9.271193e-03
  1.910514e-02    8.669005e-03
  1.940407e-02    8.108349e-03
  1.970300e-02    7.589247e-03
  2.000193e-02    7.112375e-03
  2.030086e-02    6.676607e-03
  2.059979e-02    6.272461e-03
  2.089873e-02    5.899203e-03
  2.119766e-02    5.534786e-03
  2.149659e-02    5.226676e-03
  2.179552e-02    4.921273e-03
  2.209445e-02    4.643564e-03
  2.239338e-02    4.384988e-03
  2.269231e-02    4.139451e-03
  2.299124e-02    3.924279e-03
  2.329017e-02    3.717190e-03
  2.358910e-02    3.531749e-03
  2.388803e-02    3.354507e-03
  2.418696e-02    3.178179e-03
  2.448589e-02    3.021968e-03
  2.478482e-02    2.876707e-03
  2.508375e-02    2.731820e-03
  2.538268e-02    2.596234e-03
  2.568161e-02    2.476759e-03
  2.598054e-02    2.357980e-03
  2.627947e-02    2.243259e-03
  2.657840e-02    2.142022e-03
  2.687733e-02    2.032597e-03
  2.717626e-02    1.948212e-03
  2.747519e-02    1.875172e-03
  2.777412e-02    1.785694e-03
  2.807305e-02    1.708778e-03
  2.837198e-02    1.638044e-03
  2.867092e-02    1.568789e-03
  2.896985e-02    1.506978e-03
  2.926878e-02    1.449778e-03
  2.956771e-02    1.385942e-03
  2.986664e-02    1.336458e-03
  3.016557e-02    1.290654e-03
  3.046450e-02    1.238529e-03
  3.076343e-02    1.193516e-03
  3.106236e-02    1.148322e-03
  3.136129e-02    1.095524e-03
  3.166022e-02    1.049800e-03
  3.195915e-02    1.017186e-03
  3.225808e-02    9.878294e-04
  3.255701e-02    9.509953e-04
  3.285594e-02    9.225651e-04
  3.315487e-02    8.938498e-04
  3.345380e-02    8.600642e-04
  3.375273e-02    8.320397e-04
  3.405166e-02    8.024760e-04
  3.435059e-02    7.757663e-04
  3.464952e-02    7.512124e-04
  3.494845e-02    7.299617e-04
  3.524738e-02    7.026359e-04
  3.554631e-02    6.802130e-04
  3.584524e-02    6.597132e-04
  3.614417e-02    6.397903e-04
  3.644310e-02    6.170802e-04
  3.674204e-02    6.016406e-04
  3.704097e-02    5.836357e-04
  3.733990e-02    5.693276e-04
  3.763883e-02    5.551661e-04
  3.793776e-02    5.422466e-04
  3.823669e-02    5.247387e-04
  3.853562e-02    5.094646e-04
  3.883455e-02    4.964821e-04
  3.913348e-02    4.871182e-04
  3.943241e-02    4.756326e-04
  3.973134e-02    4.603931e-04
  4.003027e-02    4.494169e-04
  4.032920e-02    4.422611e-04
  4.062813e-02    4.286428e-04
  4.092706e-02    4.166882e-04
  4.122599e-02    4.043250e-04
  4.152492e-02    3.928482e-04
  4.182385e-02    3.864814e-04
  4.212278e-02    3.802589e-04
  4.242171e-02    3.747332e-04
  4.272064e-02    3.654230e-04
  4.301957e-02    3.535790e-04
  4.331850e-02    3.435001e-04
  4.361743e-02    3.387977e-04
  4.391636e-02    3.329628e-04
  4.421529e-02    3.240626e-04
  4.451423e-02    3.159789e-04
  4.481316e-02    3.101038e-04
  4.511209e-02    3.064432e-04
  4.541102e-02    3.011762e-04
  4.570995e-02    2.954248e-04
  4.600888e-02    2.929072e-04
  4.630781e-02    2.872183e-04
  4.660674e-02    2.793237e-04
  4.690567e-02    2.759955e-04
  4.720460e-02    2.732229e-04
  4.750353e-02    2.686669e-04
  4.780246e-02    2.645823e-04
  4.810139e-02    2.597121e-04
  4.840032e-02    2.546051e-04
  4.869925e-02    2.509446e-04
  4.899818e-02    2.501785e-04
  4.929711e-02    2.466549e-04
  4.959604e-02    2.442613e-04
  4.989497e-02    2.381652e-04
  5.019390e-02    2.339206e-04
  5.049283e-02    2.324450e-04
  5.079176e-02    2.279549e-04
  5.109069e-02    2.281426e-04
  5.138962e-02    2.295088e-04
  5.168855e-02    2.274740e-04
  5.198748e-02    2.266143e-04
  5.228642e-02    2.242881e-04
  5.258535e-02    2.195063e-04
  5.288428e-02    2.130016e-04
  5.318321e-02    2.107187e-04
  5.348214e-02    2.114383e-04
  5.378107e-02    2.065918e-04
  5.408000e-02    2.035989e-04
  5.437893e-02    2.026594e-04
  5.467786e-02    1.993182e-04
  5.497679e-02    1.971310e-04
  5.527572e-02    1.961117e-04
  5.557465e-02    1.923496e-04
  5.587358e-02    1.910860e-04
  5.617251e-02    1.904346e-04
  5.647144e-02    1.888273e-04
  5.677037e-02    1.874568e-04
  5.706930e-02    1.861695e-04
  5.736823e-02    1.840563e-04
  5.766716e-02    1.828318e-04
  5.796609e-02    1.785660e-04
  5.826502e-02    1.762090e-04
  5.856395e-02    1.782674e-04
  5.886288e-02    1.788404e-04
  5.916181e-02    1.754597e-04
  5.946074e-02    1.729843e-04
  5.975967e-02    1.714586e-04
  6.005861e-02    1.707352e-04
  6.035754e-02    1.714772e-04
  6.065647e-02    1.721501e-04
  6.095540e-02    1.725350e-04
  6.125433e-02    1.725026e-04
  6.155326e-02    1.725013e-04
  6.185219e-02    1.704222e-04
  6.215112e-02    1.675793e-04
  6.245005e-02    1.654762e-04
  6.274898e-02    1.633929e-04
  6.304791e-02    1.624175e-04
  6.334684e-02    1.611567e-04
  6.364577e-02    1.629037e-04
  6.394470e-02    1.624993e-04
  6.424363e-02    1.616589e-04
  6.454256e-02    1.613608e-04
  6.484149e-02    1.583971e-04
  6.514042e-02    1.582013e-04
  6.543935e-02    1.589202e-04
  6.573828e-02    1.577645e-04
  6.603721e-02    1.561104e-04
  6.633614e-02    1.569074e-04
  6.663507e-02    1.572853e-04
  6.693400e-02    1.552206e-04
  6.723293e-02    1.564583e-04
  6.753186e-02    1.551692e-04
  6.783080e-02    1.532307e-04
  6.812973e-02    1.526262e-04
  6.842866e-02    1.547001e-04
  6.872759e-02    1.539004e-04
  6.902652e-02    1.530365e-04
  6.932545e-02    1.530866e-04
  6.962438e-02    1.515811e-04
  6.992331e-02    1.533718e-04
  7.022224e-02    1.518661e-04
  7.052117e-02    1.507013e-04
  7.082010e-02    1.486112e-04
  7.111903e-02    1.471788e-04
  7.141796e-02    1.477418e-04
  7.171689e-02    1.486186e-04
  7.201582e-02    1.483065e-04
  7.231475e-02    1.479985e-04
  7.261368e-02    1.473588e-04
  7.291261e-02    1.465731e-04
  7.321154e-02    1.462136e-04
  7.351047e-02    1.477077e-04
  7.380940e-02    1.473931e-04
  7.410833e-02    1.446792e-04
  7.440726e-02    1.459556e-04
  7.470619e-02    1.455548e-04
  7.500512e-02    1.450235e-04
  7.530405e-02    1.435815e-04
  7.560299e-02    1.419106e-04
  7.590192e-02    1.427376e-04
  7.620085e-02    1.416534e-04
  7.649978e-02    1.442141e-04
  7.679871e-02    1.442366e-04
  7.709764e-02    1.410399e-04
  7.739657e-02    1.376201e-04
  7.769550e-02    1.388216e-04
  7.799443e-02    1.409004e-04
  7.829336e-02    1.411135e-04
  7.859229e-02    1.398557e-04
  7.889122e-02    1.392319e-04
  7.919015e-02    1.390692e-04
  7.948908e-02    1.380400e-04
  7.978801e-02    1.382743e-04
  8.008694e-02    1.380934e-04
  8.038587e-02    1.357008e-04
  8.068480e-02    1.357011e-04
  8.098373e-02    1.380654e-04
  8.128266e-02    1.386974e-04
  8.158159e-02    1.371959e-04
  8.188052e-02    1.348707e-04
  8.217945e-02    1.345742e-04
  8.247838e-02    1.348379e-04
  8.277731e-02    1.352961e-04
  8.307624e-02    1.335516e-04
  8.337518e-02    1.330085e-04
  8.367411e-02    1.334125e-04
  8.397304e-02    1.317436e-04
  8.427197e-02    1.293103e-04
  8.457090e-02    1.296382e-04
  8.486983e-02    1.311455e-04
  8.516876e-02    1.293801e-04
  8.546769e-02    1.292436e-04
  8.576662e-02    1.300381e-04
  8.606555e-02    1.289901e-04
  8.636448e-02    1.274955e-04
  8.666341e-02    1.263894e-04
  8.696234e-02    1.271004e-04
  8.726127e-02    1.295727e-04
  8.756020e-02    1.286438e-04
  8.785913e-02    1.284569e-04
  8.815806e-02    1.274566e-04
  8.845699e-02    1.261068e-04
  8.875592e-02    1.234924e-04
  8.905485e-02    1.226000e-04
  8.935378e-02    1.244311e-04
  8.965271e-02    1.242463e-04
  8.995164e-02    1.226204e-04
  9.025057e-02    1.218863e-04
  9.054950e-02    1.219289e-04
  9.084843e-02    1.220333e-04
  9.114737e-02    1.209754e-04
  9.144630e-02    1.199316e-04
  9.174523e-02    1.211194e-04
  9.204416e-02    1.211959e-04
  9.234309e-02    1.177508e-04
  9.264202e-02    1.172690e-04
  9.294095e-02    1.172785e-04
  9.323988e-02    1.180925e-04
  9.353881e-02    1.177247e-04
  9.383774e-02    1.181755e-04
  9.413667e-02    1.182384e-04
  9.443560e-02    1.156775e-04
  9.473453e-02    1.157841e-04
  9.503346e-02    1.162147e-04
  9.533239e-02    1.156336e-04
  9.563132e-02    1.167345e-04
  9.593025e-02    1.168489e-04
  9.622918e-02    1.163491e-04
  9.652811e-02    1.148932e-04
  9.682704e-02    1.145639e-04
  9.712597e-02    1.154906e-04
  9.742490e-02    1.163652e-04
  9.772383e-02    1.169286e-04
  9.802276e-02    1.153449e-04
  9.832169e-02    1.145434e-04
  9.862062e-02    1.133277e-04
  9.891956e-02    1.119622e-04
  9.921849e-02    1.108955e-04
  9.951742e-02    1.109987e-04
  9.981635e-02    1.100113e-04
  1.001153e-01    1.102515e-04
  1.004142e-01    1.095710e-04
  1.007131e-01    1.097719e-04
  1.010121e-01    1.096603e-04
  1.013110e-01    1.098858e-04
  1.016099e-01    1.101610e-04
  1.019089e-01    1.092227e-04
  1.022078e-01    1.087503e-04
  1.025067e-01    1.070377e-04
  1.028057e-01    1.061309e-04
  1.031046e-01    1.077006e-04
  1.034035e-01    1.076626e-04
  1.037024e-01    1.061185e-04
  1.040014e-01    1.065915e-04
  1.043003e-01    1.059430e-04
  1.045992e-01    1.053002e-04
  1.048982e-01    1.056930e-04
  1.051971e-01    1.052636e-04
  1.054960e-01    1.035853e-04
  1.057950e-01    1.039692e-04
  1.060939e-01    1.034314e-04
  1.063928e-01    1.034671e-04
  1.066917e-01    1.034770e-04
  1.069907e-01    1.035023e-04
  1.072896e-01    1.029930e-04
  1.075885e-01    1.027377e-04
  1.078875e-01    1.031075e-04
  1.081864e-01    1.019384e-04
  1.084853e-01    1.014897e-04
  1.087843e-01    9.997070e-05
  1.090832e-01    1.018612e-04
  1.093821e-01    1.024394e-04
  1.096810e-01    1.017250e-04
  1.099800e-01    9.969857e-05
  1.102789e-01    1.020778e-04
  1.105778e-01    1.023539e-04
  1.108768e-01    1.015653e-04
  1.111757e-01    9.985775e-05
  1.114746e-01    9.974180e-05
  1.117736e-01    1.014525e-04
  1.120725e-01    1.009988e-04
  1.123714e-01    1.004071e-04
  1.126704e-01    1.010491e-04
  1.129693e-01    9.899138e-05
  1.132682e-01    9.802709e-05
  1.135671e-01    9.800699e-05
  1.138661e-01    9.743546e-05
  1.141650e-01    9.492523e-05
  1.144639e-01    9.208806e-05
  1.147629e-01    9.411119e-05
  1.150618e-01    9.532421e-05
  1.153607e-01    9.369894e-05
  1.156597e-01    9.436382e-05
  1.159586e-01    9.325971e-05
  1.162575e-01    9.381493e-05
  1.165564e-01    9.476132e-05
  1.168554e-01    9.169419e-05
  1.171543e-01    9.094047e-05
  1.174532e-01    9.438688e-05
  1.177522e-01    9.232443e-05
  1.180511e-01    8.951356e-05
  1.183500e-01    8.759552e-05
  1.186490e-01    9.055255e-05
  1.189479e-01    8.914360e-05
  1.192468e-01    9.134228e-05
  1.195458e-01    8.815925e-05
  1.198447e-01    8.109104e-05
  1.201436e-01    8.770162e-05
  1.204425e-01    1.120028e-04
  1.207415e-01    1.095266e-04
  1.210404e-01    1.166303e-04
  1.213393e-01    0.000000e+00
  1.216383e-01    0.000000e+00
  1.219372e-01    0.000000e+00
  1.222361e-01    0.000000e+00
  1.225351e-01    0.000000e+00
  1.228340e-01    0.000000e+00
  1.231329e-01    0.000000e+00
  1.234318e-01    0.000000e+00
  1.237308e-01    0.000000e+00
  1.240297e-01    0.000000e+00
  1.243286e-01    0.000000e+00
  1.246276e-01    0.000000e+00
  1.249265e-01    0.000000e+00
  1.252254e-01    0.000000e+00
  1.255244e-01    0.000000e+00
  1.258233e-01    0.000000e+00
  1.261222e-01    0.000000e+00
  1.264212e-01    0.000000e+00
  1.267201e-01    0.000000e+00
  1.270190e-01    0.000000e+00
  1.273179e-01    0.000000e+00
  1.276169e-01    0.000000e+00
  1.279158e-01    0.000000e+00
  1.282147e-01    0.000000e+00
  1.285137e-01    0.000000e+00
  1.288126e-01    0.000000e+00
  1.291115e-01    0.000000e+00
  1.294105e-01    0.000000e+00
  1.297094e-01    0.000000e+00
  1.300083e-01    0.000000e+00
  1.303072e-01    0.000000e+00
  1.306062e-01    0.000000e+00
  1.309051e-01    0.000000e+00
  1.312040e-01    0.000000e+00
  1.315030e-01    0.000000e+00
  1.318019e-01    0.000000e+00
  1.321008e-01    0.000000e+00
  1.323998e-01    0.000000e+00
  1.326987e-01    0.000000e+00
  1.329976e-01    0.000000e+00
  1.332965e-01    0.000000e+00
  1.335955e-01    0.000000e+00
  1.338944e-01    0.000000e+00
  1.341933e-01    0.000000e+00
  1.344923e-01    0.000000e+00
  1.347912e-01    0.000000e+00
  1.350901e-01    0.000000e+00
  1.353891e-01    0.000000e+00
  1.356880e-01    0.000000e+00
  1.359869e-01    0.000000e+00
  1.362859e-01    0.000000e+00
  1.365848e-01    0.000000e+00
  1.368837e-01    0.000000e+00
  1.371826e-01    0.000000e+00
  1.374816e-01    0.000000e+00
  1.377805e-01    0.000000e+00
  1.380794e-01    0.000000e+00
  1.383784e-01    0.000000e+00
  1.386773e-01    0.000000e+00
  1.389762e-01    0.000000e+00
  1.392752e-01    0.000000e+00
  1.395741e-01    0.000000e+00
  1.398730e-01    0.000000e+00
  1.401719e-01    0.000000e+00
  1.404709e-01    0.000000e+00
  1.407698e-01    0.000000e+00
  1.410687e-01    0.000000e+00
  1.413677e-01    0.000000e+00
  1.416666e-01    0.000000e+00
  1.419655e-01    0.000000e+00
  1.422645e-01    0.000000e+00
  1.425634e-01    0.000000e+00
  1.428623e-01    0.000000e+00
  1.431613e-01    0.000000e+00
  1.434602e-01    0.000000e+00
  1.437591e-01    0.000000e+00
  1.440580e-01    0.000000e+00
  1.443570e-01    0.000000e+00
  1.446559e-01    0.000000e+00
  1.449548e-01    0.000000e+00
  1.452538e-01    0.000000e+00
  1.455527e-01    0.000000e+00
  1.458516e-01    0.000000e+00
  1.461506e-01    0.000000e+00
  1.464495e-01    0.000000e+00
  1.467484e-01    0.000000e+00
  1.470473e-01    0.000000e+00
  1.473463e-01    0.000000e+00
  1.476452e-01    0.000000e+00
  1.479441e-01    0.000000e+00
  1.482431e-01    0.000000e+00
  1.485420e-01    0.000000e+00
  1.488409e-01    0.000000e+00
  1.491399e-01    0.000000e+00
  1.494388e-01    0.000000e+00
  1.497377e-01    0.000000e+00
  1.500367e-01    0.000000e+00
  1.503356e-01    0.000000e+00
  1.506345e-01    0.000000e+00
  1.509334e-01    0.000000e+00
  1.512324e-01    0.000000e+00
  1.515313e-01    0.000000e+00
  1.518302e-01    0.000000e+00
  1.521292e-01    0.000000e+00
  1.524281e-01    0.000000e+00
  1.527270e-01    0.000000e+00
  1.530260e-01    0.000000e+00
  1.533249e-01    0.000000e+00
  1.536238e-01    0.000000e+00
