# == pyFAI calibration ==
# Distance Sample to Detector: 2.266 m
# PONI: 5.659e-02, 4.293e-02 m
# Rotations: 0.000000 0.000000 0.000000 rad
# 
# == Fit2d calibration ==
# Distance Sample-beamCenter: 2266.000 mm
# Center: x=249.594, y=329.012 pix
# Tilt: 0.000 deg  TiltPlanRot: 0.000 deg
# 
# Detector Pilatus 300k	 PixelSize= 1.720e-04, 1.720e-04 m
#    Detector has a mask: True 
#    Detector has a dark current: False 
#    detector has a flat field: False 
# 
# Wavelength: 1.27818e-10 m
# Mask applied: user provided
# Dark current applied: False
# Flat field applied: False
# Polarization factor: None
# Normalization factor: 16120.740000000002
# --> latex_CL3252_TiO2_R706_phiT_0.110_PVC_0.000_DOP_0.015_0_r1d.csv
#        q_A^-1             I 
  4.457554e-03    2.122466e-02
  4.756484e-03    1.646306e-02
  5.055415e-03    1.172152e-02
  5.354345e-03    8.224636e-03
  5.653276e-03    6.216486e-03
  5.952206e-03    1.169293e-02
  6.251136e-03    1.074191e-02
  6.550067e-03    9.284814e-03
  6.848997e-03    7.675288e-03
  7.147927e-03    6.378199e-03
  7.446858e-03    5.260383e-03
  7.745788e-03    4.388762e-03
  8.044719e-03    3.736103e-03
  8.343649e-03    3.239691e-03
  8.642579e-03    2.842657e-03
  8.941510e-03    2.490503e-03
  9.240440e-03    2.239191e-03
  9.539371e-03    1.977028e-03
  9.838301e-03    1.736154e-03
  1.013723e-02    1.595359e-03
  1.043616e-02    1.431876e-03
  1.073509e-02    1.287601e-03
  1.103402e-02    1.182739e-03
  1.133295e-02    1.045787e-03
  1.163188e-02    9.476611e-04
  1.193081e-02    8.761199e-04
  1.222974e-02    7.967170e-04
  1.252867e-02    7.158113e-04
  1.282760e-02    6.521973e-04
  1.312654e-02    5.817068e-04
  1.342547e-02    5.440988e-04
  1.372440e-02    5.146385e-04
  1.402333e-02    4.669407e-04
  1.432226e-02    4.346213e-04
  1.462119e-02    4.059631e-04
  1.492012e-02    3.728581e-04
  1.521905e-02    3.420437e-04
  1.551798e-02    3.241875e-04
  1.581691e-02    3.122945e-04
  1.611584e-02    2.926438e-04
  1.641477e-02    2.670979e-04
  1.671370e-02    2.556143e-04
  1.701263e-02    2.408408e-04
  1.731156e-02    2.273117e-04
  1.761049e-02    2.145938e-04
  1.790942e-02    1.982674e-04
  1.820835e-02    1.885771e-04
  1.850728e-02    1.811417e-04
  1.880621e-02    1.826776e-04
  1.910514e-02    1.700452e-04
  1.940407e-02    1.601160e-04
  1.970300e-02    1.507003e-04
  2.000193e-02    1.406384e-04
  2.030086e-02    1.436292e-04
  2.059979e-02    1.420428e-04
  2.089873e-02    1.284125e-04
  2.119766e-02    1.269430e-04
  2.149659e-02    1.219408e-04
  2.179552e-02    1.174516e-04
  2.209445e-02    1.159874e-04
  2.239338e-02    1.089734e-04
  2.269231e-02    1.046671e-04
  2.299124e-02    1.072945e-04
  2.329017e-02    1.076026e-04
  2.358910e-02    1.006283e-04
  2.388803e-02    9.361358e-05
  2.418696e-02    9.152365e-05
  2.448589e-02    9.266086e-05
  2.478482e-02    9.257517e-05
  2.508375e-02    9.276148e-05
  2.538268e-02    8.731073e-05
  2.568161e-02    8.194307e-05
  2.598054e-02    8.400683e-05
  2.627947e-02    8.211973e-05
  2.657840e-02    7.819517e-05
  2.687733e-02    8.181622e-05
  2.717626e-02    8.139913e-05
  2.747519e-02    7.729125e-05
  2.777412e-02    7.324032e-05
  2.807305e-02    7.404253e-05
  2.837198e-02    7.277985e-05
  2.867092e-02    7.367300e-05
  2.896985e-02    7.434494e-05
  2.926878e-02    7.122789e-05
  2.956771e-02    7.247012e-05
  2.986664e-02    7.382231e-05
  3.016557e-02    6.937757e-05
  3.046450e-02    6.361306e-05
  3.076343e-02    6.385618e-05
  3.106236e-02    6.577916e-05
  3.136129e-02    6.451589e-05
  3.166022e-02    6.529114e-05
  3.195915e-02    6.495211e-05
  3.225808e-02    6.667758e-05
  3.255701e-02    6.127695e-05
  3.285594e-02    5.702910e-05
  3.315487e-02    5.771656e-05
  3.345380e-02    5.745953e-05
  3.375273e-02    5.890289e-05
  3.405166e-02    5.778934e-05
  3.435059e-02    5.482983e-05
  3.464952e-02    5.442648e-05
  3.494845e-02    5.820486e-05
  3.524738e-02    6.122946e-05
  3.554631e-02    5.885807e-05
  3.584524e-02    5.705447e-05
  3.614417e-02    5.562326e-05
  3.644310e-02    5.506139e-05
  3.674204e-02    5.338686e-05
  3.704097e-02    4.948232e-05
  3.733990e-02    5.230590e-05
  3.763883e-02    5.239508e-05
  3.793776e-02    5.028754e-05
  3.823669e-02    4.705159e-05
  3.853562e-02    4.804917e-05
  3.883455e-02    4.735759e-05
  3.913348e-02    4.769651e-05
  3.943241e-02    4.903254e-05
  3.973134e-02    4.609410e-05
  4.003027e-02    4.599986e-05
  4.032920e-02    4.669099e-05
  4.062813e-02    4.577139e-05
  4.092706e-02    4.981514e-05
  4.122599e-02    4.905080e-05
  4.152492e-02    4.553734e-05
  4.182385e-02    4.651520e-05
  4.212278e-02    4.537464e-05
  4.242171e-02    4.566747e-05
  4.272064e-02    4.653673e-05
  4.301957e-02    4.671423e-05
  4.331850e-02    4.551902e-05
  4.361743e-02    4.246363e-05
  4.391636e-02    4.346191e-05
  4.421529e-02    4.400380e-05
  4.451423e-02    4.591204e-05
  4.481316e-02    4.390785e-05
  4.511209e-02    4.280412e-05
  4.541102e-02    4.433246e-05
  4.570995e-02    4.556984e-05
  4.600888e-02    4.502194e-05
  4.630781e-02    4.630613e-05
  4.660674e-02    4.578062e-05
  4.690567e-02    4.695941e-05
  4.720460e-02    4.724469e-05
  4.750353e-02    4.647275e-05
  4.780246e-02    4.595312e-05
  4.810139e-02    4.862759e-05
  4.840032e-02    4.674998e-05
  4.869925e-02    4.379652e-05
  4.899818e-02    4.249098e-05
  4.929711e-02    4.393969e-05
  4.959604e-02    4.679800e-05
  4.989497e-02    4.693439e-05
  5.019390e-02    4.484706e-05
  5.049283e-02    4.391880e-05
  5.079176e-02    4.317244e-05
  5.109069e-02    4.440775e-05
  5.138962e-02    4.528935e-05
  5.168855e-02    4.838672e-05
  5.198748e-02    4.854761e-05
  5.228642e-02    4.796326e-05
  5.258535e-02    4.421628e-05
  5.288428e-02    4.268234e-05
  5.318321e-02    4.350679e-05
  5.348214e-02    4.539858e-05
  5.378107e-02    4.324721e-05
  5.408000e-02    4.156348e-05
  5.437893e-02    4.370212e-05
  5.467786e-02    4.401953e-05
  5.497679e-02    4.331530e-05
  5.527572e-02    4.048511e-05
  5.557465e-02    4.034540e-05
  5.587358e-02    4.109670e-05
  5.617251e-02    4.128157e-05
  5.647144e-02    4.250158e-05
  5.677037e-02    4.055637e-05
  5.706930e-02    4.239007e-05
  5.736823e-02    4.349567e-05
  5.766716e-02    4.419842e-05
  5.796609e-02    4.227256e-05
  5.826502e-02    4.192376e-05
  5.856395e-02    4.228471e-05
  5.886288e-02    4.337465e-05
  5.916181e-02    4.328004e-05
  5.946074e-02    4.368561e-05
  5.975967e-02    4.396285e-05
  6.005861e-02    4.382661e-05
  6.035754e-02    4.307911e-05
  6.065647e-02    4.464274e-05
  6.095540e-02    4.655844e-05
  6.125433e-02    4.589726e-05
  6.155326e-02    4.450079e-05
  6.185219e-02    4.482999e-05
  6.215112e-02    4.557330e-05
  6.245005e-02    4.605554e-05
  6.274898e-02    4.461153e-05
  6.304791e-02    4.523203e-05
  6.334684e-02    4.406663e-05
  6.364577e-02    4.472085e-05
  6.394470e-02    4.509034e-05
  6.424363e-02    4.523402e-05
  6.454256e-02    4.582259e-05
  6.484149e-02    4.252778e-05
  6.514042e-02    4.372802e-05
  6.543935e-02    4.625252e-05
  6.573828e-02    4.405262e-05
  6.603721e-02    4.368910e-05
  6.633614e-02    4.407752e-05
  6.663507e-02    4.483141e-05
  6.693400e-02    4.644644e-05
  6.723293e-02    4.731076e-05
  6.753186e-02    4.592699e-05
  6.783080e-02    4.652125e-05
  6.812973e-02    4.491100e-05
  6.842866e-02    4.319305e-05
  6.872759e-02    4.395887e-05
  6.902652e-02    4.422986e-05
  6.932545e-02    4.337217e-05
  6.962438e-02    4.425071e-05
  6.992331e-02    4.486942e-05
  7.022224e-02    4.482538e-05
  7.052117e-02    4.481631e-05
  7.082010e-02    4.397717e-05
  7.111903e-02    4.381536e-05
  7.141796e-02    4.625700e-05
  7.171689e-02    4.722216e-05
  7.201582e-02    4.534991e-05
  7.231475e-02    4.379963e-05
  7.261368e-02    4.475472e-05
  7.291261e-02    4.529059e-05
  7.321154e-02    4.720973e-05
  7.351047e-02    4.768919e-05
  7.380940e-02    4.663138e-05
  7.410833e-02    4.597485e-05
  7.440726e-02    4.580569e-05
  7.470619e-02    4.408925e-05
  7.500512e-02    4.425599e-05
  7.530405e-02    4.464893e-05
  7.560299e-02    4.462785e-05
  7.590192e-02    4.474724e-05
  7.620085e-02    4.597991e-05
  7.649978e-02    4.475391e-05
  7.679871e-02    4.322536e-05
  7.709764e-02    4.426733e-05
  7.739657e-02    4.522136e-05
  7.769550e-02    4.774987e-05
  7.799443e-02    4.686950e-05
  7.829336e-02    4.638422e-05
  7.859229e-02    4.564529e-05
  7.889122e-02    4.641583e-05
  7.919015e-02    4.701172e-05
  7.948908e-02    4.629179e-05
  7.978801e-02    4.286869e-05
  8.008694e-02    4.297088e-05
  8.038587e-02    4.432638e-05
  8.068480e-02    4.349584e-05
  8.098373e-02    4.296824e-05
  8.128266e-02    4.404900e-05
  8.158159e-02    4.474082e-05
  8.188052e-02    4.406257e-05
  8.217945e-02    4.339067e-05
  8.247838e-02    4.507998e-05
  8.277731e-02    4.696154e-05
  8.307624e-02    4.649401e-05
  8.337518e-02    4.441520e-05
  8.367411e-02    4.247522e-05
  8.397304e-02    4.222084e-05
  8.427197e-02    4.330090e-05
  8.457090e-02    4.366789e-05
  8.486983e-02    4.388652e-05
  8.516876e-02    4.501540e-05
  8.546769e-02    4.421026e-05
  8.576662e-02    4.488590e-05
  8.606555e-02    4.145639e-05
  8.636448e-02    4.237242e-05
  8.666341e-02    4.336857e-05
  8.696234e-02    4.283952e-05
  8.726127e-02    4.229247e-05
  8.756020e-02    4.087051e-05
  8.785913e-02    4.208495e-05
  8.815806e-02    4.477552e-05
  8.845699e-02    4.441146e-05
  8.875592e-02    4.290328e-05
  8.905485e-02    4.139485e-05
  8.935378e-02    4.242980e-05
  8.965271e-02    4.305950e-05
  8.995164e-02    4.332244e-05
  9.025057e-02    4.176724e-05
  9.054950e-02    4.093947e-05
  9.084843e-02    4.094226e-05
  9.114737e-02    4.113442e-05
  9.144630e-02    4.181884e-05
  9.174523e-02    4.091662e-05
  9.204416e-02    4.137744e-05
  9.234309e-02    4.109511e-05
  9.264202e-02    3.827227e-05
  9.294095e-02    3.955290e-05
  9.323988e-02    4.037392e-05
  9.353881e-02    3.906120e-05
  9.383774e-02    4.182818e-05
  9.413667e-02    4.112573e-05
  9.443560e-02    4.054419e-05
  9.473453e-02    4.059341e-05
  9.503346e-02    3.974625e-05
  9.533239e-02    4.091043e-05
  9.563132e-02    3.981325e-05
  9.593025e-02    3.941610e-05
  9.622918e-02    3.918371e-05
  9.652811e-02    3.967214e-05
  9.682704e-02    4.008578e-05
  9.712597e-02    4.108984e-05
  9.742490e-02    4.157885e-05
  9.772383e-02    4.247114e-05
  9.802276e-02    4.037741e-05
  9.832169e-02    3.862473e-05
  9.862062e-02    3.820503e-05
  9.891956e-02    3.932794e-05
  9.921849e-02    4.008098e-05
  9.951742e-02    3.991235e-05
  9.981635e-02    3.841226e-05
  1.001153e-01    4.080466e-05
  1.004142e-01    3.839006e-05
  1.007131e-01    3.537551e-05
  1.010121e-01    3.685585e-05
  1.013110e-01    3.890998e-05
  1.016099e-01    3.857788e-05
  1.019089e-01    3.934302e-05
  1.022078e-01    4.010944e-05
  1.025067e-01    3.826624e-05
  1.028057e-01    3.655781e-05
  1.031046e-01    3.669018e-05
  1.034035e-01    3.856696e-05
  1.037024e-01    3.847288e-05
  1.040014e-01    3.681270e-05
  1.043003e-01    3.854523e-05
  1.045992e-01    3.871175e-05
  1.048982e-01    3.781663e-05
  1.051971e-01    3.646938e-05
  1.054960e-01    3.746121e-05
  1.057950e-01    3.868540e-05
  1.060939e-01    3.727734e-05
  1.063928e-01    3.754726e-05
  1.066917e-01    3.705809e-05
  1.069907e-01    3.700434e-05
  1.072896e-01    3.673755e-05
  1.075885e-01    3.673127e-05
  1.078875e-01    3.867918e-05
  1.081864e-01    3.979124e-05
  1.084853e-01    3.931866e-05
  1.087843e-01    3.835782e-05
  1.090832e-01    3.724113e-05
  1.093821e-01    3.736762e-05
  1.096810e-01    3.765847e-05
  1.099800e-01    3.631442e-05
  1.102789e-01    3.750659e-05
  1.105778e-01    3.767815e-05
  1.108768e-01    3.615234e-05
  1.111757e-01    3.746056e-05
  1.114746e-01    3.724733e-05
  1.117736e-01    3.560759e-05
  1.120725e-01    3.558531e-05
  1.123714e-01    3.739131e-05
  1.126704e-01    3.691997e-05
  1.129693e-01    3.668041e-05
  1.132682e-01    3.598522e-05
  1.135671e-01    3.551339e-05
  1.138661e-01    3.517869e-05
  1.141650e-01    3.294939e-05
  1.144639e-01    3.646141e-05
  1.147629e-01    3.633632e-05
  1.150618e-01    3.533827e-05
  1.153607e-01    3.547802e-05
  1.156597e-01    3.663977e-05
  1.159586e-01    3.790149e-05
  1.162575e-01    3.609736e-05
  1.165564e-01    3.546724e-05
  1.168554e-01    3.508574e-05
  1.171543e-01    3.712251e-05
  1.174532e-01    3.721820e-05
  1.177522e-01    3.522172e-05
  1.180511e-01    3.186664e-05
  1.183500e-01    3.334675e-05
  1.186490e-01    3.666119e-05
  1.189479e-01    3.263564e-05
  1.192468e-01    3.535948e-05
  1.195458e-01    3.702533e-05
  1.198447e-01    3.190243e-05
  1.201436e-01    2.264342e-05
  1.204425e-01    2.640957e-05
  1.207415e-01    5.470173e-05
  1.210404e-01    0.000000e+00
  1.213393e-01    0.000000e+00
  1.216383e-01    0.000000e+00
  1.219372e-01    0.000000e+00
  1.222361e-01    0.000000e+00
  1.225351e-01    0.000000e+00
  1.228340e-01    0.000000e+00
  1.231329e-01    0.000000e+00
  1.234318e-01    0.000000e+00
  1.237308e-01    0.000000e+00
  1.240297e-01    0.000000e+00
  1.243286e-01    0.000000e+00
  1.246276e-01    0.000000e+00
  1.249265e-01    0.000000e+00
  1.252254e-01    0.000000e+00
  1.255244e-01    0.000000e+00
  1.258233e-01    0.000000e+00
  1.261222e-01    0.000000e+00
  1.264212e-01    0.000000e+00
  1.267201e-01    0.000000e+00
  1.270190e-01    0.000000e+00
  1.273179e-01    0.000000e+00
  1.276169e-01    0.000000e+00
  1.279158e-01    0.000000e+00
  1.282147e-01    0.000000e+00
  1.285137e-01    0.000000e+00
  1.288126e-01    0.000000e+00
  1.291115e-01    0.000000e+00
  1.294105e-01    0.000000e+00
  1.297094e-01    0.000000e+00
  1.300083e-01    0.000000e+00
  1.303072e-01    0.000000e+00
  1.306062e-01    0.000000e+00
  1.309051e-01    0.000000e+00
  1.312040e-01    0.000000e+00
  1.315030e-01    0.000000e+00
  1.318019e-01    0.000000e+00
  1.321008e-01    0.000000e+00
  1.323998e-01    0.000000e+00
  1.326987e-01    0.000000e+00
  1.329976e-01    0.000000e+00
  1.332965e-01    0.000000e+00
  1.335955e-01    0.000000e+00
  1.338944e-01    0.000000e+00
  1.341933e-01    0.000000e+00
  1.344923e-01    0.000000e+00
  1.347912e-01    0.000000e+00
  1.350901e-01    0.000000e+00
  1.353891e-01    0.000000e+00
  1.356880e-01    0.000000e+00
  1.359869e-01    0.000000e+00
  1.362859e-01    0.000000e+00
  1.365848e-01    0.000000e+00
  1.368837e-01    0.000000e+00
  1.371826e-01    0.000000e+00
  1.374816e-01    0.000000e+00
  1.377805e-01    0.000000e+00
  1.380794e-01    0.000000e+00
  1.383784e-01    0.000000e+00
  1.386773e-01    0.000000e+00
  1.389762e-01    0.000000e+00
  1.392752e-01    0.000000e+00
  1.395741e-01    0.000000e+00
  1.398730e-01    0.000000e+00
  1.401719e-01    0.000000e+00
  1.404709e-01    0.000000e+00
  1.407698e-01    0.000000e+00
  1.410687e-01    0.000000e+00
  1.413677e-01    0.000000e+00
  1.416666e-01    0.000000e+00
  1.419655e-01    0.000000e+00
  1.422645e-01    0.000000e+00
  1.425634e-01    0.000000e+00
  1.428623e-01    0.000000e+00
  1.431613e-01    0.000000e+00
  1.434602e-01    0.000000e+00
  1.437591e-01    0.000000e+00
  1.440580e-01    0.000000e+00
  1.443570e-01    0.000000e+00
  1.446559e-01    0.000000e+00
  1.449548e-01    0.000000e+00
  1.452538e-01    0.000000e+00
  1.455527e-01    0.000000e+00
  1.458516e-01    0.000000e+00
  1.461506e-01    0.000000e+00
  1.464495e-01    0.000000e+00
  1.467484e-01    0.000000e+00
  1.470473e-01    0.000000e+00
  1.473463e-01    0.000000e+00
  1.476452e-01    0.000000e+00
  1.479441e-01    0.000000e+00
  1.482431e-01    0.000000e+00
  1.485420e-01    0.000000e+00
  1.488409e-01    0.000000e+00
  1.491399e-01    0.000000e+00
  1.494388e-01    0.000000e+00
  1.497377e-01    0.000000e+00
  1.500367e-01    0.000000e+00
  1.503356e-01    0.000000e+00
  1.506345e-01    0.000000e+00
  1.509334e-01    0.000000e+00
  1.512324e-01    0.000000e+00
  1.515313e-01    0.000000e+00
  1.518302e-01    0.000000e+00
  1.521292e-01    0.000000e+00
  1.524281e-01    0.000000e+00
  1.527270e-01    0.000000e+00
  1.530260e-01    0.000000e+00
  1.533249e-01    0.000000e+00
  1.536238e-01    0.000000e+00
