# == pyFAI calibration ==
# Distance Sample to Detector: 2.266 m
# PONI: 5.659e-02, 4.293e-02 m
# Rotations: 0.000000 0.000000 0.000000 rad
# 
# == Fit2d calibration ==
# Distance Sample-beamCenter: 2266.000 mm
# Center: x=249.594, y=329.012 pix
# Tilt: 0.000 deg  TiltPlanRot: 0.000 deg
# 
# Detector Pilatus 300k	 PixelSize= 1.720e-04, 1.720e-04 m
#    Detector has a mask: True 
#    Detector has a dark current: False 
#    detector has a flat field: False 
# 
# Wavelength: 1.27818e-10 m
# Mask applied: user provided
# Dark current applied: False
# Flat field applied: False
# Polarization factor: None
# Normalization factor: 39398.090000000004
# --> latex_CL3252_TiO2_R706_phiT_0.030_PVC_0.800_DOP_0.005_0_r1d.csv
#        q_A^-1             I 
  4.457554e-03    2.748088e-02
  4.756484e-03    2.182807e-02
  5.055415e-03    1.519032e-02
  5.354345e-03    1.057011e-02
  5.653276e-03    8.021327e-03
  5.952206e-03    1.295417e-02
  6.251136e-03    1.179544e-02
  6.550067e-03    1.016278e-02
  6.848997e-03    8.659002e-03
  7.147927e-03    7.325867e-03
  7.446858e-03    6.231336e-03
  7.745788e-03    5.354504e-03
  8.044719e-03    4.604346e-03
  8.343649e-03    3.993969e-03
  8.642579e-03    3.500966e-03
  8.941510e-03    3.077724e-03
  9.240440e-03    2.713029e-03
  9.539371e-03    2.433175e-03
  9.838301e-03    2.183000e-03
  1.013723e-02    1.937959e-03
  1.043616e-02    1.737169e-03
  1.073509e-02    1.563520e-03
  1.103402e-02    1.422435e-03
  1.133295e-02    1.272804e-03
  1.163188e-02    1.169791e-03
  1.193081e-02    1.083239e-03
  1.222974e-02    9.795520e-04
  1.252867e-02    8.837139e-04
  1.282760e-02    8.061524e-04
  1.312654e-02    7.541698e-04
  1.342547e-02    6.977411e-04
  1.372440e-02    6.442436e-04
  1.402333e-02    6.008922e-04
  1.432226e-02    5.637932e-04
  1.462119e-02    5.150674e-04
  1.492012e-02    4.949324e-04
  1.521905e-02    4.623482e-04
  1.551798e-02    4.243085e-04
  1.581691e-02    4.048413e-04
  1.611584e-02    3.803135e-04
  1.641477e-02    3.562022e-04
  1.671370e-02    3.334004e-04
  1.701263e-02    3.207286e-04
  1.731156e-02    3.101419e-04
  1.761049e-02    2.958780e-04
  1.790942e-02    2.707536e-04
  1.820835e-02    2.587224e-04
  1.850728e-02    2.535520e-04
  1.880621e-02    2.406652e-04
  1.910514e-02    2.339481e-04
  1.940407e-02    2.220904e-04
  1.970300e-02    2.106365e-04
  2.000193e-02    1.984723e-04
  2.030086e-02    1.912044e-04
  2.059979e-02    1.890228e-04
  2.089873e-02    1.842227e-04
  2.119766e-02    1.791457e-04
  2.149659e-02    1.712520e-04
  2.179552e-02    1.653121e-04
  2.209445e-02    1.628138e-04
  2.239338e-02    1.578748e-04
  2.269231e-02    1.536200e-04
  2.299124e-02    1.497139e-04
  2.329017e-02    1.438550e-04
  2.358910e-02    1.427480e-04
  2.388803e-02    1.387052e-04
  2.418696e-02    1.343256e-04
  2.448589e-02    1.317027e-04
  2.478482e-02    1.285568e-04
  2.508375e-02    1.260776e-04
  2.538268e-02    1.228838e-04
  2.568161e-02    1.196200e-04
  2.598054e-02    1.180403e-04
  2.627947e-02    1.178520e-04
  2.657840e-02    1.140904e-04
  2.687733e-02    1.100561e-04
  2.717626e-02    1.115767e-04
  2.747519e-02    1.104806e-04
  2.777412e-02    1.100160e-04
  2.807305e-02    1.090059e-04
  2.837198e-02    1.077451e-04
  2.867092e-02    1.073564e-04
  2.896985e-02    1.062501e-04
  2.926878e-02    1.025695e-04
  2.956771e-02    1.021960e-04
  2.986664e-02    1.011879e-04
  3.016557e-02    9.962270e-05
  3.046450e-02    9.763402e-05
  3.076343e-02    9.666738e-05
  3.106236e-02    9.683655e-05
  3.136129e-02    9.555924e-05
  3.166022e-02    9.480617e-05
  3.195915e-02    9.465923e-05
  3.225808e-02    9.282450e-05
  3.255701e-02    9.014683e-05
  3.285594e-02    8.842527e-05
  3.315487e-02    8.906612e-05
  3.345380e-02    8.869177e-05
  3.375273e-02    8.919858e-05
  3.405166e-02    8.680121e-05
  3.435059e-02    8.521546e-05
  3.464952e-02    8.674121e-05
  3.494845e-02    8.762016e-05
  3.524738e-02    8.414455e-05
  3.554631e-02    7.939709e-05
  3.584524e-02    8.109939e-05
  3.614417e-02    8.114641e-05
  3.644310e-02    7.840341e-05
  3.674204e-02    7.853936e-05
  3.704097e-02    7.911673e-05
  3.733990e-02    7.721613e-05
  3.763883e-02    7.753536e-05
  3.793776e-02    7.750876e-05
  3.823669e-02    7.826589e-05
  3.853562e-02    7.755933e-05
  3.883455e-02    7.570889e-05
  3.913348e-02    7.601057e-05
  3.943241e-02    7.441160e-05
  3.973134e-02    7.213036e-05
  4.003027e-02    7.423399e-05
  4.032920e-02    7.631272e-05
  4.062813e-02    7.498720e-05
  4.092706e-02    7.375608e-05
  4.122599e-02    7.312492e-05
  4.152492e-02    7.315623e-05
  4.182385e-02    7.406517e-05
  4.212278e-02    7.363604e-05
  4.242171e-02    7.570877e-05
  4.272064e-02    7.284065e-05
  4.301957e-02    7.228537e-05
  4.331850e-02    7.176590e-05
  4.361743e-02    7.220144e-05
  4.391636e-02    7.066365e-05
  4.421529e-02    7.153547e-05
  4.451423e-02    7.258690e-05
  4.481316e-02    7.067047e-05
  4.511209e-02    7.071562e-05
  4.541102e-02    7.058307e-05
  4.570995e-02    7.059065e-05
  4.600888e-02    7.084152e-05
  4.630781e-02    6.969234e-05
  4.660674e-02    6.961075e-05
  4.690567e-02    7.029282e-05
  4.720460e-02    7.005152e-05
  4.750353e-02    6.926550e-05
  4.780246e-02    6.983941e-05
  4.810139e-02    7.179357e-05
  4.840032e-02    7.438332e-05
  4.869925e-02    7.273918e-05
  4.899818e-02    7.043962e-05
  4.929711e-02    6.827835e-05
  4.959604e-02    6.792318e-05
  4.989497e-02    6.950703e-05
  5.019390e-02    7.077806e-05
  5.049283e-02    6.896095e-05
  5.079176e-02    6.854931e-05
  5.109069e-02    7.035297e-05
  5.138962e-02    7.271448e-05
  5.168855e-02    7.407883e-05
  5.198748e-02    7.401638e-05
  5.228642e-02    7.235612e-05
  5.258535e-02    6.979304e-05
  5.288428e-02    7.036217e-05
  5.318321e-02    6.978751e-05
  5.348214e-02    6.951225e-05
  5.378107e-02    6.857664e-05
  5.408000e-02    6.907417e-05
  5.437893e-02    7.058588e-05
  5.467786e-02    6.988784e-05
  5.497679e-02    6.891567e-05
  5.527572e-02    7.021979e-05
  5.557465e-02    7.020566e-05
  5.587358e-02    6.891391e-05
  5.617251e-02    6.938502e-05
  5.647144e-02    6.906433e-05
  5.677037e-02    6.958684e-05
  5.706930e-02    6.920505e-05
  5.736823e-02    7.081542e-05
  5.766716e-02    6.997293e-05
  5.796609e-02    6.988811e-05
  5.826502e-02    7.002531e-05
  5.856395e-02    6.875720e-05
  5.886288e-02    7.047060e-05
  5.916181e-02    7.134351e-05
  5.946074e-02    7.178287e-05
  5.975967e-02    7.278312e-05
  6.005861e-02    7.170913e-05
  6.035754e-02    7.155249e-05
  6.065647e-02    7.176721e-05
  6.095540e-02    7.194155e-05
  6.125433e-02    7.189635e-05
  6.155326e-02    7.165183e-05
  6.185219e-02    7.173600e-05
  6.215112e-02    7.113368e-05
  6.245005e-02    7.179150e-05
  6.274898e-02    7.225297e-05
  6.304791e-02    7.262047e-05
  6.334684e-02    7.153432e-05
  6.364577e-02    7.159589e-05
  6.394470e-02    7.335986e-05
  6.424363e-02    7.248436e-05
  6.454256e-02    7.126077e-05
  6.484149e-02    6.983882e-05
  6.514042e-02    7.075764e-05
  6.543935e-02    7.245883e-05
  6.573828e-02    7.117775e-05
  6.603721e-02    7.222967e-05
  6.633614e-02    7.384425e-05
  6.663507e-02    7.481840e-05
  6.693400e-02    7.429942e-05
  6.723293e-02    7.408772e-05
  6.753186e-02    7.330821e-05
  6.783080e-02    7.335030e-05
  6.812973e-02    7.408242e-05
  6.842866e-02    7.262007e-05
  6.872759e-02    7.413786e-05
  6.902652e-02    7.551238e-05
  6.932545e-02    7.672474e-05
  6.962438e-02    7.624308e-05
  6.992331e-02    7.576730e-05
  7.022224e-02    7.543780e-05
  7.052117e-02    7.521614e-05
  7.082010e-02    7.418713e-05
  7.111903e-02    7.355624e-05
  7.141796e-02    7.367515e-05
  7.171689e-02    7.453118e-05
  7.201582e-02    7.467142e-05
  7.231475e-02    7.394551e-05
  7.261368e-02    7.492595e-05
  7.291261e-02    7.447905e-05
  7.321154e-02    7.390635e-05
  7.351047e-02    7.570468e-05
  7.380940e-02    7.652839e-05
  7.410833e-02    7.603857e-05
  7.440726e-02    7.574097e-05
  7.470619e-02    7.561585e-05
  7.500512e-02    7.498996e-05
  7.530405e-02    7.462280e-05
  7.560299e-02    7.432388e-05
  7.590192e-02    7.482967e-05
  7.620085e-02    7.336123e-05
  7.649978e-02    7.220802e-05
  7.679871e-02    7.542846e-05
  7.709764e-02    7.644710e-05
  7.739657e-02    7.562344e-05
  7.769550e-02    7.573965e-05
  7.799443e-02    7.633855e-05
  7.829336e-02    7.565832e-05
  7.859229e-02    7.381535e-05
  7.889122e-02    7.456191e-05
  7.919015e-02    7.346689e-05
  7.948908e-02    7.403817e-05
  7.978801e-02    7.511902e-05
  8.008694e-02    7.542619e-05
  8.038587e-02    7.431138e-05
  8.068480e-02    7.405085e-05
  8.098373e-02    7.500127e-05
  8.128266e-02    7.430112e-05
  8.158159e-02    7.353182e-05
  8.188052e-02    7.303160e-05
  8.217945e-02    7.368485e-05
  8.247838e-02    7.478116e-05
  8.277731e-02    7.324864e-05
  8.307624e-02    7.116230e-05
  8.337518e-02    7.186113e-05
  8.367411e-02    7.203074e-05
  8.397304e-02    7.242697e-05
  8.427197e-02    7.391404e-05
  8.457090e-02    7.344656e-05
  8.486983e-02    7.220913e-05
  8.516876e-02    7.253366e-05
  8.546769e-02    7.237623e-05
  8.576662e-02    7.288901e-05
  8.606555e-02    7.342035e-05
  8.636448e-02    7.199271e-05
  8.666341e-02    7.104621e-05
  8.696234e-02    7.220428e-05
  8.726127e-02    7.161426e-05
  8.756020e-02    7.215531e-05
  8.785913e-02    7.132482e-05
  8.815806e-02    7.064057e-05
  8.845699e-02    7.027851e-05
  8.875592e-02    7.113755e-05
  8.905485e-02    7.046516e-05
  8.935378e-02    6.992316e-05
  8.965271e-02    6.917100e-05
  8.995164e-02    7.073318e-05
  9.025057e-02    7.258817e-05
  9.054950e-02    7.185566e-05
  9.084843e-02    7.119853e-05
  9.114737e-02    6.975870e-05
  9.144630e-02    7.037228e-05
  9.174523e-02    7.134057e-05
  9.204416e-02    7.079870e-05
  9.234309e-02    6.870134e-05
  9.264202e-02    6.788235e-05
  9.294095e-02    6.793064e-05
  9.323988e-02    6.921335e-05
  9.353881e-02    7.003848e-05
  9.383774e-02    6.965674e-05
  9.413667e-02    6.975549e-05
  9.443560e-02    6.861476e-05
  9.473453e-02    6.816158e-05
  9.503346e-02    6.862205e-05
  9.533239e-02    6.856244e-05
  9.563132e-02    6.778078e-05
  9.593025e-02    6.809534e-05
  9.622918e-02    6.754397e-05
  9.652811e-02    6.695902e-05
  9.682704e-02    6.748248e-05
  9.712597e-02    6.867500e-05
  9.742490e-02    6.923756e-05
  9.772383e-02    6.712916e-05
  9.802276e-02    6.707613e-05
  9.832169e-02    6.691661e-05
  9.862062e-02    6.889444e-05
  9.891956e-02    6.756639e-05
  9.921849e-02    6.565511e-05
  9.951742e-02    6.547276e-05
  9.981635e-02    6.702149e-05
  1.001153e-01    6.696623e-05
  1.004142e-01    6.810148e-05
  1.007131e-01    6.639022e-05
  1.010121e-01    6.545395e-05
  1.013110e-01    6.539645e-05
  1.016099e-01    6.526955e-05
  1.019089e-01    6.492198e-05
  1.022078e-01    6.418273e-05
  1.025067e-01    6.435072e-05
  1.028057e-01    6.536741e-05
  1.031046e-01    6.601805e-05
  1.034035e-01    6.569210e-05
  1.037024e-01    6.576787e-05
  1.040014e-01    6.329876e-05
  1.043003e-01    6.355393e-05
  1.045992e-01    6.396428e-05
  1.048982e-01    6.451331e-05
  1.051971e-01    6.458356e-05
  1.054960e-01    6.415419e-05
  1.057950e-01    6.420931e-05
  1.060939e-01    6.536055e-05
  1.063928e-01    6.498202e-05
  1.066917e-01    6.424380e-05
  1.069907e-01    6.425710e-05
  1.072896e-01    6.178109e-05
  1.075885e-01    6.137994e-05
  1.078875e-01    6.328588e-05
  1.081864e-01    6.278612e-05
  1.084853e-01    6.301115e-05
  1.087843e-01    6.407136e-05
  1.090832e-01    6.547950e-05
  1.093821e-01    6.362406e-05
  1.096810e-01    6.227426e-05
  1.099800e-01    6.194697e-05
  1.102789e-01    6.126588e-05
  1.105778e-01    6.082338e-05
  1.108768e-01    6.283186e-05
  1.111757e-01    6.347661e-05
  1.114746e-01    6.262907e-05
  1.117736e-01    6.163679e-05
  1.120725e-01    6.139534e-05
  1.123714e-01    5.958682e-05
  1.126704e-01    5.972531e-05
  1.129693e-01    6.126988e-05
  1.132682e-01    5.965100e-05
  1.135671e-01    5.998302e-05
  1.138661e-01    6.011648e-05
  1.141650e-01    5.731858e-05
  1.144639e-01    5.761377e-05
  1.147629e-01    5.772758e-05
  1.150618e-01    6.001983e-05
  1.153607e-01    5.959974e-05
  1.156597e-01    5.747909e-05
  1.159586e-01    5.775367e-05
  1.162575e-01    6.012456e-05
  1.165564e-01    5.782721e-05
  1.168554e-01    5.474027e-05
  1.171543e-01    5.692857e-05
  1.174532e-01    6.273893e-05
  1.177522e-01    6.174413e-05
  1.180511e-01    5.981739e-05
  1.183500e-01    6.176822e-05
  1.186490e-01    6.115741e-05
  1.189479e-01    5.974011e-05
  1.192468e-01    6.137890e-05
  1.195458e-01    6.626500e-05
  1.198447e-01    6.332732e-05
  1.201436e-01    5.528864e-05
  1.204425e-01    5.232524e-05
  1.207415e-01    5.671183e-05
  1.210404e-01    7.621480e-05
  1.213393e-01    0.000000e+00
  1.216383e-01    0.000000e+00
  1.219372e-01    0.000000e+00
  1.222361e-01    0.000000e+00
  1.225351e-01    0.000000e+00
  1.228340e-01    0.000000e+00
  1.231329e-01    0.000000e+00
  1.234318e-01    0.000000e+00
  1.237308e-01    0.000000e+00
  1.240297e-01    0.000000e+00
  1.243286e-01    0.000000e+00
  1.246276e-01    0.000000e+00
  1.249265e-01    0.000000e+00
  1.252254e-01    0.000000e+00
  1.255244e-01    0.000000e+00
  1.258233e-01    0.000000e+00
  1.261222e-01    0.000000e+00
  1.264212e-01    0.000000e+00
  1.267201e-01    0.000000e+00
  1.270190e-01    0.000000e+00
  1.273179e-01    0.000000e+00
  1.276169e-01    0.000000e+00
  1.279158e-01    0.000000e+00
  1.282147e-01    0.000000e+00
  1.285137e-01    0.000000e+00
  1.288126e-01    0.000000e+00
  1.291115e-01    0.000000e+00
  1.294105e-01    0.000000e+00
  1.297094e-01    0.000000e+00
  1.300083e-01    0.000000e+00
  1.303072e-01    0.000000e+00
  1.306062e-01    0.000000e+00
  1.309051e-01    0.000000e+00
  1.312040e-01    0.000000e+00
  1.315030e-01    0.000000e+00
  1.318019e-01    0.000000e+00
  1.321008e-01    0.000000e+00
  1.323998e-01    0.000000e+00
  1.326987e-01    0.000000e+00
  1.329976e-01    0.000000e+00
  1.332965e-01    0.000000e+00
  1.335955e-01    0.000000e+00
  1.338944e-01    0.000000e+00
  1.341933e-01    0.000000e+00
  1.344923e-01    0.000000e+00
  1.347912e-01    0.000000e+00
  1.350901e-01    0.000000e+00
  1.353891e-01    0.000000e+00
  1.356880e-01    0.000000e+00
  1.359869e-01    0.000000e+00
  1.362859e-01    0.000000e+00
  1.365848e-01    0.000000e+00
  1.368837e-01    0.000000e+00
  1.371826e-01    0.000000e+00
  1.374816e-01    0.000000e+00
  1.377805e-01    0.000000e+00
  1.380794e-01    0.000000e+00
  1.383784e-01    0.000000e+00
  1.386773e-01    0.000000e+00
  1.389762e-01    0.000000e+00
  1.392752e-01    0.000000e+00
  1.395741e-01    0.000000e+00
  1.398730e-01    0.000000e+00
  1.401719e-01    0.000000e+00
  1.404709e-01    0.000000e+00
  1.407698e-01    0.000000e+00
  1.410687e-01    0.000000e+00
  1.413677e-01    0.000000e+00
  1.416666e-01    0.000000e+00
  1.419655e-01    0.000000e+00
  1.422645e-01    0.000000e+00
  1.425634e-01    0.000000e+00
  1.428623e-01    0.000000e+00
  1.431613e-01    0.000000e+00
  1.434602e-01    0.000000e+00
  1.437591e-01    0.000000e+00
  1.440580e-01    0.000000e+00
  1.443570e-01    0.000000e+00
  1.446559e-01    0.000000e+00
  1.449548e-01    0.000000e+00
  1.452538e-01    0.000000e+00
  1.455527e-01    0.000000e+00
  1.458516e-01    0.000000e+00
  1.461506e-01    0.000000e+00
  1.464495e-01    0.000000e+00
  1.467484e-01    0.000000e+00
  1.470473e-01    0.000000e+00
  1.473463e-01    0.000000e+00
  1.476452e-01    0.000000e+00
  1.479441e-01    0.000000e+00
  1.482431e-01    0.000000e+00
  1.485420e-01    0.000000e+00
  1.488409e-01    0.000000e+00
  1.491399e-01    0.000000e+00
  1.494388e-01    0.000000e+00
  1.497377e-01    0.000000e+00
  1.500367e-01    0.000000e+00
  1.503356e-01    0.000000e+00
  1.506345e-01    0.000000e+00
  1.509334e-01    0.000000e+00
  1.512324e-01    0.000000e+00
  1.515313e-01    0.000000e+00
  1.518302e-01    0.000000e+00
  1.521292e-01    0.000000e+00
  1.524281e-01    0.000000e+00
  1.527270e-01    0.000000e+00
  1.530260e-01    0.000000e+00
  1.533249e-01    0.000000e+00
  1.536238e-01    0.000000e+00
