# == pyFAI calibration ==
# Distance Sample to Detector: 2.266 m
# PONI: 5.659e-02, 4.293e-02 m
# Rotations: 0.000000 0.000000 0.000000 rad
# 
# == Fit2d calibration ==
# Distance Sample-beamCenter: 2266.000 mm
# Center: x=249.594, y=329.012 pix
# Tilt: 0.000 deg  TiltPlanRot: 0.000 deg
# 
# Detector Pilatus 300k	 PixelSize= 1.720e-04, 1.720e-04 m
#    Detector has a mask: True 
#    Detector has a dark current: False 
#    detector has a flat field: False 
# 
# Wavelength: 1.27818e-10 m
# Mask applied: user provided
# Dark current applied: False
# Flat field applied: False
# Polarization factor: None
# Normalization factor: 31935.75
# --> latex_CL3252_TiO2_R706_phiT_0.050_PVC_0.800_DOP_0.005_1_r1d.csv
#        q_A^-1             I 
  4.457554e-03    1.801778e-01
  4.756484e-03    1.549569e-01
  5.055415e-03    1.266743e-01
  5.354345e-03    1.019544e-01
  5.653276e-03    8.467264e-02
  5.952206e-03    1.768034e-01
  6.251136e-03    1.628518e-01
  6.550067e-03    1.409296e-01
  6.848997e-03    1.177864e-01
  7.147927e-03    9.708814e-02
  7.446858e-03    8.091743e-02
  7.745788e-03    6.741097e-02
  8.044719e-03    5.643980e-02
  8.343649e-03    4.794081e-02
  8.642579e-03    4.090675e-02
  8.941510e-03    3.536833e-02
  9.240440e-03    3.064423e-02
  9.539371e-03    2.652208e-02
  9.838301e-03    2.315068e-02
  1.013723e-02    2.034468e-02
  1.043616e-02    1.791557e-02
  1.073509e-02    1.573693e-02
  1.103402e-02    1.395596e-02
  1.133295e-02    1.247453e-02
  1.163188e-02    1.114392e-02
  1.193081e-02    1.001073e-02
  1.222974e-02    9.008267e-03
  1.252867e-02    8.101458e-03
  1.282760e-02    7.419170e-03
  1.312654e-02    6.723027e-03
  1.342547e-02    6.118441e-03
  1.372440e-02    5.559835e-03
  1.402333e-02    5.107860e-03
  1.432226e-02    4.665409e-03
  1.462119e-02    4.273990e-03
  1.492012e-02    3.945588e-03
  1.521905e-02    3.646200e-03
  1.551798e-02    3.355808e-03
  1.581691e-02    3.104578e-03
  1.611584e-02    2.877018e-03
  1.641477e-02    2.667355e-03
  1.671370e-02    2.479268e-03
  1.701263e-02    2.299072e-03
  1.731156e-02    2.150749e-03
  1.761049e-02    1.993920e-03
  1.790942e-02    1.876867e-03
  1.820835e-02    1.748219e-03
  1.850728e-02    1.634105e-03
  1.880621e-02    1.535016e-03
  1.910514e-02    1.439916e-03
  1.940407e-02    1.356663e-03
  1.970300e-02    1.286183e-03
  2.000193e-02    1.208984e-03
  2.030086e-02    1.141469e-03
  2.059979e-02    1.076536e-03
  2.089873e-02    1.014606e-03
  2.119766e-02    9.571079e-04
  2.149659e-02    9.109538e-04
  2.179552e-02    8.665951e-04
  2.209445e-02    8.281107e-04
  2.239338e-02    7.900337e-04
  2.269231e-02    7.533488e-04
  2.299124e-02    7.062019e-04
  2.329017e-02    6.753507e-04
  2.358910e-02    6.431019e-04
  2.388803e-02    6.225660e-04
  2.418696e-02    5.975883e-04
  2.448589e-02    5.698504e-04
  2.478482e-02    5.459360e-04
  2.508375e-02    5.166647e-04
  2.538268e-02    5.045249e-04
  2.568161e-02    4.852833e-04
  2.598054e-02    4.641690e-04
  2.627947e-02    4.512493e-04
  2.657840e-02    4.333525e-04
  2.687733e-02    4.213093e-04
  2.717626e-02    4.078179e-04
  2.747519e-02    3.940976e-04
  2.777412e-02    3.793772e-04
  2.807305e-02    3.628270e-04
  2.837198e-02    3.531475e-04
  2.867092e-02    3.414626e-04
  2.896985e-02    3.288746e-04
  2.926878e-02    3.225229e-04
  2.956771e-02    3.085112e-04
  2.986664e-02    2.994188e-04
  3.016557e-02    2.897229e-04
  3.046450e-02    2.811445e-04
  3.076343e-02    2.738098e-04
  3.106236e-02    2.669010e-04
  3.136129e-02    2.577022e-04
  3.166022e-02    2.539973e-04
  3.195915e-02    2.543648e-04
  3.225808e-02    2.470129e-04
  3.255701e-02    2.411235e-04
  3.285594e-02    2.339775e-04
  3.315487e-02    2.295644e-04
  3.345380e-02    2.257431e-04
  3.375273e-02    2.173730e-04
  3.405166e-02    2.137784e-04
  3.435059e-02    2.090842e-04
  3.464952e-02    2.042640e-04
  3.494845e-02    1.999127e-04
  3.524738e-02    2.006565e-04
  3.554631e-02    1.972604e-04
  3.584524e-02    1.927678e-04
  3.614417e-02    1.872962e-04
  3.644310e-02    1.850456e-04
  3.674204e-02    1.828187e-04
  3.704097e-02    1.763285e-04
  3.733990e-02    1.736874e-04
  3.763883e-02    1.721478e-04
  3.793776e-02    1.679341e-04
  3.823669e-02    1.631714e-04
  3.853562e-02    1.613993e-04
  3.883455e-02    1.655923e-04
  3.913348e-02    1.644715e-04
  3.943241e-02    1.615873e-04
  3.973134e-02    1.564351e-04
  4.003027e-02    1.523349e-04
  4.032920e-02    1.535749e-04
  4.062813e-02    1.496124e-04
  4.092706e-02    1.494011e-04
  4.122599e-02    1.475019e-04
  4.152492e-02    1.452846e-04
  4.182385e-02    1.421046e-04
  4.212278e-02    1.412358e-04
  4.242171e-02    1.397536e-04
  4.272064e-02    1.390149e-04
  4.301957e-02    1.387452e-04
  4.331850e-02    1.352057e-04
  4.361743e-02    1.343318e-04
  4.391636e-02    1.374164e-04
  4.421529e-02    1.349567e-04
  4.451423e-02    1.304901e-04
  4.481316e-02    1.271892e-04
  4.511209e-02    1.272208e-04
  4.541102e-02    1.299551e-04
  4.570995e-02    1.269134e-04
  4.600888e-02    1.241087e-04
  4.630781e-02    1.241561e-04
  4.660674e-02    1.222277e-04
  4.690567e-02    1.254269e-04
  4.720460e-02    1.264534e-04
  4.750353e-02    1.235869e-04
  4.780246e-02    1.234437e-04
  4.810139e-02    1.216374e-04
  4.840032e-02    1.224623e-04
  4.869925e-02    1.244586e-04
  4.899818e-02    1.210772e-04
  4.929711e-02    1.170226e-04
  4.959604e-02    1.170559e-04
  4.989497e-02    1.182693e-04
  5.019390e-02    1.194174e-04
  5.049283e-02    1.187310e-04
  5.079176e-02    1.205366e-04
  5.109069e-02    1.216138e-04
  5.138962e-02    1.188058e-04
  5.168855e-02    1.200993e-04
  5.198748e-02    1.226030e-04
  5.228642e-02    1.207976e-04
  5.258535e-02    1.154275e-04
  5.288428e-02    1.156462e-04
  5.318321e-02    1.165218e-04
  5.348214e-02    1.148837e-04
  5.378107e-02    1.135851e-04
  5.408000e-02    1.162483e-04
  5.437893e-02    1.145857e-04
  5.467786e-02    1.108391e-04
  5.497679e-02    1.135577e-04
  5.527572e-02    1.162976e-04
  5.557465e-02    1.140445e-04
  5.587358e-02    1.141873e-04
  5.617251e-02    1.110718e-04
  5.647144e-02    1.117350e-04
  5.677037e-02    1.127328e-04
  5.706930e-02    1.126027e-04
  5.736823e-02    1.119399e-04
  5.766716e-02    1.112154e-04
  5.796609e-02    1.106718e-04
  5.826502e-02    1.135412e-04
  5.856395e-02    1.141547e-04
  5.886288e-02    1.142812e-04
  5.916181e-02    1.141557e-04
  5.946074e-02    1.132562e-04
  5.975967e-02    1.134682e-04
  6.005861e-02    1.121432e-04
  6.035754e-02    1.139993e-04
  6.065647e-02    1.128741e-04
  6.095540e-02    1.110638e-04
  6.125433e-02    1.156807e-04
  6.155326e-02    1.165472e-04
  6.185219e-02    1.134035e-04
  6.215112e-02    1.107975e-04
  6.245005e-02    1.119245e-04
  6.274898e-02    1.110848e-04
  6.304791e-02    1.115911e-04
  6.334684e-02    1.130511e-04
  6.364577e-02    1.102076e-04
  6.394470e-02    1.092553e-04
  6.424363e-02    1.096454e-04
  6.454256e-02    1.114640e-04
  6.484149e-02    1.134355e-04
  6.514042e-02    1.129679e-04
  6.543935e-02    1.122477e-04
  6.573828e-02    1.130339e-04
  6.603721e-02    1.127021e-04
  6.633614e-02    1.126260e-04
  6.663507e-02    1.124359e-04
  6.693400e-02    1.126634e-04
  6.723293e-02    1.138790e-04
  6.753186e-02    1.148197e-04
  6.783080e-02    1.150729e-04
  6.812973e-02    1.152175e-04
  6.842866e-02    1.136253e-04
  6.872759e-02    1.149312e-04
  6.902652e-02    1.139491e-04
  6.932545e-02    1.126513e-04
  6.962438e-02    1.132010e-04
  6.992331e-02    1.137132e-04
  7.022224e-02    1.130443e-04
  7.052117e-02    1.136861e-04
  7.082010e-02    1.143878e-04
  7.111903e-02    1.156739e-04
  7.141796e-02    1.149817e-04
  7.171689e-02    1.135898e-04
  7.201582e-02    1.139138e-04
  7.231475e-02    1.151029e-04
  7.261368e-02    1.138719e-04
  7.291261e-02    1.129209e-04
  7.321154e-02    1.126778e-04
  7.351047e-02    1.117555e-04
  7.380940e-02    1.133258e-04
  7.410833e-02    1.127682e-04
  7.440726e-02    1.100777e-04
  7.470619e-02    1.108124e-04
  7.500512e-02    1.111230e-04
  7.530405e-02    1.112800e-04
  7.560299e-02    1.110761e-04
  7.590192e-02    1.148108e-04
  7.620085e-02    1.156323e-04
  7.649978e-02    1.145149e-04
  7.679871e-02    1.134424e-04
  7.709764e-02    1.116009e-04
  7.739657e-02    1.107063e-04
  7.769550e-02    1.131378e-04
  7.799443e-02    1.138615e-04
  7.829336e-02    1.140430e-04
  7.859229e-02    1.139791e-04
  7.889122e-02    1.134607e-04
  7.919015e-02    1.118713e-04
  7.948908e-02    1.125090e-04
  7.978801e-02    1.124071e-04
  8.008694e-02    1.114171e-04
  8.038587e-02    1.113201e-04
  8.068480e-02    1.116207e-04
  8.098373e-02    1.123005e-04
  8.128266e-02    1.110171e-04
  8.158159e-02    1.120921e-04
  8.188052e-02    1.130768e-04
  8.217945e-02    1.124854e-04
  8.247838e-02    1.091752e-04
  8.277731e-02    1.097491e-04
  8.307624e-02    1.092224e-04
  8.337518e-02    1.071965e-04
  8.367411e-02    1.083156e-04
  8.397304e-02    1.102688e-04
  8.427197e-02    1.097663e-04
  8.457090e-02    1.092123e-04
  8.486983e-02    1.085430e-04
  8.516876e-02    1.081159e-04
  8.546769e-02    1.088263e-04
  8.576662e-02    1.091672e-04
  8.606555e-02    1.097206e-04
  8.636448e-02    1.105509e-04
  8.666341e-02    1.101242e-04
  8.696234e-02    1.110003e-04
  8.726127e-02    1.080270e-04
  8.756020e-02    1.074915e-04
  8.785913e-02    1.065972e-04
  8.815806e-02    1.063688e-04
  8.845699e-02    1.068318e-04
  8.875592e-02    1.070752e-04
  8.905485e-02    1.089757e-04
  8.935378e-02    1.065364e-04
  8.965271e-02    1.054594e-04
  8.995164e-02    1.054474e-04
  9.025057e-02    1.046766e-04
  9.054950e-02    1.044818e-04
  9.084843e-02    1.058069e-04
  9.114737e-02    1.071351e-04
  9.144630e-02    1.045567e-04
  9.174523e-02    1.037350e-04
  9.204416e-02    1.036936e-04
  9.234309e-02    1.043954e-04
  9.264202e-02    1.025768e-04
  9.294095e-02    1.027415e-04
  9.323988e-02    1.031355e-04
  9.353881e-02    1.031472e-04
  9.383774e-02    1.032795e-04
  9.413667e-02    1.010690e-04
  9.443560e-02    1.020685e-04
  9.473453e-02    1.014470e-04
  9.503346e-02    1.004379e-04
  9.533239e-02    1.008737e-04
  9.563132e-02    1.010136e-04
  9.593025e-02    1.002466e-04
  9.622918e-02    9.888932e-05
  9.652811e-02    9.975525e-05
  9.682704e-02    1.017337e-04
  9.712597e-02    1.010184e-04
  9.742490e-02    1.008741e-04
  9.772383e-02    9.999736e-05
  9.802276e-02    9.987277e-05
  9.832169e-02    1.003029e-04
  9.862062e-02    9.940057e-05
  9.891956e-02    9.736339e-05
  9.921849e-02    9.871306e-05
  9.951742e-02    9.931617e-05
  9.981635e-02    9.703791e-05
  1.001153e-01    9.823647e-05
  1.004142e-01    9.932609e-05
  1.007131e-01    9.780958e-05
  1.010121e-01    9.662549e-05
  1.013110e-01    9.589045e-05
  1.016099e-01    9.746332e-05
  1.019089e-01    9.701858e-05
  1.022078e-01    9.599388e-05
  1.025067e-01    9.786822e-05
  1.028057e-01    9.598725e-05
  1.031046e-01    9.513534e-05
  1.034035e-01    9.561503e-05
  1.037024e-01    9.418636e-05
  1.040014e-01    9.446267e-05
  1.043003e-01    9.424288e-05
  1.045992e-01    9.455870e-05
  1.048982e-01    9.396859e-05
  1.051971e-01    9.416111e-05
  1.054960e-01    9.201061e-05
  1.057950e-01    9.345829e-05
  1.060939e-01    9.381443e-05
  1.063928e-01    9.166860e-05
  1.066917e-01    9.215224e-05
  1.069907e-01    9.323289e-05
  1.072896e-01    9.448187e-05
  1.075885e-01    9.376916e-05
  1.078875e-01    9.307844e-05
  1.081864e-01    9.355732e-05
  1.084853e-01    9.293862e-05
  1.087843e-01    9.090352e-05
  1.090832e-01    8.959432e-05
  1.093821e-01    9.129284e-05
  1.096810e-01    8.918053e-05
  1.099800e-01    8.852747e-05
  1.102789e-01    9.126272e-05
  1.105778e-01    9.144819e-05
  1.108768e-01    9.147307e-05
  1.111757e-01    8.977991e-05
  1.114746e-01    8.906527e-05
  1.117736e-01    9.004349e-05
  1.120725e-01    8.965954e-05
  1.123714e-01    8.645740e-05
  1.126704e-01    8.700425e-05
  1.129693e-01    8.771940e-05
  1.132682e-01    8.498421e-05
  1.135671e-01    8.518819e-05
  1.138661e-01    8.596400e-05
  1.141650e-01    8.791082e-05
  1.144639e-01    8.858490e-05
  1.147629e-01    8.644704e-05
  1.150618e-01    8.765051e-05
  1.153607e-01    9.074165e-05
  1.156597e-01    9.079453e-05
  1.159586e-01    9.205688e-05
  1.162575e-01    9.080124e-05
  1.165564e-01    8.830176e-05
  1.168554e-01    8.776678e-05
  1.171543e-01    8.759270e-05
  1.174532e-01    9.069228e-05
  1.177522e-01    8.990648e-05
  1.180511e-01    8.795791e-05
  1.183500e-01    8.660519e-05
  1.186490e-01    7.913592e-05
  1.189479e-01    7.778399e-05
  1.192468e-01    8.330635e-05
  1.195458e-01    8.447523e-05
  1.198447e-01    8.515079e-05
  1.201436e-01    8.914598e-05
  1.204425e-01    8.607914e-05
  1.207415e-01    7.204892e-05
  1.210404e-01    3.134123e-05
  1.213393e-01    0.000000e+00
  1.216383e-01    0.000000e+00
  1.219372e-01    0.000000e+00
  1.222361e-01    0.000000e+00
  1.225351e-01    0.000000e+00
  1.228340e-01    0.000000e+00
  1.231329e-01    0.000000e+00
  1.234318e-01    0.000000e+00
  1.237308e-01    0.000000e+00
  1.240297e-01    0.000000e+00
  1.243286e-01    0.000000e+00
  1.246276e-01    0.000000e+00
  1.249265e-01    0.000000e+00
  1.252254e-01    0.000000e+00
  1.255244e-01    0.000000e+00
  1.258233e-01    0.000000e+00
  1.261222e-01    0.000000e+00
  1.264212e-01    0.000000e+00
  1.267201e-01    0.000000e+00
  1.270190e-01    0.000000e+00
  1.273179e-01    0.000000e+00
  1.276169e-01    0.000000e+00
  1.279158e-01    0.000000e+00
  1.282147e-01    0.000000e+00
  1.285137e-01    0.000000e+00
  1.288126e-01    0.000000e+00
  1.291115e-01    0.000000e+00
  1.294105e-01    0.000000e+00
  1.297094e-01    0.000000e+00
  1.300083e-01    0.000000e+00
  1.303072e-01    0.000000e+00
  1.306062e-01    0.000000e+00
  1.309051e-01    0.000000e+00
  1.312040e-01    0.000000e+00
  1.315030e-01    0.000000e+00
  1.318019e-01    0.000000e+00
  1.321008e-01    0.000000e+00
  1.323998e-01    0.000000e+00
  1.326987e-01    0.000000e+00
  1.329976e-01    0.000000e+00
  1.332965e-01    0.000000e+00
  1.335955e-01    0.000000e+00
  1.338944e-01    0.000000e+00
  1.341933e-01    0.000000e+00
  1.344923e-01    0.000000e+00
  1.347912e-01    0.000000e+00
  1.350901e-01    0.000000e+00
  1.353891e-01    0.000000e+00
  1.356880e-01    0.000000e+00
  1.359869e-01    0.000000e+00
  1.362859e-01    0.000000e+00
  1.365848e-01    0.000000e+00
  1.368837e-01    0.000000e+00
  1.371826e-01    0.000000e+00
  1.374816e-01    0.000000e+00
  1.377805e-01    0.000000e+00
  1.380794e-01    0.000000e+00
  1.383784e-01    0.000000e+00
  1.386773e-01    0.000000e+00
  1.389762e-01    0.000000e+00
  1.392752e-01    0.000000e+00
  1.395741e-01    0.000000e+00
  1.398730e-01    0.000000e+00
  1.401719e-01    0.000000e+00
  1.404709e-01    0.000000e+00
  1.407698e-01    0.000000e+00
  1.410687e-01    0.000000e+00
  1.413677e-01    0.000000e+00
  1.416666e-01    0.000000e+00
  1.419655e-01    0.000000e+00
  1.422645e-01    0.000000e+00
  1.425634e-01    0.000000e+00
  1.428623e-01    0.000000e+00
  1.431613e-01    0.000000e+00
  1.434602e-01    0.000000e+00
  1.437591e-01    0.000000e+00
  1.440580e-01    0.000000e+00
  1.443570e-01    0.000000e+00
  1.446559e-01    0.000000e+00
  1.449548e-01    0.000000e+00
  1.452538e-01    0.000000e+00
  1.455527e-01    0.000000e+00
  1.458516e-01    0.000000e+00
  1.461506e-01    0.000000e+00
  1.464495e-01    0.000000e+00
  1.467484e-01    0.000000e+00
  1.470473e-01    0.000000e+00
  1.473463e-01    0.000000e+00
  1.476452e-01    0.000000e+00
  1.479441e-01    0.000000e+00
  1.482431e-01    0.000000e+00
  1.485420e-01    0.000000e+00
  1.488409e-01    0.000000e+00
  1.491399e-01    0.000000e+00
  1.494388e-01    0.000000e+00
  1.497377e-01    0.000000e+00
  1.500367e-01    0.000000e+00
  1.503356e-01    0.000000e+00
  1.506345e-01    0.000000e+00
  1.509334e-01    0.000000e+00
  1.512324e-01    0.000000e+00
  1.515313e-01    0.000000e+00
  1.518302e-01    0.000000e+00
  1.521292e-01    0.000000e+00
  1.524281e-01    0.000000e+00
  1.527270e-01    0.000000e+00
  1.530260e-01    0.000000e+00
  1.533249e-01    0.000000e+00
  1.536238e-01    0.000000e+00
