# == pyFAI calibration ==
# Distance Sample to Detector: 2.266 m
# PONI: 5.659e-02, 4.293e-02 m
# Rotations: 0.000000 0.000000 0.000000 rad
# 
# == Fit2d calibration ==
# Distance Sample-beamCenter: 2266.000 mm
# Center: x=249.594, y=329.012 pix
# Tilt: 0.000 deg  TiltPlanRot: 0.000 deg
# 
# Detector Pilatus 300k	 PixelSize= 1.720e-04, 1.720e-04 m
#    Detector has a mask: True 
#    Detector has a dark current: False 
#    detector has a flat field: False 
# 
# Wavelength: 1.27818e-10 m
# Mask applied: user provided
# Dark current applied: False
# Flat field applied: False
# Polarization factor: None
# Normalization factor: 71217.71
# --> latex_CL3252_TiO2_R706_phiT_0.030_PVC_0.200_DOP_0.015_2_r1d.csv
#        q_A^-1             I 
  4.457554e-03    4.151549e-02
  4.756484e-03    3.335243e-02
  5.055415e-03    2.497354e-02
  5.354345e-03    1.866532e-02
  5.653276e-03    1.493766e-02
  5.952206e-03    2.501432e-02
  6.251136e-03    2.274675e-02
  6.550067e-03    1.967403e-02
  6.848997e-03    1.667598e-02
  7.147927e-03    1.391101e-02
  7.446858e-03    1.178558e-02
  7.745788e-03    1.005964e-02
  8.044719e-03    8.661044e-03
  8.343649e-03    7.516002e-03
  8.642579e-03    6.497032e-03
  8.941510e-03    5.710491e-03
  9.240440e-03    5.041584e-03
  9.539371e-03    4.431657e-03
  9.838301e-03    3.959673e-03
  1.013723e-02    3.550747e-03
  1.043616e-02    3.154879e-03
  1.073509e-02    2.820944e-03
  1.103402e-02    2.542251e-03
  1.133295e-02    2.291445e-03
  1.163188e-02    2.072518e-03
  1.193081e-02    1.889494e-03
  1.222974e-02    1.736925e-03
  1.252867e-02    1.598591e-03
  1.282760e-02    1.456856e-03
  1.312654e-02    1.334075e-03
  1.342547e-02    1.221612e-03
  1.372440e-02    1.130163e-03
  1.402333e-02    1.045664e-03
  1.432226e-02    9.701160e-04
  1.462119e-02    9.032535e-04
  1.492012e-02    8.427860e-04
  1.521905e-02    7.852413e-04
  1.551798e-02    7.391475e-04
  1.581691e-02    6.835606e-04
  1.611584e-02    6.401328e-04
  1.641477e-02    6.048043e-04
  1.671370e-02    5.726512e-04
  1.701263e-02    5.419669e-04
  1.731156e-02    5.080437e-04
  1.761049e-02    4.839535e-04
  1.790942e-02    4.571000e-04
  1.820835e-02    4.318271e-04
  1.850728e-02    4.122811e-04
  1.880621e-02    3.921047e-04
  1.910514e-02    3.680128e-04
  1.940407e-02    3.566144e-04
  1.970300e-02    3.408666e-04
  2.000193e-02    3.237574e-04
  2.030086e-02    3.130845e-04
  2.059979e-02    3.040402e-04
  2.089873e-02    2.937001e-04
  2.119766e-02    2.799320e-04
  2.149659e-02    2.700041e-04
  2.179552e-02    2.588762e-04
  2.209445e-02    2.496077e-04
  2.239338e-02    2.443655e-04
  2.269231e-02    2.370478e-04
  2.299124e-02    2.292054e-04
  2.329017e-02    2.237024e-04
  2.358910e-02    2.160561e-04
  2.388803e-02    2.043259e-04
  2.418696e-02    1.986680e-04
  2.448589e-02    1.943134e-04
  2.478482e-02    1.938551e-04
  2.508375e-02    1.901089e-04
  2.538268e-02    1.851647e-04
  2.568161e-02    1.837355e-04
  2.598054e-02    1.768152e-04
  2.627947e-02    1.728306e-04
  2.657840e-02    1.697443e-04
  2.687733e-02    1.677232e-04
  2.717626e-02    1.628935e-04
  2.747519e-02    1.591568e-04
  2.777412e-02    1.557536e-04
  2.807305e-02    1.513166e-04
  2.837198e-02    1.501505e-04
  2.867092e-02    1.506018e-04
  2.896985e-02    1.468428e-04
  2.926878e-02    1.444798e-04
  2.956771e-02    1.431734e-04
  2.986664e-02    1.416476e-04
  3.016557e-02    1.392503e-04
  3.046450e-02    1.379435e-04
  3.076343e-02    1.349936e-04
  3.106236e-02    1.321100e-04
  3.136129e-02    1.311281e-04
  3.166022e-02    1.288949e-04
  3.195915e-02    1.284123e-04
  3.225808e-02    1.272900e-04
  3.255701e-02    1.275291e-04
  3.285594e-02    1.230523e-04
  3.315487e-02    1.207534e-04
  3.345380e-02    1.225502e-04
  3.375273e-02    1.221824e-04
  3.405166e-02    1.194447e-04
  3.435059e-02    1.180291e-04
  3.464952e-02    1.164521e-04
  3.494845e-02    1.155113e-04
  3.524738e-02    1.146950e-04
  3.554631e-02    1.162356e-04
  3.584524e-02    1.126386e-04
  3.614417e-02    1.104213e-04
  3.644310e-02    1.099386e-04
  3.674204e-02    1.098918e-04
  3.704097e-02    1.098732e-04
  3.733990e-02    1.102215e-04
  3.763883e-02    1.089472e-04
  3.793776e-02    1.062535e-04
  3.823669e-02    1.060565e-04
  3.853562e-02    1.058139e-04
  3.883455e-02    1.047980e-04
  3.913348e-02    1.035768e-04
  3.943241e-02    1.040178e-04
  3.973134e-02    1.057350e-04
  4.003027e-02    1.046163e-04
  4.032920e-02    1.021035e-04
  4.062813e-02    1.033213e-04
  4.092706e-02    1.015673e-04
  4.122599e-02    9.914366e-05
  4.152492e-02    9.776942e-05
  4.182385e-02    9.901902e-05
  4.212278e-02    1.006810e-04
  4.242171e-02    1.000737e-04
  4.272064e-02    9.969115e-05
  4.301957e-02    9.928822e-05
  4.331850e-02    9.906358e-05
  4.361743e-02    9.977834e-05
  4.391636e-02    9.870013e-05
  4.421529e-02    9.758981e-05
  4.451423e-02    9.824694e-05
  4.481316e-02    9.825412e-05
  4.511209e-02    9.717076e-05
  4.541102e-02    9.753070e-05
  4.570995e-02    9.651999e-05
  4.600888e-02    9.671506e-05
  4.630781e-02    9.683926e-05
  4.660674e-02    9.815707e-05
  4.690567e-02    9.740546e-05
  4.720460e-02    9.863438e-05
  4.750353e-02    9.833321e-05
  4.780246e-02    9.636977e-05
  4.810139e-02    9.398763e-05
  4.840032e-02    9.539917e-05
  4.869925e-02    9.810744e-05
  4.899818e-02    9.808297e-05
  4.929711e-02    9.577706e-05
  4.959604e-02    9.505561e-05
  4.989497e-02    9.745295e-05
  5.019390e-02    9.817137e-05
  5.049283e-02    9.772023e-05
  5.079176e-02    9.677400e-05
  5.109069e-02    9.612338e-05
  5.138962e-02    9.791834e-05
  5.168855e-02    9.992984e-05
  5.198748e-02    1.010717e-04
  5.228642e-02    9.954577e-05
  5.258535e-02    9.871196e-05
  5.288428e-02    9.745613e-05
  5.318321e-02    9.668064e-05
  5.348214e-02    9.719023e-05
  5.378107e-02    9.803453e-05
  5.408000e-02    9.709744e-05
  5.437893e-02    9.608093e-05
  5.467786e-02    9.708598e-05
  5.497679e-02    9.649416e-05
  5.527572e-02    9.634265e-05
  5.557465e-02    9.754554e-05
  5.587358e-02    9.838866e-05
  5.617251e-02    9.930754e-05
  5.647144e-02    9.782155e-05
  5.677037e-02    9.841797e-05
  5.706930e-02    9.824878e-05
  5.736823e-02    9.920653e-05
  5.766716e-02    9.799730e-05
  5.796609e-02    9.787279e-05
  5.826502e-02    9.819122e-05
  5.856395e-02    9.832443e-05
  5.886288e-02    9.858207e-05
  5.916181e-02    9.731235e-05
  5.946074e-02    9.829009e-05
  5.975967e-02    9.983662e-05
  6.005861e-02    1.000414e-04
  6.035754e-02    9.988129e-05
  6.065647e-02    1.004807e-04
  6.095540e-02    1.016777e-04
  6.125433e-02    1.015353e-04
  6.155326e-02    1.021297e-04
  6.185219e-02    9.929842e-05
  6.215112e-02    9.909789e-05
  6.245005e-02    1.011737e-04
  6.274898e-02    1.016467e-04
  6.304791e-02    1.017216e-04
  6.334684e-02    1.014849e-04
  6.364577e-02    1.014435e-04
  6.394470e-02    1.005689e-04
  6.424363e-02    1.022032e-04
  6.454256e-02    1.002080e-04
  6.484149e-02    9.912688e-05
  6.514042e-02    1.018225e-04
  6.543935e-02    1.021826e-04
  6.573828e-02    1.006052e-04
  6.603721e-02    1.018474e-04
  6.633614e-02    1.030015e-04
  6.663507e-02    1.026764e-04
  6.693400e-02    1.032083e-04
  6.723293e-02    1.036139e-04
  6.753186e-02    1.026653e-04
  6.783080e-02    1.016927e-04
  6.812973e-02    1.022399e-04
  6.842866e-02    1.032485e-04
  6.872759e-02    1.035419e-04
  6.902652e-02    1.050275e-04
  6.932545e-02    1.054945e-04
  6.962438e-02    1.031419e-04
  6.992331e-02    1.032326e-04
  7.022224e-02    1.045480e-04
  7.052117e-02    1.045287e-04
  7.082010e-02    1.034168e-04
  7.111903e-02    1.020865e-04
  7.141796e-02    1.031391e-04
  7.171689e-02    1.039853e-04
  7.201582e-02    1.040489e-04
  7.231475e-02    1.040485e-04
  7.261368e-02    1.046262e-04
  7.291261e-02    1.051244e-04
  7.321154e-02    1.050442e-04
  7.351047e-02    1.061366e-04
  7.380940e-02    1.046400e-04
  7.410833e-02    1.034629e-04
  7.440726e-02    1.033672e-04
  7.470619e-02    1.046771e-04
  7.500512e-02    1.057565e-04
  7.530405e-02    1.051300e-04
  7.560299e-02    1.047502e-04
  7.590192e-02    1.046060e-04
  7.620085e-02    1.049014e-04
  7.649978e-02    1.054510e-04
  7.679871e-02    1.059254e-04
  7.709764e-02    1.051993e-04
  7.739657e-02    1.043780e-04
  7.769550e-02    1.052726e-04
  7.799443e-02    1.046419e-04
  7.829336e-02    1.044224e-04
  7.859229e-02    1.039489e-04
  7.889122e-02    1.038944e-04
  7.919015e-02    1.042925e-04
  7.948908e-02    1.035825e-04
  7.978801e-02    1.042074e-04
  8.008694e-02    1.025769e-04
  8.038587e-02    1.037030e-04
  8.068480e-02    1.041521e-04
  8.098373e-02    1.029880e-04
  8.128266e-02    1.033983e-04
  8.158159e-02    1.037987e-04
  8.188052e-02    1.031344e-04
  8.217945e-02    1.025243e-04
  8.247838e-02    1.036827e-04
  8.277731e-02    1.048951e-04
  8.307624e-02    1.032073e-04
  8.337518e-02    1.019662e-04
  8.367411e-02    1.026280e-04
  8.397304e-02    1.030718e-04
  8.427197e-02    1.007729e-04
  8.457090e-02    1.002674e-04
  8.486983e-02    9.951821e-05
  8.516876e-02    1.011583e-04
  8.546769e-02    1.016723e-04
  8.576662e-02    1.014321e-04
  8.606555e-02    1.018660e-04
  8.636448e-02    1.017843e-04
  8.666341e-02    1.022181e-04
  8.696234e-02    1.006680e-04
  8.726127e-02    1.000615e-04
  8.756020e-02    9.934189e-05
  8.785913e-02    9.868221e-05
  8.815806e-02    1.008120e-04
  8.845699e-02    1.003032e-04
  8.875592e-02    1.003868e-04
  8.905485e-02    9.958380e-05
  8.935378e-02    9.907674e-05
  8.965271e-02    1.001804e-04
  8.995164e-02    9.855242e-05
  9.025057e-02    9.842288e-05
  9.054950e-02    9.852136e-05
  9.084843e-02    9.692709e-05
  9.114737e-02    9.683560e-05
  9.144630e-02    9.828487e-05
  9.174523e-02    9.898683e-05
  9.204416e-02    9.853207e-05
  9.234309e-02    9.867706e-05
  9.264202e-02    9.767341e-05
  9.294095e-02    9.796279e-05
  9.323988e-02    9.672630e-05
  9.353881e-02    9.725258e-05
  9.383774e-02    9.728366e-05
  9.413667e-02    9.617155e-05
  9.443560e-02    9.617059e-05
  9.473453e-02    9.656340e-05
  9.503346e-02    9.700861e-05
  9.533239e-02    9.736221e-05
  9.563132e-02    9.663289e-05
  9.593025e-02    9.681697e-05
  9.622918e-02    9.663033e-05
  9.652811e-02    9.554598e-05
  9.682704e-02    9.627886e-05
  9.712597e-02    9.613924e-05
  9.742490e-02    9.580161e-05
  9.772383e-02    9.686860e-05
  9.802276e-02    9.512952e-05
  9.832169e-02    9.447566e-05
  9.862062e-02    9.501433e-05
  9.891956e-02    9.410199e-05
  9.921849e-02    9.350884e-05
  9.951742e-02    9.479713e-05
  9.981635e-02    9.358954e-05
  1.001153e-01    9.288717e-05
  1.004142e-01    9.306338e-05
  1.007131e-01    9.293936e-05
  1.010121e-01    9.333101e-05
  1.013110e-01    9.347221e-05
  1.016099e-01    9.203411e-05
  1.019089e-01    9.227205e-05
  1.022078e-01    9.145130e-05
  1.025067e-01    9.174297e-05
  1.028057e-01    9.190127e-05
  1.031046e-01    9.151042e-05
  1.034035e-01    9.108149e-05
  1.037024e-01    9.034968e-05
  1.040014e-01    9.010317e-05
  1.043003e-01    9.173823e-05
  1.045992e-01    9.089407e-05
  1.048982e-01    9.061569e-05
  1.051971e-01    8.935942e-05
  1.054960e-01    8.792108e-05
  1.057950e-01    8.824658e-05
  1.060939e-01    8.886425e-05
  1.063928e-01    8.825985e-05
  1.066917e-01    8.917684e-05
  1.069907e-01    8.882497e-05
  1.072896e-01    8.902467e-05
  1.075885e-01    8.934089e-05
  1.078875e-01    8.799584e-05
  1.081864e-01    8.712656e-05
  1.084853e-01    8.838635e-05
  1.087843e-01    8.947857e-05
  1.090832e-01    8.772119e-05
  1.093821e-01    8.817353e-05
  1.096810e-01    8.779675e-05
  1.099800e-01    8.500146e-05
  1.102789e-01    8.531076e-05
  1.105778e-01    8.720086e-05
  1.108768e-01    8.658961e-05
  1.111757e-01    8.344778e-05
  1.114746e-01    8.516572e-05
  1.117736e-01    8.503657e-05
  1.120725e-01    8.407772e-05
  1.123714e-01    8.511521e-05
  1.126704e-01    8.681791e-05
  1.129693e-01    8.714483e-05
  1.132682e-01    8.511881e-05
  1.135671e-01    8.497629e-05
  1.138661e-01    8.583047e-05
  1.141650e-01    8.584080e-05
  1.144639e-01    8.630952e-05
  1.147629e-01    8.626003e-05
  1.150618e-01    8.565740e-05
  1.153607e-01    8.216217e-05
  1.156597e-01    8.323658e-05
  1.159586e-01    8.594467e-05
  1.162575e-01    8.448988e-05
  1.165564e-01    8.364589e-05
  1.168554e-01    8.262303e-05
  1.171543e-01    8.258313e-05
  1.174532e-01    8.480668e-05
  1.177522e-01    8.713442e-05
  1.180511e-01    8.688049e-05
  1.183500e-01    8.267384e-05
  1.186490e-01    8.122229e-05
  1.189479e-01    8.229616e-05
  1.192468e-01    7.909541e-05
  1.195458e-01    7.804203e-05
  1.198447e-01    8.120722e-05
  1.201436e-01    8.341177e-05
  1.204425e-01    9.672403e-05
  1.207415e-01    8.991030e-05
  1.210404e-01    5.621668e-05
  1.213393e-01    0.000000e+00
  1.216383e-01    0.000000e+00
  1.219372e-01    0.000000e+00
  1.222361e-01    0.000000e+00
  1.225351e-01    0.000000e+00
  1.228340e-01    0.000000e+00
  1.231329e-01    0.000000e+00
  1.234318e-01    0.000000e+00
  1.237308e-01    0.000000e+00
  1.240297e-01    0.000000e+00
  1.243286e-01    0.000000e+00
  1.246276e-01    0.000000e+00
  1.249265e-01    0.000000e+00
  1.252254e-01    0.000000e+00
  1.255244e-01    0.000000e+00
  1.258233e-01    0.000000e+00
  1.261222e-01    0.000000e+00
  1.264212e-01    0.000000e+00
  1.267201e-01    0.000000e+00
  1.270190e-01    0.000000e+00
  1.273179e-01    0.000000e+00
  1.276169e-01    0.000000e+00
  1.279158e-01    0.000000e+00
  1.282147e-01    0.000000e+00
  1.285137e-01    0.000000e+00
  1.288126e-01    0.000000e+00
  1.291115e-01    0.000000e+00
  1.294105e-01    0.000000e+00
  1.297094e-01    0.000000e+00
  1.300083e-01    0.000000e+00
  1.303072e-01    0.000000e+00
  1.306062e-01    0.000000e+00
  1.309051e-01    0.000000e+00
  1.312040e-01    0.000000e+00
  1.315030e-01    0.000000e+00
  1.318019e-01    0.000000e+00
  1.321008e-01    0.000000e+00
  1.323998e-01    0.000000e+00
  1.326987e-01    0.000000e+00
  1.329976e-01    0.000000e+00
  1.332965e-01    0.000000e+00
  1.335955e-01    0.000000e+00
  1.338944e-01    0.000000e+00
  1.341933e-01    0.000000e+00
  1.344923e-01    0.000000e+00
  1.347912e-01    0.000000e+00
  1.350901e-01    0.000000e+00
  1.353891e-01    0.000000e+00
  1.356880e-01    0.000000e+00
  1.359869e-01    0.000000e+00
  1.362859e-01    0.000000e+00
  1.365848e-01    0.000000e+00
  1.368837e-01    0.000000e+00
  1.371826e-01    0.000000e+00
  1.374816e-01    0.000000e+00
  1.377805e-01    0.000000e+00
  1.380794e-01    0.000000e+00
  1.383784e-01    0.000000e+00
  1.386773e-01    0.000000e+00
  1.389762e-01    0.000000e+00
  1.392752e-01    0.000000e+00
  1.395741e-01    0.000000e+00
  1.398730e-01    0.000000e+00
  1.401719e-01    0.000000e+00
  1.404709e-01    0.000000e+00
  1.407698e-01    0.000000e+00
  1.410687e-01    0.000000e+00
  1.413677e-01    0.000000e+00
  1.416666e-01    0.000000e+00
  1.419655e-01    0.000000e+00
  1.422645e-01    0.000000e+00
  1.425634e-01    0.000000e+00
  1.428623e-01    0.000000e+00
  1.431613e-01    0.000000e+00
  1.434602e-01    0.000000e+00
  1.437591e-01    0.000000e+00
  1.440580e-01    0.000000e+00
  1.443570e-01    0.000000e+00
  1.446559e-01    0.000000e+00
  1.449548e-01    0.000000e+00
  1.452538e-01    0.000000e+00
  1.455527e-01    0.000000e+00
  1.458516e-01    0.000000e+00
  1.461506e-01    0.000000e+00
  1.464495e-01    0.000000e+00
  1.467484e-01    0.000000e+00
  1.470473e-01    0.000000e+00
  1.473463e-01    0.000000e+00
  1.476452e-01    0.000000e+00
  1.479441e-01    0.000000e+00
  1.482431e-01    0.000000e+00
  1.485420e-01    0.000000e+00
  1.488409e-01    0.000000e+00
  1.491399e-01    0.000000e+00
  1.494388e-01    0.000000e+00
  1.497377e-01    0.000000e+00
  1.500367e-01    0.000000e+00
  1.503356e-01    0.000000e+00
  1.506345e-01    0.000000e+00
  1.509334e-01    0.000000e+00
  1.512324e-01    0.000000e+00
  1.515313e-01    0.000000e+00
  1.518302e-01    0.000000e+00
  1.521292e-01    0.000000e+00
  1.524281e-01    0.000000e+00
  1.527270e-01    0.000000e+00
  1.530260e-01    0.000000e+00
  1.533249e-01    0.000000e+00
  1.536238e-01    0.000000e+00
