# == pyFAI calibration ==
# Distance Sample to Detector: 2.266 m
# PONI: 5.659e-02, 4.293e-02 m
# Rotations: 0.000000 0.000000 0.000000 rad
# 
# == Fit2d calibration ==
# Distance Sample-beamCenter: 2266.000 mm
# Center: x=249.594, y=329.012 pix
# Tilt: 0.000 deg  TiltPlanRot: 0.000 deg
# 
# Detector Pilatus 300k	 PixelSize= 1.720e-04, 1.720e-04 m
#    Detector has a mask: True 
#    Detector has a dark current: False 
#    detector has a flat field: False 
# 
# Wavelength: 1.27818e-10 m
# Mask applied: user provided
# Dark current applied: False
# Flat field applied: False
# Polarization factor: None
# Normalization factor: 14450601.0
# --> MT-AL_F127_220301_47f4ed54-d62a-44e0-b6a9-93cc51935121_2_r1d.csv
#        q_A^-1             I 
  4.457554e-03    1.847976e-03
  4.756484e-03    1.448343e-03
  5.055415e-03    1.023848e-03
  5.354345e-03    7.107260e-04
  5.653276e-03    5.492696e-04
  5.952206e-03    8.919628e-04
  6.251136e-03    8.143188e-04
  6.550067e-03    7.084410e-04
  6.848997e-03    6.025847e-04
  7.147927e-03    5.090433e-04
  7.446858e-03    4.339555e-04
  7.745788e-03    3.722591e-04
  8.044719e-03    3.203654e-04
  8.343649e-03    2.795549e-04
  8.642579e-03    2.443257e-04
  8.941510e-03    2.146156e-04
  9.240440e-03    1.906877e-04
  9.539371e-03    1.693306e-04
  9.838301e-03    1.504512e-04
  1.013723e-02    1.350188e-04
  1.043616e-02    1.215130e-04
  1.073509e-02    1.094078e-04
  1.103402e-02    9.916151e-05
  1.133295e-02    8.995811e-05
  1.163188e-02    8.201987e-05
  1.193081e-02    7.484869e-05
  1.222974e-02    6.855607e-05
  1.252867e-02    6.308560e-05
  1.282760e-02    5.812240e-05
  1.312654e-02    5.361652e-05
  1.342547e-02    4.971705e-05
  1.372440e-02    4.609811e-05
  1.402333e-02    4.280918e-05
  1.432226e-02    3.988308e-05
  1.462119e-02    3.713353e-05
  1.492012e-02    3.466004e-05
  1.521905e-02    3.259135e-05
  1.551798e-02    3.076772e-05
  1.581691e-02    2.880042e-05
  1.611584e-02    2.711960e-05
  1.641477e-02    2.554393e-05
  1.671370e-02    2.430868e-05
  1.701263e-02    2.311968e-05
  1.731156e-02    2.192626e-05
  1.761049e-02    2.082966e-05
  1.790942e-02    1.984825e-05
  1.820835e-02    1.889354e-05
  1.850728e-02    1.801010e-05
  1.880621e-02    1.731687e-05
  1.910514e-02    1.661290e-05
  1.940407e-02    1.588779e-05
  1.970300e-02    1.519829e-05
  2.000193e-02    1.467001e-05
  2.030086e-02    1.411593e-05
  2.059979e-02    1.363477e-05
  2.089873e-02    1.316404e-05
  2.119766e-02    1.281538e-05
  2.149659e-02    1.239807e-05
  2.179552e-02    1.198217e-05
  2.209445e-02    1.167123e-05
  2.239338e-02    1.128039e-05
  2.269231e-02    1.097006e-05
  2.299124e-02    1.069292e-05
  2.329017e-02    1.041218e-05
  2.358910e-02    1.019308e-05
  2.388803e-02    9.947343e-06
  2.418696e-02    9.676770e-06
  2.448589e-02    9.480494e-06
  2.478482e-02    9.302918e-06
  2.508375e-02    9.166133e-06
  2.538268e-02    9.016571e-06
  2.568161e-02    8.829620e-06
  2.598054e-02    8.652602e-06
  2.627947e-02    8.497977e-06
  2.657840e-02    8.372238e-06
  2.687733e-02    8.252581e-06
  2.717626e-02    8.153985e-06
  2.747519e-02    8.038081e-06
  2.777412e-02    7.944496e-06
  2.807305e-02    7.811837e-06
  2.837198e-02    7.662470e-06
  2.867092e-02    7.565582e-06
  2.896985e-02    7.503258e-06
  2.926878e-02    7.392521e-06
  2.956771e-02    7.315847e-06
  2.986664e-02    7.210318e-06
  3.016557e-02    7.136878e-06
  3.046450e-02    7.061940e-06
  3.076343e-02    7.036821e-06
  3.106236e-02    6.971891e-06
  3.136129e-02    6.894357e-06
  3.166022e-02    6.845993e-06
  3.195915e-02    6.791111e-06
  3.225808e-02    6.690942e-06
  3.255701e-02    6.600663e-06
  3.285594e-02    6.584030e-06
  3.315487e-02    6.498929e-06
  3.345380e-02    6.428937e-06
  3.375273e-02    6.387604e-06
  3.405166e-02    6.334891e-06
  3.435059e-02    6.260746e-06
  3.464952e-02    6.192921e-06
  3.494845e-02    6.155075e-06
  3.524738e-02    6.110061e-06
  3.554631e-02    6.064548e-06
  3.584524e-02    6.004785e-06
  3.614417e-02    5.967934e-06
  3.644310e-02    5.905784e-06
  3.674204e-02    5.877435e-06
  3.704097e-02    5.847216e-06
  3.733990e-02    5.768827e-06
  3.763883e-02    5.704915e-06
  3.793776e-02    5.658159e-06
  3.823669e-02    5.638988e-06
  3.853562e-02    5.623378e-06
  3.883455e-02    5.590975e-06
  3.913348e-02    5.546188e-06
  3.943241e-02    5.498136e-06
  3.973134e-02    5.455210e-06
  4.003027e-02    5.463459e-06
  4.032920e-02    5.475085e-06
  4.062813e-02    5.425304e-06
  4.092706e-02    5.386068e-06
  4.122599e-02    5.382585e-06
  4.152492e-02    5.345871e-06
  4.182385e-02    5.328362e-06
  4.212278e-02    5.331042e-06
  4.242171e-02    5.298408e-06
  4.272064e-02    5.281123e-06
  4.301957e-02    5.248001e-06
  4.331850e-02    5.236137e-06
  4.361743e-02    5.217980e-06
  4.391636e-02    5.219042e-06
  4.421529e-02    5.212273e-06
  4.451423e-02    5.195549e-06
  4.481316e-02    5.214114e-06
  4.511209e-02    5.179783e-06
  4.541102e-02    5.146769e-06
  4.570995e-02    5.158434e-06
  4.600888e-02    5.167743e-06
  4.630781e-02    5.179634e-06
  4.660674e-02    5.153424e-06
  4.690567e-02    5.136699e-06
  4.720460e-02    5.157472e-06
  4.750353e-02    5.140817e-06
  4.780246e-02    5.114865e-06
  4.810139e-02    5.120782e-06
  4.840032e-02    5.121638e-06
  4.869925e-02    5.094580e-06
  4.899818e-02    5.107715e-06
  4.929711e-02    5.111337e-06
  4.959604e-02    5.088969e-06
  4.989497e-02    5.083558e-06
  5.019390e-02    5.086576e-06
  5.049283e-02    5.102640e-06
  5.079176e-02    5.103402e-06
  5.109069e-02    5.124337e-06
  5.138962e-02    5.163827e-06
  5.168855e-02    5.264297e-06
  5.198748e-02    5.349390e-06
  5.228642e-02    5.281771e-06
  5.258535e-02    5.156567e-06
  5.288428e-02    5.091023e-06
  5.318321e-02    5.064040e-06
  5.348214e-02    5.080710e-06
  5.378107e-02    5.084201e-06
  5.408000e-02    5.080443e-06
  5.437893e-02    5.060869e-06
  5.467786e-02    5.069091e-06
  5.497679e-02    5.084293e-06
  5.527572e-02    5.108177e-06
  5.557465e-02    5.092297e-06
  5.587358e-02    5.088987e-06
  5.617251e-02    5.086602e-06
  5.647144e-02    5.100083e-06
  5.677037e-02    5.090325e-06
  5.706930e-02    5.076522e-06
  5.736823e-02    5.106970e-06
  5.766716e-02    5.121465e-06
  5.796609e-02    5.125545e-06
  5.826502e-02    5.136227e-06
  5.856395e-02    5.147425e-06
  5.886288e-02    5.159745e-06
  5.916181e-02    5.171129e-06
  5.946074e-02    5.155508e-06
  5.975967e-02    5.150569e-06
  6.005861e-02    5.181936e-06
  6.035754e-02    5.193275e-06
  6.065647e-02    5.198624e-06
  6.095540e-02    5.242292e-06
  6.125433e-02    5.335400e-06
  6.155326e-02    5.365607e-06
  6.185219e-02    5.278771e-06
  6.215112e-02    5.233152e-06
  6.245005e-02    5.234976e-06
  6.274898e-02    5.204917e-06
  6.304791e-02    5.232891e-06
  6.334684e-02    5.251587e-06
  6.364577e-02    5.284960e-06
  6.394470e-02    5.302372e-06
  6.424363e-02    5.279167e-06
  6.454256e-02    5.250076e-06
  6.484149e-02    5.274853e-06
  6.514042e-02    5.297677e-06
  6.543935e-02    5.302791e-06
  6.573828e-02    5.303069e-06
  6.603721e-02    5.284682e-06
  6.633614e-02    5.305707e-06
  6.663507e-02    5.339029e-06
  6.693400e-02    5.342031e-06
  6.723293e-02    5.341003e-06
  6.753186e-02    5.340003e-06
  6.783080e-02    5.327955e-06
  6.812973e-02    5.356306e-06
  6.842866e-02    5.380793e-06
  6.872759e-02    5.392425e-06
  6.902652e-02    5.409627e-06
  6.932545e-02    5.403326e-06
  6.962438e-02    5.403330e-06
  6.992331e-02    5.437878e-06
  7.022224e-02    5.439128e-06
  7.052117e-02    5.429527e-06
  7.082010e-02    5.418692e-06
  7.111903e-02    5.412867e-06
  7.141796e-02    5.433192e-06
  7.171689e-02    5.435701e-06
  7.201582e-02    5.432557e-06
  7.231475e-02    5.436385e-06
  7.261368e-02    5.463551e-06
  7.291261e-02    5.487302e-06
  7.321154e-02    5.517907e-06
  7.351047e-02    5.499305e-06
  7.380940e-02    5.490945e-06
  7.410833e-02    5.507629e-06
  7.440726e-02    5.510797e-06
  7.470619e-02    5.519858e-06
  7.500512e-02    5.503504e-06
  7.530405e-02    5.465782e-06
  7.560299e-02    5.475675e-06
  7.590192e-02    5.495565e-06
  7.620085e-02    5.490768e-06
  7.649978e-02    5.458932e-06
  7.679871e-02    5.453897e-06
  7.709764e-02    5.474947e-06
  7.739657e-02    5.471174e-06
  7.769550e-02    5.468094e-06
  7.799443e-02    5.479471e-06
  7.829336e-02    5.484261e-06
  7.859229e-02    5.476481e-06
  7.889122e-02    5.466536e-06
  7.919015e-02    5.473569e-06
  7.948908e-02    5.463909e-06
  7.978801e-02    5.445963e-06
  8.008694e-02    5.456649e-06
  8.038587e-02    5.457596e-06
  8.068480e-02    5.436785e-06
  8.098373e-02    5.458866e-06
  8.128266e-02    5.468510e-06
  8.158159e-02    5.444327e-06
  8.188052e-02    5.432930e-06
  8.217945e-02    5.444559e-06
  8.247838e-02    5.417966e-06
  8.277731e-02    5.417154e-06
  8.307624e-02    5.429677e-06
  8.337518e-02    5.406476e-06
  8.367411e-02    5.412410e-06
  8.397304e-02    5.413916e-06
  8.427197e-02    5.397985e-06
  8.457090e-02    5.389177e-06
  8.486983e-02    5.375798e-06
  8.516876e-02    5.386375e-06
  8.546769e-02    5.364907e-06
  8.576662e-02    5.350200e-06
  8.606555e-02    5.360519e-06
  8.636448e-02    5.341019e-06
  8.666341e-02    5.331888e-06
  8.696234e-02    5.325648e-06
  8.726127e-02    5.323553e-06
  8.756020e-02    5.305666e-06
  8.785913e-02    5.291263e-06
  8.815806e-02    5.288415e-06
  8.845699e-02    5.273730e-06
  8.875592e-02    5.264352e-06
  8.905485e-02    5.249254e-06
  8.935378e-02    5.240623e-06
  8.965271e-02    5.252165e-06
  8.995164e-02    5.232316e-06
  9.025057e-02    5.229897e-06
  9.054950e-02    5.232098e-06
  9.084843e-02    5.202867e-06
  9.114737e-02    5.160438e-06
  9.144630e-02    5.160216e-06
  9.174523e-02    5.178656e-06
  9.204416e-02    5.162232e-06
  9.234309e-02    5.167178e-06
  9.264202e-02    5.148695e-06
  9.294095e-02    5.117582e-06
  9.323988e-02    5.129972e-06
  9.353881e-02    5.123534e-06
  9.383774e-02    5.123733e-06
  9.413667e-02    5.080046e-06
  9.443560e-02    5.062091e-06
  9.473453e-02    5.088030e-06
  9.503346e-02    5.104280e-06
  9.533239e-02    5.080091e-06
  9.563132e-02    5.074188e-06
  9.593025e-02    5.066204e-06
  9.622918e-02    5.067710e-06
  9.652811e-02    5.088560e-06
  9.682704e-02    5.096206e-06
  9.712597e-02    5.083582e-06
  9.742490e-02    5.063730e-06
  9.772383e-02    5.044827e-06
  9.802276e-02    5.022886e-06
  9.832169e-02    4.977753e-06
  9.862062e-02    4.951254e-06
  9.891956e-02    4.962134e-06
  9.921849e-02    4.962086e-06
  9.951742e-02    4.927878e-06
  9.981635e-02    4.912319e-06
  1.001153e-01    4.913303e-06
  1.004142e-01    4.918075e-06
  1.007131e-01    4.909751e-06
  1.010121e-01    4.884762e-06
  1.013110e-01    4.880730e-06
  1.016099e-01    4.858228e-06
  1.019089e-01    4.843359e-06
  1.022078e-01    4.835395e-06
  1.025067e-01    4.832327e-06
  1.028057e-01    4.850417e-06
  1.031046e-01    4.846355e-06
  1.034035e-01    4.812722e-06
  1.037024e-01    4.793167e-06
  1.040014e-01    4.805009e-06
  1.043003e-01    4.797068e-06
  1.045992e-01    4.783043e-06
  1.048982e-01    4.758792e-06
  1.051971e-01    4.757209e-06
  1.054960e-01    4.745002e-06
  1.057950e-01    4.736851e-06
  1.060939e-01    4.724805e-06
  1.063928e-01    4.734828e-06
  1.066917e-01    4.728642e-06
  1.069907e-01    4.701600e-06
  1.072896e-01    4.694177e-06
  1.075885e-01    4.701883e-06
  1.078875e-01    4.699607e-06
  1.081864e-01    4.692889e-06
  1.084853e-01    4.683108e-06
  1.087843e-01    4.657917e-06
  1.090832e-01    4.633999e-06
  1.093821e-01    4.621944e-06
  1.096810e-01    4.630363e-06
  1.099800e-01    4.595041e-06
  1.102789e-01    4.571704e-06
  1.105778e-01    4.599282e-06
  1.108768e-01    4.588601e-06
  1.111757e-01    4.565751e-06
  1.114746e-01    4.560040e-06
  1.117736e-01    4.538543e-06
  1.120725e-01    4.531327e-06
  1.123714e-01    4.517209e-06
  1.126704e-01    4.499224e-06
  1.129693e-01    4.466466e-06
  1.132682e-01    4.451797e-06
  1.135671e-01    4.448360e-06
  1.138661e-01    4.436294e-06
  1.141650e-01    4.421360e-06
  1.144639e-01    4.417774e-06
  1.147629e-01    4.462130e-06
  1.150618e-01    4.469554e-06
  1.153607e-01    4.460839e-06
  1.156597e-01    4.446495e-06
  1.159586e-01    4.384310e-06
  1.162575e-01    4.358715e-06
  1.165564e-01    4.358994e-06
  1.168554e-01    4.405065e-06
  1.171543e-01    4.428244e-06
  1.174532e-01    4.431623e-06
  1.177522e-01    4.419132e-06
  1.180511e-01    4.441782e-06
  1.183500e-01    4.420233e-06
  1.186490e-01    4.362227e-06
  1.189479e-01    4.355543e-06
  1.192468e-01    4.398193e-06
  1.195458e-01    4.358231e-06
  1.198447e-01    4.333630e-06
  1.201436e-01    4.281029e-06
  1.204425e-01    4.191623e-06
  1.207415e-01    3.834707e-06
  1.210404e-01    3.532462e-06
  1.213393e-01    0.000000e+00
  1.216383e-01    0.000000e+00
  1.219372e-01    0.000000e+00
  1.222361e-01    0.000000e+00
  1.225351e-01    0.000000e+00
  1.228340e-01    0.000000e+00
  1.231329e-01    0.000000e+00
  1.234318e-01    0.000000e+00
  1.237308e-01    0.000000e+00
  1.240297e-01    0.000000e+00
  1.243286e-01    0.000000e+00
  1.246276e-01    0.000000e+00
  1.249265e-01    0.000000e+00
  1.252254e-01    0.000000e+00
  1.255244e-01    0.000000e+00
  1.258233e-01    0.000000e+00
  1.261222e-01    0.000000e+00
  1.264212e-01    0.000000e+00
  1.267201e-01    0.000000e+00
  1.270190e-01    0.000000e+00
  1.273179e-01    0.000000e+00
  1.276169e-01    0.000000e+00
  1.279158e-01    0.000000e+00
  1.282147e-01    0.000000e+00
  1.285137e-01    0.000000e+00
  1.288126e-01    0.000000e+00
  1.291115e-01    0.000000e+00
  1.294105e-01    0.000000e+00
  1.297094e-01    0.000000e+00
  1.300083e-01    0.000000e+00
  1.303072e-01    0.000000e+00
  1.306062e-01    0.000000e+00
  1.309051e-01    0.000000e+00
  1.312040e-01    0.000000e+00
  1.315030e-01    0.000000e+00
  1.318019e-01    0.000000e+00
  1.321008e-01    0.000000e+00
  1.323998e-01    0.000000e+00
  1.326987e-01    0.000000e+00
  1.329976e-01    0.000000e+00
  1.332965e-01    0.000000e+00
  1.335955e-01    0.000000e+00
  1.338944e-01    0.000000e+00
  1.341933e-01    0.000000e+00
  1.344923e-01    0.000000e+00
  1.347912e-01    0.000000e+00
  1.350901e-01    0.000000e+00
  1.353891e-01    0.000000e+00
  1.356880e-01    0.000000e+00
  1.359869e-01    0.000000e+00
  1.362859e-01    0.000000e+00
  1.365848e-01    0.000000e+00
  1.368837e-01    0.000000e+00
  1.371826e-01    0.000000e+00
  1.374816e-01    0.000000e+00
  1.377805e-01    0.000000e+00
  1.380794e-01    0.000000e+00
  1.383784e-01    0.000000e+00
  1.386773e-01    0.000000e+00
  1.389762e-01    0.000000e+00
  1.392752e-01    0.000000e+00
  1.395741e-01    0.000000e+00
  1.398730e-01    0.000000e+00
  1.401719e-01    0.000000e+00
  1.404709e-01    0.000000e+00
  1.407698e-01    0.000000e+00
  1.410687e-01    0.000000e+00
  1.413677e-01    0.000000e+00
  1.416666e-01    0.000000e+00
  1.419655e-01    0.000000e+00
  1.422645e-01    0.000000e+00
  1.425634e-01    0.000000e+00
  1.428623e-01    0.000000e+00
  1.431613e-01    0.000000e+00
  1.434602e-01    0.000000e+00
  1.437591e-01    0.000000e+00
  1.440580e-01    0.000000e+00
  1.443570e-01    0.000000e+00
  1.446559e-01    0.000000e+00
  1.449548e-01    0.000000e+00
  1.452538e-01    0.000000e+00
  1.455527e-01    0.000000e+00
  1.458516e-01    0.000000e+00
  1.461506e-01    0.000000e+00
  1.464495e-01    0.000000e+00
  1.467484e-01    0.000000e+00
  1.470473e-01    0.000000e+00
  1.473463e-01    0.000000e+00
  1.476452e-01    0.000000e+00
  1.479441e-01    0.000000e+00
  1.482431e-01    0.000000e+00
  1.485420e-01    0.000000e+00
  1.488409e-01    0.000000e+00
  1.491399e-01    0.000000e+00
  1.494388e-01    0.000000e+00
  1.497377e-01    0.000000e+00
  1.500367e-01    0.000000e+00
  1.503356e-01    0.000000e+00
  1.506345e-01    0.000000e+00
  1.509334e-01    0.000000e+00
  1.512324e-01    0.000000e+00
  1.515313e-01    0.000000e+00
  1.518302e-01    0.000000e+00
  1.521292e-01    0.000000e+00
  1.524281e-01    0.000000e+00
  1.527270e-01    0.000000e+00
  1.530260e-01    0.000000e+00
  1.533249e-01    0.000000e+00
  1.536238e-01    0.000000e+00
