# == pyFAI calibration ==
# Distance Sample to Detector: 2.266 m
# PONI: 5.659e-02, 4.293e-02 m
# Rotations: 0.000000 0.000000 0.000000 rad
# 
# == Fit2d calibration ==
# Distance Sample-beamCenter: 2266.000 mm
# Center: x=249.594, y=329.012 pix
# Tilt: 0.000 deg  TiltPlanRot: 0.000 deg
# 
# Detector Pilatus 300k	 PixelSize= 1.720e-04, 1.720e-04 m
#    Detector has a mask: True 
#    Detector has a dark current: False 
#    detector has a flat field: False 
# 
# Wavelength: 1.27818e-10 m
# Mask applied: user provided
# Dark current applied: False
# Flat field applied: False
# Polarization factor: None
# Normalization factor: 3745674.4000000004
# --> MT-AL_F127_220225_b5865f68-fc5a-4b6e-bd35-6c4002825353_0_r1d.csv
#        q_A^-1             I 
  4.457554e-03    4.927657e-03
  4.756484e-03    3.870369e-03
  5.055415e-03    2.745498e-03
  5.354345e-03    1.918651e-03
  5.653276e-03    1.474731e-03
  5.952206e-03    2.408593e-03
  6.251136e-03    2.200637e-03
  6.550067e-03    1.918915e-03
  6.848997e-03    1.635021e-03
  7.147927e-03    1.379104e-03
  7.446858e-03    1.174754e-03
  7.745788e-03    1.007998e-03
  8.044719e-03    8.687693e-04
  8.343649e-03    7.577849e-04
  8.642579e-03    6.640911e-04
  8.941510e-03    5.828788e-04
  9.240440e-03    5.164607e-04
  9.539371e-03    4.593406e-04
  9.838301e-03    4.092980e-04
  1.013723e-02    3.661565e-04
  1.043616e-02    3.289165e-04
  1.073509e-02    2.963116e-04
  1.103402e-02    2.681143e-04
  1.133295e-02    2.426698e-04
  1.163188e-02    2.211722e-04
  1.193081e-02    2.029502e-04
  1.222974e-02    1.855181e-04
  1.252867e-02    1.705267e-04
  1.282760e-02    1.572644e-04
  1.312654e-02    1.446781e-04
  1.342547e-02    1.338753e-04
  1.372440e-02    1.241719e-04
  1.402333e-02    1.153485e-04
  1.432226e-02    1.073747e-04
  1.462119e-02    9.978186e-05
  1.492012e-02    9.337210e-05
  1.521905e-02    8.756363e-05
  1.551798e-02    8.214551e-05
  1.581691e-02    7.743465e-05
  1.611584e-02    7.261882e-05
  1.641477e-02    6.862102e-05
  1.671370e-02    6.484995e-05
  1.701263e-02    6.136832e-05
  1.731156e-02    5.838792e-05
  1.761049e-02    5.547213e-05
  1.790942e-02    5.252895e-05
  1.820835e-02    4.997937e-05
  1.850728e-02    4.790742e-05
  1.880621e-02    4.586324e-05
  1.910514e-02    4.381397e-05
  1.940407e-02    4.208196e-05
  1.970300e-02    4.033740e-05
  2.000193e-02    3.881192e-05
  2.030086e-02    3.724920e-05
  2.059979e-02    3.628387e-05
  2.089873e-02    3.487735e-05
  2.119766e-02    3.365710e-05
  2.149659e-02    3.274383e-05
  2.179552e-02    3.168533e-05
  2.209445e-02    3.087373e-05
  2.239338e-02    2.993917e-05
  2.269231e-02    2.889665e-05
  2.299124e-02    2.809634e-05
  2.329017e-02    2.748235e-05
  2.358910e-02    2.682336e-05
  2.388803e-02    2.608684e-05
  2.418696e-02    2.545291e-05
  2.448589e-02    2.494116e-05
  2.478482e-02    2.453040e-05
  2.508375e-02    2.402936e-05
  2.538268e-02    2.349598e-05
  2.568161e-02    2.303921e-05
  2.598054e-02    2.254664e-05
  2.627947e-02    2.220780e-05
  2.657840e-02    2.200998e-05
  2.687733e-02    2.164190e-05
  2.717626e-02    2.109169e-05
  2.747519e-02    2.078015e-05
  2.777412e-02    2.060849e-05
  2.807305e-02    2.028140e-05
  2.837198e-02    1.998906e-05
  2.867092e-02    1.978159e-05
  2.896985e-02    1.944630e-05
  2.926878e-02    1.920108e-05
  2.956771e-02    1.897044e-05
  2.986664e-02    1.876582e-05
  3.016557e-02    1.856916e-05
  3.046450e-02    1.842341e-05
  3.076343e-02    1.810358e-05
  3.106236e-02    1.798511e-05
  3.136129e-02    1.784144e-05
  3.166022e-02    1.760785e-05
  3.195915e-02    1.746631e-05
  3.225808e-02    1.736338e-05
  3.255701e-02    1.714746e-05
  3.285594e-02    1.701286e-05
  3.315487e-02    1.691007e-05
  3.345380e-02    1.671897e-05
  3.375273e-02    1.644800e-05
  3.405166e-02    1.620706e-05
  3.435059e-02    1.613916e-05
  3.464952e-02    1.601108e-05
  3.494845e-02    1.590767e-05
  3.524738e-02    1.582004e-05
  3.554631e-02    1.556264e-05
  3.584524e-02    1.545539e-05
  3.614417e-02    1.530733e-05
  3.644310e-02    1.520446e-05
  3.674204e-02    1.509004e-05
  3.704097e-02    1.496688e-05
  3.733990e-02    1.476953e-05
  3.763883e-02    1.468869e-05
  3.793776e-02    1.466114e-05
  3.823669e-02    1.459004e-05
  3.853562e-02    1.440157e-05
  3.883455e-02    1.419007e-05
  3.913348e-02    1.417087e-05
  3.943241e-02    1.417131e-05
  3.973134e-02    1.404522e-05
  4.003027e-02    1.397675e-05
  4.032920e-02    1.394445e-05
  4.062813e-02    1.382028e-05
  4.092706e-02    1.378288e-05
  4.122599e-02    1.367097e-05
  4.152492e-02    1.354666e-05
  4.182385e-02    1.353944e-05
  4.212278e-02    1.347135e-05
  4.242171e-02    1.339686e-05
  4.272064e-02    1.339257e-05
  4.301957e-02    1.327699e-05
  4.331850e-02    1.322760e-05
  4.361743e-02    1.322066e-05
  4.391636e-02    1.318685e-05
  4.421529e-02    1.319159e-05
  4.451423e-02    1.320136e-05
  4.481316e-02    1.312822e-05
  4.511209e-02    1.307114e-05
  4.541102e-02    1.307082e-05
  4.570995e-02    1.300655e-05
  4.600888e-02    1.306158e-05
  4.630781e-02    1.310117e-05
  4.660674e-02    1.298513e-05
  4.690567e-02    1.295222e-05
  4.720460e-02    1.298360e-05
  4.750353e-02    1.307113e-05
  4.780246e-02    1.297005e-05
  4.810139e-02    1.290262e-05
  4.840032e-02    1.296189e-05
  4.869925e-02    1.291584e-05
  4.899818e-02    1.279926e-05
  4.929711e-02    1.286243e-05
  4.959604e-02    1.287158e-05
  4.989497e-02    1.283766e-05
  5.019390e-02    1.276655e-05
  5.049283e-02    1.286253e-05
  5.079176e-02    1.287036e-05
  5.109069e-02    1.286630e-05
  5.138962e-02    1.300500e-05
  5.168855e-02    1.319241e-05
  5.198748e-02    1.345656e-05
  5.228642e-02    1.332545e-05
  5.258535e-02    1.290551e-05
  5.288428e-02    1.277894e-05
  5.318321e-02    1.276385e-05
  5.348214e-02    1.280409e-05
  5.378107e-02    1.282811e-05
  5.408000e-02    1.270675e-05
  5.437893e-02    1.273078e-05
  5.467786e-02    1.272944e-05
  5.497679e-02    1.267189e-05
  5.527572e-02    1.270316e-05
  5.557465e-02    1.274246e-05
  5.587358e-02    1.278928e-05
  5.617251e-02    1.277821e-05
  5.647144e-02    1.275602e-05
  5.677037e-02    1.270452e-05
  5.706930e-02    1.273680e-05
  5.736823e-02    1.277877e-05
  5.766716e-02    1.283562e-05
  5.796609e-02    1.282781e-05
  5.826502e-02    1.279367e-05
  5.856395e-02    1.285710e-05
  5.886288e-02    1.281226e-05
  5.916181e-02    1.270561e-05
  5.946074e-02    1.277519e-05
  5.975967e-02    1.296310e-05
  6.005861e-02    1.296280e-05
  6.035754e-02    1.299675e-05
  6.065647e-02    1.301186e-05
  6.095540e-02    1.314255e-05
  6.125433e-02    1.329606e-05
  6.155326e-02    1.329096e-05
  6.185219e-02    1.313717e-05
  6.215112e-02    1.298810e-05
  6.245005e-02    1.303127e-05
  6.274898e-02    1.306437e-05
  6.304791e-02    1.305964e-05
  6.334684e-02    1.306112e-05
  6.364577e-02    1.304268e-05
  6.394470e-02    1.305723e-05
  6.424363e-02    1.305364e-05
  6.454256e-02    1.304954e-05
  6.484149e-02    1.311319e-05
  6.514042e-02    1.306032e-05
  6.543935e-02    1.311373e-05
  6.573828e-02    1.311620e-05
  6.603721e-02    1.312757e-05
  6.633614e-02    1.314332e-05
  6.663507e-02    1.320210e-05
  6.693400e-02    1.321745e-05
  6.723293e-02    1.327528e-05
  6.753186e-02    1.322640e-05
  6.783080e-02    1.316786e-05
  6.812973e-02    1.320098e-05
  6.842866e-02    1.327969e-05
  6.872759e-02    1.330019e-05
  6.902652e-02    1.327232e-05
  6.932545e-02    1.330057e-05
  6.962438e-02    1.333951e-05
  6.992331e-02    1.336537e-05
  7.022224e-02    1.337550e-05
  7.052117e-02    1.337419e-05
  7.082010e-02    1.342280e-05
  7.111903e-02    1.343208e-05
  7.141796e-02    1.337524e-05
  7.171689e-02    1.342251e-05
  7.201582e-02    1.340412e-05
  7.231475e-02    1.342475e-05
  7.261368e-02    1.346607e-05
  7.291261e-02    1.342875e-05
  7.321154e-02    1.350755e-05
  7.351047e-02    1.353890e-05
  7.380940e-02    1.351017e-05
  7.410833e-02    1.345830e-05
  7.440726e-02    1.341519e-05
  7.470619e-02    1.344283e-05
  7.500512e-02    1.345007e-05
  7.530405e-02    1.345135e-05
  7.560299e-02    1.348309e-05
  7.590192e-02    1.351739e-05
  7.620085e-02    1.345459e-05
  7.649978e-02    1.342142e-05
  7.679871e-02    1.346000e-05
  7.709764e-02    1.348116e-05
  7.739657e-02    1.352659e-05
  7.769550e-02    1.341467e-05
  7.799443e-02    1.338773e-05
  7.829336e-02    1.340133e-05
  7.859229e-02    1.339185e-05
  7.889122e-02    1.330809e-05
  7.919015e-02    1.334887e-05
  7.948908e-02    1.343838e-05
  7.978801e-02    1.343962e-05
  8.008694e-02    1.336314e-05
  8.038587e-02    1.334276e-05
  8.068480e-02    1.335042e-05
  8.098373e-02    1.327079e-05
  8.128266e-02    1.329728e-05
  8.158159e-02    1.321289e-05
  8.188052e-02    1.324077e-05
  8.217945e-02    1.320134e-05
  8.247838e-02    1.314287e-05
  8.277731e-02    1.317651e-05
  8.307624e-02    1.318129e-05
  8.337518e-02    1.317270e-05
  8.367411e-02    1.311690e-05
  8.397304e-02    1.308861e-05
  8.427197e-02    1.311443e-05
  8.457090e-02    1.311148e-05
  8.486983e-02    1.310375e-05
  8.516876e-02    1.308909e-05
  8.546769e-02    1.306868e-05
  8.576662e-02    1.301152e-05
  8.606555e-02    1.305371e-05
  8.636448e-02    1.301422e-05
  8.666341e-02    1.294857e-05
  8.696234e-02    1.289509e-05
  8.726127e-02    1.292226e-05
  8.756020e-02    1.291654e-05
  8.785913e-02    1.285724e-05
  8.815806e-02    1.292159e-05
  8.845699e-02    1.291670e-05
  8.875592e-02    1.284974e-05
  8.905485e-02    1.282159e-05
  8.935378e-02    1.273145e-05
  8.965271e-02    1.271751e-05
  8.995164e-02    1.272438e-05
  9.025057e-02    1.272455e-05
  9.054950e-02    1.275318e-05
  9.084843e-02    1.268777e-05
  9.114737e-02    1.262941e-05
  9.144630e-02    1.258343e-05
  9.174523e-02    1.252446e-05
  9.204416e-02    1.248332e-05
  9.234309e-02    1.246146e-05
  9.264202e-02    1.248901e-05
  9.294095e-02    1.251155e-05
  9.323988e-02    1.247392e-05
  9.353881e-02    1.248745e-05
  9.383774e-02    1.244834e-05
  9.413667e-02    1.239970e-05
  9.443560e-02    1.233474e-05
  9.473453e-02    1.232152e-05
  9.503346e-02    1.235319e-05
  9.533239e-02    1.239790e-05
  9.563132e-02    1.237938e-05
  9.593025e-02    1.232829e-05
  9.622918e-02    1.237782e-05
  9.652811e-02    1.239498e-05
  9.682704e-02    1.233508e-05
  9.712597e-02    1.233560e-05
  9.742490e-02    1.234147e-05
  9.772383e-02    1.240843e-05
  9.802276e-02    1.227145e-05
  9.832169e-02    1.216470e-05
  9.862062e-02    1.212806e-05
  9.891956e-02    1.210303e-05
  9.921849e-02    1.204073e-05
  9.951742e-02    1.199907e-05
  9.981635e-02    1.196257e-05
  1.001153e-01    1.191775e-05
  1.004142e-01    1.190934e-05
  1.007131e-01    1.193294e-05
  1.010121e-01    1.187938e-05
  1.013110e-01    1.185505e-05
  1.016099e-01    1.179678e-05
  1.019089e-01    1.182825e-05
  1.022078e-01    1.183465e-05
  1.025067e-01    1.174931e-05
  1.028057e-01    1.180328e-05
  1.031046e-01    1.179889e-05
  1.034035e-01    1.176976e-05
  1.037024e-01    1.176471e-05
  1.040014e-01    1.168950e-05
  1.043003e-01    1.166786e-05
  1.045992e-01    1.165064e-05
  1.048982e-01    1.168502e-05
  1.051971e-01    1.164545e-05
  1.054960e-01    1.158417e-05
  1.057950e-01    1.164509e-05
  1.060939e-01    1.160750e-05
  1.063928e-01    1.150685e-05
  1.066917e-01    1.149195e-05
  1.069907e-01    1.154464e-05
  1.072896e-01    1.154956e-05
  1.075885e-01    1.150647e-05
  1.078875e-01    1.150743e-05
  1.081864e-01    1.150564e-05
  1.084853e-01    1.147380e-05
  1.087843e-01    1.138973e-05
  1.090832e-01    1.139254e-05
  1.093821e-01    1.135311e-05
  1.096810e-01    1.133882e-05
  1.099800e-01    1.136389e-05
  1.102789e-01    1.127523e-05
  1.105778e-01    1.123478e-05
  1.108768e-01    1.120868e-05
  1.111757e-01    1.112537e-05
  1.114746e-01    1.107302e-05
  1.117736e-01    1.107455e-05
  1.120725e-01    1.106962e-05
  1.123714e-01    1.107962e-05
  1.126704e-01    1.095707e-05
  1.129693e-01    1.089881e-05
  1.132682e-01    1.087983e-05
  1.135671e-01    1.074055e-05
  1.138661e-01    1.080146e-05
  1.141650e-01    1.078979e-05
  1.144639e-01    1.069999e-05
  1.147629e-01    1.067969e-05
  1.150618e-01    1.085966e-05
  1.153607e-01    1.088069e-05
  1.156597e-01    1.066853e-05
  1.159586e-01    1.062245e-05
  1.162575e-01    1.068649e-05
  1.165564e-01    1.068766e-05
  1.168554e-01    1.059785e-05
  1.171543e-01    1.068317e-05
  1.174532e-01    1.072057e-05
  1.177522e-01    1.078688e-05
  1.180511e-01    1.079536e-05
  1.183500e-01    1.063104e-05
  1.186490e-01    1.051373e-05
  1.189479e-01    1.054149e-05
  1.192468e-01    1.058250e-05
  1.195458e-01    1.063331e-05
  1.198447e-01    1.065479e-05
  1.201436e-01    1.048753e-05
  1.204425e-01    1.043087e-05
  1.207415e-01    1.074702e-05
  1.210404e-01    9.887009e-06
  1.213393e-01    0.000000e+00
  1.216383e-01    0.000000e+00
  1.219372e-01    0.000000e+00
  1.222361e-01    0.000000e+00
  1.225351e-01    0.000000e+00
  1.228340e-01    0.000000e+00
  1.231329e-01    0.000000e+00
  1.234318e-01    0.000000e+00
  1.237308e-01    0.000000e+00
  1.240297e-01    0.000000e+00
  1.243286e-01    0.000000e+00
  1.246276e-01    0.000000e+00
  1.249265e-01    0.000000e+00
  1.252254e-01    0.000000e+00
  1.255244e-01    0.000000e+00
  1.258233e-01    0.000000e+00
  1.261222e-01    0.000000e+00
  1.264212e-01    0.000000e+00
  1.267201e-01    0.000000e+00
  1.270190e-01    0.000000e+00
  1.273179e-01    0.000000e+00
  1.276169e-01    0.000000e+00
  1.279158e-01    0.000000e+00
  1.282147e-01    0.000000e+00
  1.285137e-01    0.000000e+00
  1.288126e-01    0.000000e+00
  1.291115e-01    0.000000e+00
  1.294105e-01    0.000000e+00
  1.297094e-01    0.000000e+00
  1.300083e-01    0.000000e+00
  1.303072e-01    0.000000e+00
  1.306062e-01    0.000000e+00
  1.309051e-01    0.000000e+00
  1.312040e-01    0.000000e+00
  1.315030e-01    0.000000e+00
  1.318019e-01    0.000000e+00
  1.321008e-01    0.000000e+00
  1.323998e-01    0.000000e+00
  1.326987e-01    0.000000e+00
  1.329976e-01    0.000000e+00
  1.332965e-01    0.000000e+00
  1.335955e-01    0.000000e+00
  1.338944e-01    0.000000e+00
  1.341933e-01    0.000000e+00
  1.344923e-01    0.000000e+00
  1.347912e-01    0.000000e+00
  1.350901e-01    0.000000e+00
  1.353891e-01    0.000000e+00
  1.356880e-01    0.000000e+00
  1.359869e-01    0.000000e+00
  1.362859e-01    0.000000e+00
  1.365848e-01    0.000000e+00
  1.368837e-01    0.000000e+00
  1.371826e-01    0.000000e+00
  1.374816e-01    0.000000e+00
  1.377805e-01    0.000000e+00
  1.380794e-01    0.000000e+00
  1.383784e-01    0.000000e+00
  1.386773e-01    0.000000e+00
  1.389762e-01    0.000000e+00
  1.392752e-01    0.000000e+00
  1.395741e-01    0.000000e+00
  1.398730e-01    0.000000e+00
  1.401719e-01    0.000000e+00
  1.404709e-01    0.000000e+00
  1.407698e-01    0.000000e+00
  1.410687e-01    0.000000e+00
  1.413677e-01    0.000000e+00
  1.416666e-01    0.000000e+00
  1.419655e-01    0.000000e+00
  1.422645e-01    0.000000e+00
  1.425634e-01    0.000000e+00
  1.428623e-01    0.000000e+00
  1.431613e-01    0.000000e+00
  1.434602e-01    0.000000e+00
  1.437591e-01    0.000000e+00
  1.440580e-01    0.000000e+00
  1.443570e-01    0.000000e+00
  1.446559e-01    0.000000e+00
  1.449548e-01    0.000000e+00
  1.452538e-01    0.000000e+00
  1.455527e-01    0.000000e+00
  1.458516e-01    0.000000e+00
  1.461506e-01    0.000000e+00
  1.464495e-01    0.000000e+00
  1.467484e-01    0.000000e+00
  1.470473e-01    0.000000e+00
  1.473463e-01    0.000000e+00
  1.476452e-01    0.000000e+00
  1.479441e-01    0.000000e+00
  1.482431e-01    0.000000e+00
  1.485420e-01    0.000000e+00
  1.488409e-01    0.000000e+00
  1.491399e-01    0.000000e+00
  1.494388e-01    0.000000e+00
  1.497377e-01    0.000000e+00
  1.500367e-01    0.000000e+00
  1.503356e-01    0.000000e+00
  1.506345e-01    0.000000e+00
  1.509334e-01    0.000000e+00
  1.512324e-01    0.000000e+00
  1.515313e-01    0.000000e+00
  1.518302e-01    0.000000e+00
  1.521292e-01    0.000000e+00
  1.524281e-01    0.000000e+00
  1.527270e-01    0.000000e+00
  1.530260e-01    0.000000e+00
  1.533249e-01    0.000000e+00
  1.536238e-01    0.000000e+00
