# == pyFAI calibration ==
# Distance Sample to Detector: 2.266 m
# PONI: 5.659e-02, 4.293e-02 m
# Rotations: 0.000000 0.000000 0.000000 rad
# 
# == Fit2d calibration ==
# Distance Sample-beamCenter: 2266.000 mm
# Center: x=249.594, y=329.012 pix
# Tilt: 0.000 deg  TiltPlanRot: 0.000 deg
# 
# Detector Pilatus 300k	 PixelSize= 1.720e-04, 1.720e-04 m
#    Detector has a mask: True 
#    Detector has a dark current: False 
#    detector has a flat field: False 
# 
# Wavelength: 1.27818e-10 m
# Mask applied: user provided
# Dark current applied: False
# Flat field applied: False
# Polarization factor: None
# Normalization factor: 3836050.400000001
# --> MT-AL_F127_220301_9819d155-7c64-4001-a2f3-d84b6006c46f_0_r1d.csv
#        q_A^-1             I 
  4.457554e-03    7.306066e-03
  4.756484e-03    5.724253e-03
  5.055415e-03    4.083027e-03
  5.354345e-03    2.865702e-03
  5.653276e-03    2.200243e-03
  5.952206e-03    3.548649e-03
  6.251136e-03    3.243218e-03
  6.550067e-03    2.819007e-03
  6.848997e-03    2.402725e-03
  7.147927e-03    2.032854e-03
  7.446858e-03    1.735557e-03
  7.745788e-03    1.486389e-03
  8.044719e-03    1.278360e-03
  8.343649e-03    1.115925e-03
  8.642579e-03    9.760786e-04
  8.941510e-03    8.576420e-04
  9.240440e-03    7.583732e-04
  9.539371e-03    6.736856e-04
  9.838301e-03    5.996374e-04
  1.013723e-02    5.373876e-04
  1.043616e-02    4.851173e-04
  1.073509e-02    4.359157e-04
  1.103402e-02    3.942752e-04
  1.133295e-02    3.573206e-04
  1.163188e-02    3.265509e-04
  1.193081e-02    2.982423e-04
  1.222974e-02    2.731638e-04
  1.252867e-02    2.514686e-04
  1.282760e-02    2.315232e-04
  1.312654e-02    2.129303e-04
  1.342547e-02    1.972678e-04
  1.372440e-02    1.829506e-04
  1.402333e-02    1.702717e-04
  1.432226e-02    1.578925e-04
  1.462119e-02    1.469587e-04
  1.492012e-02    1.372520e-04
  1.521905e-02    1.287821e-04
  1.551798e-02    1.205233e-04
  1.581691e-02    1.132606e-04
  1.611584e-02    1.069465e-04
  1.641477e-02    1.006915e-04
  1.671370e-02    9.471363e-05
  1.701263e-02    8.971605e-05
  1.731156e-02    8.535590e-05
  1.761049e-02    8.099293e-05
  1.790942e-02    7.712443e-05
  1.820835e-02    7.358738e-05
  1.850728e-02    7.023513e-05
  1.880621e-02    6.706174e-05
  1.910514e-02    6.436592e-05
  1.940407e-02    6.166261e-05
  1.970300e-02    5.934019e-05
  2.000193e-02    5.731970e-05
  2.030086e-02    5.511636e-05
  2.059979e-02    5.306383e-05
  2.089873e-02    5.122305e-05
  2.119766e-02    4.953230e-05
  2.149659e-02    4.809290e-05
  2.179552e-02    4.678331e-05
  2.209445e-02    4.520431e-05
  2.239338e-02    4.371062e-05
  2.269231e-02    4.258854e-05
  2.299124e-02    4.146898e-05
  2.329017e-02    4.038949e-05
  2.358910e-02    3.935605e-05
  2.388803e-02    3.843317e-05
  2.418696e-02    3.765490e-05
  2.448589e-02    3.690540e-05
  2.478482e-02    3.607785e-05
  2.508375e-02    3.531619e-05
  2.538268e-02    3.460480e-05
  2.568161e-02    3.394420e-05
  2.598054e-02    3.327187e-05
  2.627947e-02    3.253987e-05
  2.657840e-02    3.231875e-05
  2.687733e-02    3.186911e-05
  2.717626e-02    3.116001e-05
  2.747519e-02    3.079541e-05
  2.777412e-02    3.038813e-05
  2.807305e-02    3.006041e-05
  2.837198e-02    2.954387e-05
  2.867092e-02    2.914772e-05
  2.896985e-02    2.893713e-05
  2.926878e-02    2.851042e-05
  2.956771e-02    2.792918e-05
  2.986664e-02    2.773036e-05
  3.016557e-02    2.756864e-05
  3.046450e-02    2.708581e-05
  3.076343e-02    2.670781e-05
  3.106236e-02    2.663324e-05
  3.136129e-02    2.631175e-05
  3.166022e-02    2.585065e-05
  3.195915e-02    2.567296e-05
  3.225808e-02    2.550272e-05
  3.255701e-02    2.522536e-05
  3.285594e-02    2.509296e-05
  3.315487e-02    2.483918e-05
  3.345380e-02    2.454712e-05
  3.375273e-02    2.446451e-05
  3.405166e-02    2.409938e-05
  3.435059e-02    2.393131e-05
  3.464952e-02    2.373767e-05
  3.494845e-02    2.355729e-05
  3.524738e-02    2.333832e-05
  3.554631e-02    2.303469e-05
  3.584524e-02    2.295953e-05
  3.614417e-02    2.274723e-05
  3.644310e-02    2.259588e-05
  3.674204e-02    2.241005e-05
  3.704097e-02    2.225728e-05
  3.733990e-02    2.192045e-05
  3.763883e-02    2.173680e-05
  3.793776e-02    2.168240e-05
  3.823669e-02    2.140818e-05
  3.853562e-02    2.120935e-05
  3.883455e-02    2.124929e-05
  3.913348e-02    2.122922e-05
  3.943241e-02    2.100400e-05
  3.973134e-02    2.088135e-05
  4.003027e-02    2.083187e-05
  4.032920e-02    2.071530e-05
  4.062813e-02    2.057278e-05
  4.092706e-02    2.050321e-05
  4.122599e-02    2.040537e-05
  4.152492e-02    2.024994e-05
  4.182385e-02    2.021742e-05
  4.212278e-02    2.021697e-05
  4.242171e-02    2.023186e-05
  4.272064e-02    2.008474e-05
  4.301957e-02    2.003802e-05
  4.331850e-02    1.989911e-05
  4.361743e-02    1.981053e-05
  4.391636e-02    1.975950e-05
  4.421529e-02    1.979633e-05
  4.451423e-02    1.979997e-05
  4.481316e-02    1.964086e-05
  4.511209e-02    1.954509e-05
  4.541102e-02    1.952225e-05
  4.570995e-02    1.952332e-05
  4.600888e-02    1.950036e-05
  4.630781e-02    1.954922e-05
  4.660674e-02    1.952412e-05
  4.690567e-02    1.949785e-05
  4.720460e-02    1.950936e-05
  4.750353e-02    1.952906e-05
  4.780246e-02    1.941294e-05
  4.810139e-02    1.933903e-05
  4.840032e-02    1.935773e-05
  4.869925e-02    1.949851e-05
  4.899818e-02    1.950046e-05
  4.929711e-02    1.933411e-05
  4.959604e-02    1.921121e-05
  4.989497e-02    1.928120e-05
  5.019390e-02    1.932239e-05
  5.049283e-02    1.943038e-05
  5.079176e-02    1.936028e-05
  5.109069e-02    1.939231e-05
  5.138962e-02    1.952449e-05
  5.168855e-02    1.990082e-05
  5.198748e-02    2.017087e-05
  5.228642e-02    2.003393e-05
  5.258535e-02    1.947204e-05
  5.288428e-02    1.928375e-05
  5.318321e-02    1.931809e-05
  5.348214e-02    1.929095e-05
  5.378107e-02    1.926010e-05
  5.408000e-02    1.926454e-05
  5.437893e-02    1.931647e-05
  5.467786e-02    1.938677e-05
  5.497679e-02    1.933542e-05
  5.527572e-02    1.925199e-05
  5.557465e-02    1.929332e-05
  5.587358e-02    1.942840e-05
  5.617251e-02    1.936249e-05
  5.647144e-02    1.925625e-05
  5.677037e-02    1.926817e-05
  5.706930e-02    1.923987e-05
  5.736823e-02    1.935938e-05
  5.766716e-02    1.941523e-05
  5.796609e-02    1.939600e-05
  5.826502e-02    1.940696e-05
  5.856395e-02    1.943981e-05
  5.886288e-02    1.937815e-05
  5.916181e-02    1.936788e-05
  5.946074e-02    1.940956e-05
  5.975967e-02    1.951442e-05
  6.005861e-02    1.954890e-05
  6.035754e-02    1.957145e-05
  6.065647e-02    1.965353e-05
  6.095540e-02    1.976542e-05
  6.125433e-02    2.002178e-05
  6.155326e-02    2.014440e-05
  6.185219e-02    2.003210e-05
  6.215112e-02    1.986382e-05
  6.245005e-02    1.973814e-05
  6.274898e-02    1.968673e-05
  6.304791e-02    1.975261e-05
  6.334684e-02    1.976014e-05
  6.364577e-02    1.986264e-05
  6.394470e-02    1.989151e-05
  6.424363e-02    1.986038e-05
  6.454256e-02    1.991559e-05
  6.484149e-02    2.001106e-05
  6.514042e-02    2.004973e-05
  6.543935e-02    2.006977e-05
  6.573828e-02    2.010275e-05
  6.603721e-02    2.003977e-05
  6.633614e-02    2.012616e-05
  6.663507e-02    2.007531e-05
  6.693400e-02    2.020179e-05
  6.723293e-02    2.023322e-05
  6.753186e-02    2.024419e-05
  6.783080e-02    2.029237e-05
  6.812973e-02    2.025442e-05
  6.842866e-02    2.027777e-05
  6.872759e-02    2.040575e-05
  6.902652e-02    2.037811e-05
  6.932545e-02    2.025618e-05
  6.962438e-02    2.029260e-05
  6.992331e-02    2.038123e-05
  7.022224e-02    2.037841e-05
  7.052117e-02    2.035288e-05
  7.082010e-02    2.041472e-05
  7.111903e-02    2.054117e-05
  7.141796e-02    2.051165e-05
  7.171689e-02    2.053788e-05
  7.201582e-02    2.058160e-05
  7.231475e-02    2.064603e-05
  7.261368e-02    2.066235e-05
  7.291261e-02    2.063797e-05
  7.321154e-02    2.060813e-05
  7.351047e-02    2.064926e-05
  7.380940e-02    2.060652e-05
  7.410833e-02    2.069500e-05
  7.440726e-02    2.073938e-05
  7.470619e-02    2.074290e-05
  7.500512e-02    2.066431e-05
  7.530405e-02    2.065811e-05
  7.560299e-02    2.071630e-05
  7.590192e-02    2.077229e-05
  7.620085e-02    2.077530e-05
  7.649978e-02    2.076424e-05
  7.679871e-02    2.076596e-05
  7.709764e-02    2.073926e-05
  7.739657e-02    2.071071e-05
  7.769550e-02    2.064814e-05
  7.799443e-02    2.059255e-05
  7.829336e-02    2.057594e-05
  7.859229e-02    2.064398e-05
  7.889122e-02    2.065289e-05
  7.919015e-02    2.064734e-05
  7.948908e-02    2.069324e-05
  7.978801e-02    2.069881e-05
  8.008694e-02    2.066387e-05
  8.038587e-02    2.058586e-05
  8.068480e-02    2.050928e-05
  8.098373e-02    2.050618e-05
  8.128266e-02    2.049211e-05
  8.158159e-02    2.037584e-05
  8.188052e-02    2.036025e-05
  8.217945e-02    2.043111e-05
  8.247838e-02    2.040334e-05
  8.277731e-02    2.039714e-05
  8.307624e-02    2.041246e-05
  8.337518e-02    2.038249e-05
  8.367411e-02    2.033961e-05
  8.397304e-02    2.036533e-05
  8.427197e-02    2.033857e-05
  8.457090e-02    2.028545e-05
  8.486983e-02    2.014368e-05
  8.516876e-02    2.022262e-05
  8.546769e-02    2.023143e-05
  8.576662e-02    2.019478e-05
  8.606555e-02    2.016185e-05
  8.636448e-02    2.017942e-05
  8.666341e-02    2.012340e-05
  8.696234e-02    2.002339e-05
  8.726127e-02    1.995940e-05
  8.756020e-02    2.001804e-05
  8.785913e-02    2.008296e-05
  8.815806e-02    2.001651e-05
  8.845699e-02    1.989791e-05
  8.875592e-02    1.984989e-05
  8.905485e-02    1.981698e-05
  8.935378e-02    1.975571e-05
  8.965271e-02    1.975188e-05
  8.995164e-02    1.975416e-05
  9.025057e-02    1.970701e-05
  9.054950e-02    1.972852e-05
  9.084843e-02    1.980982e-05
  9.114737e-02    1.969649e-05
  9.144630e-02    1.962044e-05
  9.174523e-02    1.952683e-05
  9.204416e-02    1.950461e-05
  9.234309e-02    1.943862e-05
  9.264202e-02    1.939140e-05
  9.294095e-02    1.930123e-05
  9.323988e-02    1.923947e-05
  9.353881e-02    1.922851e-05
  9.383774e-02    1.926609e-05
  9.413667e-02    1.931492e-05
  9.443560e-02    1.930579e-05
  9.473453e-02    1.922183e-05
  9.503346e-02    1.921893e-05
  9.533239e-02    1.914563e-05
  9.563132e-02    1.905945e-05
  9.593025e-02    1.908483e-05
  9.622918e-02    1.911056e-05
  9.652811e-02    1.910635e-05
  9.682704e-02    1.906849e-05
  9.712597e-02    1.907436e-05
  9.742490e-02    1.902792e-05
  9.772383e-02    1.897750e-05
  9.802276e-02    1.894775e-05
  9.832169e-02    1.888699e-05
  9.862062e-02    1.881225e-05
  9.891956e-02    1.875739e-05
  9.921849e-02    1.866729e-05
  9.951742e-02    1.867478e-05
  9.981635e-02    1.861547e-05
  1.001153e-01    1.855569e-05
  1.004142e-01    1.852039e-05
  1.007131e-01    1.846871e-05
  1.010121e-01    1.846869e-05
  1.013110e-01    1.845313e-05
  1.016099e-01    1.832223e-05
  1.019089e-01    1.838157e-05
  1.022078e-01    1.838041e-05
  1.025067e-01    1.831773e-05
  1.028057e-01    1.824959e-05
  1.031046e-01    1.824537e-05
  1.034035e-01    1.816904e-05
  1.037024e-01    1.814826e-05
  1.040014e-01    1.810591e-05
  1.043003e-01    1.805353e-05
  1.045992e-01    1.813781e-05
  1.048982e-01    1.805405e-05
  1.051971e-01    1.791472e-05
  1.054960e-01    1.788460e-05
  1.057950e-01    1.788025e-05
  1.060939e-01    1.782972e-05
  1.063928e-01    1.782605e-05
  1.066917e-01    1.774613e-05
  1.069907e-01    1.771979e-05
  1.072896e-01    1.766774e-05
  1.075885e-01    1.766065e-05
  1.078875e-01    1.764369e-05
  1.081864e-01    1.763661e-05
  1.084853e-01    1.754287e-05
  1.087843e-01    1.753653e-05
  1.090832e-01    1.749916e-05
  1.093821e-01    1.747760e-05
  1.096810e-01    1.749606e-05
  1.099800e-01    1.744683e-05
  1.102789e-01    1.742324e-05
  1.105778e-01    1.740870e-05
  1.108768e-01    1.732314e-05
  1.111757e-01    1.730989e-05
  1.114746e-01    1.727164e-05
  1.117736e-01    1.718284e-05
  1.120725e-01    1.706641e-05
  1.123714e-01    1.705837e-05
  1.126704e-01    1.701609e-05
  1.129693e-01    1.698767e-05
  1.132682e-01    1.690491e-05
  1.135671e-01    1.680405e-05
  1.138661e-01    1.672634e-05
  1.141650e-01    1.669991e-05
  1.144639e-01    1.672000e-05
  1.147629e-01    1.668860e-05
  1.150618e-01    1.663556e-05
  1.153607e-01    1.658625e-05
  1.156597e-01    1.645172e-05
  1.159586e-01    1.654541e-05
  1.162575e-01    1.672056e-05
  1.165564e-01    1.658973e-05
  1.168554e-01    1.643216e-05
  1.171543e-01    1.652089e-05
  1.174532e-01    1.664116e-05
  1.177522e-01    1.662673e-05
  1.180511e-01    1.653493e-05
  1.183500e-01    1.661449e-05
  1.186490e-01    1.654739e-05
  1.189479e-01    1.670154e-05
  1.192468e-01    1.667654e-05
  1.195458e-01    1.658823e-05
  1.198447e-01    1.657318e-05
  1.201436e-01    1.635945e-05
  1.204425e-01    1.581175e-05
  1.207415e-01    1.600406e-05
  1.210404e-01    1.617710e-05
  1.213393e-01    0.000000e+00
  1.216383e-01    0.000000e+00
  1.219372e-01    0.000000e+00
  1.222361e-01    0.000000e+00
  1.225351e-01    0.000000e+00
  1.228340e-01    0.000000e+00
  1.231329e-01    0.000000e+00
  1.234318e-01    0.000000e+00
  1.237308e-01    0.000000e+00
  1.240297e-01    0.000000e+00
  1.243286e-01    0.000000e+00
  1.246276e-01    0.000000e+00
  1.249265e-01    0.000000e+00
  1.252254e-01    0.000000e+00
  1.255244e-01    0.000000e+00
  1.258233e-01    0.000000e+00
  1.261222e-01    0.000000e+00
  1.264212e-01    0.000000e+00
  1.267201e-01    0.000000e+00
  1.270190e-01    0.000000e+00
  1.273179e-01    0.000000e+00
  1.276169e-01    0.000000e+00
  1.279158e-01    0.000000e+00
  1.282147e-01    0.000000e+00
  1.285137e-01    0.000000e+00
  1.288126e-01    0.000000e+00
  1.291115e-01    0.000000e+00
  1.294105e-01    0.000000e+00
  1.297094e-01    0.000000e+00
  1.300083e-01    0.000000e+00
  1.303072e-01    0.000000e+00
  1.306062e-01    0.000000e+00
  1.309051e-01    0.000000e+00
  1.312040e-01    0.000000e+00
  1.315030e-01    0.000000e+00
  1.318019e-01    0.000000e+00
  1.321008e-01    0.000000e+00
  1.323998e-01    0.000000e+00
  1.326987e-01    0.000000e+00
  1.329976e-01    0.000000e+00
  1.332965e-01    0.000000e+00
  1.335955e-01    0.000000e+00
  1.338944e-01    0.000000e+00
  1.341933e-01    0.000000e+00
  1.344923e-01    0.000000e+00
  1.347912e-01    0.000000e+00
  1.350901e-01    0.000000e+00
  1.353891e-01    0.000000e+00
  1.356880e-01    0.000000e+00
  1.359869e-01    0.000000e+00
  1.362859e-01    0.000000e+00
  1.365848e-01    0.000000e+00
  1.368837e-01    0.000000e+00
  1.371826e-01    0.000000e+00
  1.374816e-01    0.000000e+00
  1.377805e-01    0.000000e+00
  1.380794e-01    0.000000e+00
  1.383784e-01    0.000000e+00
  1.386773e-01    0.000000e+00
  1.389762e-01    0.000000e+00
  1.392752e-01    0.000000e+00
  1.395741e-01    0.000000e+00
  1.398730e-01    0.000000e+00
  1.401719e-01    0.000000e+00
  1.404709e-01    0.000000e+00
  1.407698e-01    0.000000e+00
  1.410687e-01    0.000000e+00
  1.413677e-01    0.000000e+00
  1.416666e-01    0.000000e+00
  1.419655e-01    0.000000e+00
  1.422645e-01    0.000000e+00
  1.425634e-01    0.000000e+00
  1.428623e-01    0.000000e+00
  1.431613e-01    0.000000e+00
  1.434602e-01    0.000000e+00
  1.437591e-01    0.000000e+00
  1.440580e-01    0.000000e+00
  1.443570e-01    0.000000e+00
  1.446559e-01    0.000000e+00
  1.449548e-01    0.000000e+00
  1.452538e-01    0.000000e+00
  1.455527e-01    0.000000e+00
  1.458516e-01    0.000000e+00
  1.461506e-01    0.000000e+00
  1.464495e-01    0.000000e+00
  1.467484e-01    0.000000e+00
  1.470473e-01    0.000000e+00
  1.473463e-01    0.000000e+00
  1.476452e-01    0.000000e+00
  1.479441e-01    0.000000e+00
  1.482431e-01    0.000000e+00
  1.485420e-01    0.000000e+00
  1.488409e-01    0.000000e+00
  1.491399e-01    0.000000e+00
  1.494388e-01    0.000000e+00
  1.497377e-01    0.000000e+00
  1.500367e-01    0.000000e+00
  1.503356e-01    0.000000e+00
  1.506345e-01    0.000000e+00
  1.509334e-01    0.000000e+00
  1.512324e-01    0.000000e+00
  1.515313e-01    0.000000e+00
  1.518302e-01    0.000000e+00
  1.521292e-01    0.000000e+00
  1.524281e-01    0.000000e+00
  1.527270e-01    0.000000e+00
  1.530260e-01    0.000000e+00
  1.533249e-01    0.000000e+00
  1.536238e-01    0.000000e+00
