# == pyFAI calibration ==
# Distance Sample to Detector: 2.266 m
# PONI: 5.659e-02, 4.293e-02 m
# Rotations: 0.000000 0.000000 0.000000 rad
# 
# == Fit2d calibration ==
# Distance Sample-beamCenter: 2266.000 mm
# Center: x=249.594, y=329.012 pix
# Tilt: 0.000 deg  TiltPlanRot: 0.000 deg
# 
# Detector Pilatus 300k	 PixelSize= 1.720e-04, 1.720e-04 m
#    Detector has a mask: True 
#    Detector has a dark current: False 
#    detector has a flat field: False 
# 
# Wavelength: 1.27818e-10 m
# Mask applied: user provided
# Dark current applied: False
# Flat field applied: False
# Polarization factor: None
# Normalization factor: 76423.81
# --> MT-AL_DowExpt1_220227_3c4869d4-2145-4f5c-8bad-739e86bce49b_1_r1d.csv
#        q_A^-1             I 
  4.457554e-03    4.013715e-02
  4.756484e-03    3.319421e-02
  5.055415e-03    2.525199e-02
  5.354345e-03    1.884772e-02
  5.653276e-03    1.523120e-02
  5.952206e-03    2.457285e-02
  6.251136e-03    2.239892e-02
  6.550067e-03    1.935154e-02
  6.848997e-03    1.638858e-02
  7.147927e-03    1.385963e-02
  7.446858e-03    1.188106e-02
  7.745788e-03    1.026906e-02
  8.044719e-03    8.878585e-03
  8.343649e-03    7.761356e-03
  8.642579e-03    6.787139e-03
  8.941510e-03    6.012752e-03
  9.240440e-03    5.349491e-03
  9.539371e-03    4.748406e-03
  9.838301e-03    4.237485e-03
  1.013723e-02    3.795109e-03
  1.043616e-02    3.396019e-03
  1.073509e-02    3.059223e-03
  1.103402e-02    2.769053e-03
  1.133295e-02    2.493081e-03
  1.163188e-02    2.273014e-03
  1.193081e-02    2.076451e-03
  1.222974e-02    1.889118e-03
  1.252867e-02    1.740430e-03
  1.282760e-02    1.610891e-03
  1.312654e-02    1.483413e-03
  1.342547e-02    1.365983e-03
  1.372440e-02    1.255317e-03
  1.402333e-02    1.165841e-03
  1.432226e-02    1.077429e-03
  1.462119e-02    1.009642e-03
  1.492012e-02    9.505263e-04
  1.521905e-02    8.807298e-04
  1.551798e-02    8.123518e-04
  1.581691e-02    7.635705e-04
  1.611584e-02    7.172493e-04
  1.641477e-02    6.763330e-04
  1.671370e-02    6.315380e-04
  1.701263e-02    5.960396e-04
  1.731156e-02    5.701163e-04
  1.761049e-02    5.354470e-04
  1.790942e-02    5.099947e-04
  1.820835e-02    4.782962e-04
  1.850728e-02    4.562485e-04
  1.880621e-02    4.364037e-04
  1.910514e-02    4.177440e-04
  1.940407e-02    4.012995e-04
  1.970300e-02    3.835527e-04
  2.000193e-02    3.653402e-04
  2.030086e-02    3.487813e-04
  2.059979e-02    3.323431e-04
  2.089873e-02    3.153183e-04
  2.119766e-02    3.049414e-04
  2.149659e-02    2.950141e-04
  2.179552e-02    2.862068e-04
  2.209445e-02    2.773368e-04
  2.239338e-02    2.683887e-04
  2.269231e-02    2.549337e-04
  2.299124e-02    2.483086e-04
  2.329017e-02    2.403425e-04
  2.358910e-02    2.321620e-04
  2.388803e-02    2.270133e-04
  2.418696e-02    2.198050e-04
  2.448589e-02    2.138847e-04
  2.478482e-02    2.113008e-04
  2.508375e-02    2.044643e-04
  2.538268e-02    2.009358e-04
  2.568161e-02    1.938451e-04
  2.598054e-02    1.920720e-04
  2.627947e-02    1.876292e-04
  2.657840e-02    1.819881e-04
  2.687733e-02    1.808348e-04
  2.717626e-02    1.765014e-04
  2.747519e-02    1.713376e-04
  2.777412e-02    1.686845e-04
  2.807305e-02    1.658884e-04
  2.837198e-02    1.621226e-04
  2.867092e-02    1.582043e-04
  2.896985e-02    1.549162e-04
  2.926878e-02    1.549526e-04
  2.956771e-02    1.543567e-04
  2.986664e-02    1.524226e-04
  3.016557e-02    1.514939e-04
  3.046450e-02    1.459956e-04
  3.076343e-02    1.415176e-04
  3.106236e-02    1.421231e-04
  3.136129e-02    1.424475e-04
  3.166022e-02    1.404677e-04
  3.195915e-02    1.378995e-04
  3.225808e-02    1.348387e-04
  3.255701e-02    1.340706e-04
  3.285594e-02    1.340957e-04
  3.315487e-02    1.335977e-04
  3.345380e-02    1.304445e-04
  3.375273e-02    1.284916e-04
  3.405166e-02    1.265980e-04
  3.435059e-02    1.265198e-04
  3.464952e-02    1.248143e-04
  3.494845e-02    1.242352e-04
  3.524738e-02    1.219938e-04
  3.554631e-02    1.205035e-04
  3.584524e-02    1.198261e-04
  3.614417e-02    1.197208e-04
  3.644310e-02    1.200049e-04
  3.674204e-02    1.187780e-04
  3.704097e-02    1.187602e-04
  3.733990e-02    1.177177e-04
  3.763883e-02    1.167094e-04
  3.793776e-02    1.169263e-04
  3.823669e-02    1.151559e-04
  3.853562e-02    1.138614e-04
  3.883455e-02    1.133421e-04
  3.913348e-02    1.138691e-04
  3.943241e-02    1.128691e-04
  3.973134e-02    1.107143e-04
  4.003027e-02    1.107494e-04
  4.032920e-02    1.095183e-04
  4.062813e-02    1.102406e-04
  4.092706e-02    1.090409e-04
  4.122599e-02    1.073553e-04
  4.152492e-02    1.069930e-04
  4.182385e-02    1.047279e-04
  4.212278e-02    1.019438e-04
  4.242171e-02    1.014140e-04
  4.272064e-02    1.041772e-04
  4.301957e-02    1.044837e-04
  4.331850e-02    1.044771e-04
  4.361743e-02    1.040918e-04
  4.391636e-02    1.037397e-04
  4.421529e-02    1.048268e-04
  4.451423e-02    1.051219e-04
  4.481316e-02    1.060326e-04
  4.511209e-02    1.045115e-04
  4.541102e-02    1.037238e-04
  4.570995e-02    1.046823e-04
  4.600888e-02    1.034174e-04
  4.630781e-02    1.020928e-04
  4.660674e-02    1.028397e-04
  4.690567e-02    1.029855e-04
  4.720460e-02    1.029405e-04
  4.750353e-02    1.037244e-04
  4.780246e-02    1.022755e-04
  4.810139e-02    1.033013e-04
  4.840032e-02    1.036779e-04
  4.869925e-02    1.034363e-04
  4.899818e-02    1.027103e-04
  4.929711e-02    1.026485e-04
  4.959604e-02    1.011146e-04
  4.989497e-02    1.020739e-04
  5.019390e-02    1.026780e-04
  5.049283e-02    1.016271e-04
  5.079176e-02    1.016955e-04
  5.109069e-02    1.010039e-04
  5.138962e-02    1.037054e-04
  5.168855e-02    1.051406e-04
  5.198748e-02    1.055600e-04
  5.228642e-02    1.053521e-04
  5.258535e-02    1.035232e-04
  5.288428e-02    1.026750e-04
  5.318321e-02    1.023304e-04
  5.348214e-02    1.009381e-04
  5.378107e-02    1.025431e-04
  5.408000e-02    1.029191e-04
  5.437893e-02    1.028569e-04
  5.467786e-02    1.023516e-04
  5.497679e-02    1.016089e-04
  5.527572e-02    1.038684e-04
  5.557465e-02    1.022724e-04
  5.587358e-02    1.018183e-04
  5.617251e-02    1.022230e-04
  5.647144e-02    1.018451e-04
  5.677037e-02    1.038915e-04
  5.706930e-02    1.042335e-04
  5.736823e-02    1.038362e-04
  5.766716e-02    1.045048e-04
  5.796609e-02    1.041139e-04
  5.826502e-02    1.028787e-04
  5.856395e-02    1.037617e-04
  5.886288e-02    1.038650e-04
  5.916181e-02    1.040830e-04
  5.946074e-02    1.034647e-04
  5.975967e-02    1.044281e-04
  6.005861e-02    1.059315e-04
  6.035754e-02    1.058465e-04
  6.065647e-02    1.058777e-04
  6.095540e-02    1.051974e-04
  6.125433e-02    1.059361e-04
  6.155326e-02    1.078705e-04
  6.185219e-02    1.067093e-04
  6.215112e-02    1.055534e-04
  6.245005e-02    1.059777e-04
  6.274898e-02    1.067162e-04
  6.304791e-02    1.070465e-04
  6.334684e-02    1.074350e-04
  6.364577e-02    1.091117e-04
  6.394470e-02    1.070197e-04
  6.424363e-02    1.076209e-04
  6.454256e-02    1.076363e-04
  6.484149e-02    1.067332e-04
  6.514042e-02    1.077015e-04
  6.543935e-02    1.086241e-04
  6.573828e-02    1.083345e-04
  6.603721e-02    1.083969e-04
  6.633614e-02    1.093383e-04
  6.663507e-02    1.080776e-04
  6.693400e-02    1.067238e-04
  6.723293e-02    1.086319e-04
  6.753186e-02    1.084101e-04
  6.783080e-02    1.081407e-04
  6.812973e-02    1.096914e-04
  6.842866e-02    1.076521e-04
  6.872759e-02    1.080338e-04
  6.902652e-02    1.090158e-04
  6.932545e-02    1.080209e-04
  6.962438e-02    1.074266e-04
  6.992331e-02    1.087491e-04
  7.022224e-02    1.094663e-04
  7.052117e-02    1.085808e-04
  7.082010e-02    1.087369e-04
  7.111903e-02    1.093773e-04
  7.141796e-02    1.088207e-04
  7.171689e-02    1.096722e-04
  7.201582e-02    1.093913e-04
  7.231475e-02    1.117325e-04
  7.261368e-02    1.111580e-04
  7.291261e-02    1.103930e-04
  7.321154e-02    1.090454e-04
  7.351047e-02    1.101801e-04
  7.380940e-02    1.115327e-04
  7.410833e-02    1.107408e-04
  7.440726e-02    1.115525e-04
  7.470619e-02    1.107980e-04
  7.500512e-02    1.110692e-04
  7.530405e-02    1.117242e-04
  7.560299e-02    1.114390e-04
  7.590192e-02    1.109705e-04
  7.620085e-02    1.109817e-04
  7.649978e-02    1.087429e-04
  7.679871e-02    1.092198e-04
  7.709764e-02    1.093856e-04
  7.739657e-02    1.092308e-04
  7.769550e-02    1.096664e-04
  7.799443e-02    1.089667e-04
  7.829336e-02    1.095192e-04
  7.859229e-02    1.095986e-04
  7.889122e-02    1.087342e-04
  7.919015e-02    1.095601e-04
  7.948908e-02    1.096215e-04
  7.978801e-02    1.083178e-04
  8.008694e-02    1.092372e-04
  8.038587e-02    1.085491e-04
  8.068480e-02    1.080667e-04
  8.098373e-02    1.088238e-04
  8.128266e-02    1.074527e-04
  8.158159e-02    1.065889e-04
  8.188052e-02    1.074881e-04
  8.217945e-02    1.086424e-04
  8.247838e-02    1.089843e-04
  8.277731e-02    1.095499e-04
  8.307624e-02    1.074309e-04
  8.337518e-02    1.084832e-04
  8.367411e-02    1.087324e-04
  8.397304e-02    1.072230e-04
  8.427197e-02    1.060322e-04
  8.457090e-02    1.059104e-04
  8.486983e-02    1.070192e-04
  8.516876e-02    1.067707e-04
  8.546769e-02    1.055855e-04
  8.576662e-02    1.059477e-04
  8.606555e-02    1.061738e-04
  8.636448e-02    1.061719e-04
  8.666341e-02    1.069663e-04
  8.696234e-02    1.076941e-04
  8.726127e-02    1.070586e-04
  8.756020e-02    1.065432e-04
  8.785913e-02    1.055787e-04
  8.815806e-02    1.061432e-04
  8.845699e-02    1.059806e-04
  8.875592e-02    1.041610e-04
  8.905485e-02    1.028800e-04
  8.935378e-02    1.040814e-04
  8.965271e-02    1.044390e-04
  8.995164e-02    1.043669e-04
  9.025057e-02    1.047213e-04
  9.054950e-02    1.033274e-04
  9.084843e-02    1.021754e-04
  9.114737e-02    1.021662e-04
  9.144630e-02    1.025416e-04
  9.174523e-02    1.031087e-04
  9.204416e-02    1.038069e-04
  9.234309e-02    1.024672e-04
  9.264202e-02    1.015751e-04
  9.294095e-02    1.013898e-04
  9.323988e-02    1.015005e-04
  9.353881e-02    1.021795e-04
  9.383774e-02    1.017042e-04
  9.413667e-02    1.032247e-04
  9.443560e-02    1.021046e-04
  9.473453e-02    1.008774e-04
  9.503346e-02    1.021267e-04
  9.533239e-02    1.031778e-04
  9.563132e-02    1.019618e-04
  9.593025e-02    1.010466e-04
  9.622918e-02    1.019602e-04
  9.652811e-02    1.017959e-04
  9.682704e-02    1.013385e-04
  9.712597e-02    1.001870e-04
  9.742490e-02    1.006416e-04
  9.772383e-02    1.002435e-04
  9.802276e-02    9.938391e-05
  9.832169e-02    9.869833e-05
  9.862062e-02    9.828714e-05
  9.891956e-02    9.772375e-05
  9.921849e-02    9.696154e-05
  9.951742e-02    9.636967e-05
  9.981635e-02    9.635667e-05
  1.001153e-01    9.654462e-05
  1.004142e-01    9.754337e-05
  1.007131e-01    9.689460e-05
  1.010121e-01    9.671232e-05
  1.013110e-01    9.836151e-05
  1.016099e-01    9.646123e-05
  1.019089e-01    9.458628e-05
  1.022078e-01    9.493786e-05
  1.025067e-01    9.558116e-05
  1.028057e-01    9.655724e-05
  1.031046e-01    9.570168e-05
  1.034035e-01    9.671164e-05
  1.037024e-01    9.633736e-05
  1.040014e-01    9.706403e-05
  1.043003e-01    9.794149e-05
  1.045992e-01    9.589655e-05
  1.048982e-01    9.518363e-05
  1.051971e-01    9.484737e-05
  1.054960e-01    9.457029e-05
  1.057950e-01    9.346510e-05
  1.060939e-01    9.307353e-05
  1.063928e-01    9.338542e-05
  1.066917e-01    9.475912e-05
  1.069907e-01    9.487375e-05
  1.072896e-01    9.463171e-05
  1.075885e-01    9.401344e-05
  1.078875e-01    9.421554e-05
  1.081864e-01    9.343936e-05
  1.084853e-01    9.264424e-05
  1.087843e-01    9.261851e-05
  1.090832e-01    9.174128e-05
  1.093821e-01    9.163377e-05
  1.096810e-01    9.271293e-05
  1.099800e-01    9.256195e-05
  1.102789e-01    9.176304e-05
  1.105778e-01    9.170023e-05
  1.108768e-01    9.166985e-05
  1.111757e-01    9.040779e-05
  1.114746e-01    8.925604e-05
  1.117736e-01    8.982876e-05
  1.120725e-01    9.147428e-05
  1.123714e-01    9.144755e-05
  1.126704e-01    8.973318e-05
  1.129693e-01    8.979005e-05
  1.132682e-01    8.885742e-05
  1.135671e-01    8.791151e-05
  1.138661e-01    8.927879e-05
  1.141650e-01    8.897990e-05
  1.144639e-01    8.810607e-05
  1.147629e-01    8.893607e-05
  1.150618e-01    9.024325e-05
  1.153607e-01    8.856800e-05
  1.156597e-01    8.742684e-05
  1.159586e-01    8.875763e-05
  1.162575e-01    9.032495e-05
  1.165564e-01    8.958244e-05
  1.168554e-01    8.915195e-05
  1.171543e-01    8.760503e-05
  1.174532e-01    8.755836e-05
  1.177522e-01    8.545511e-05
  1.180511e-01    8.502487e-05
  1.183500e-01    8.654442e-05
  1.186490e-01    8.665014e-05
  1.189479e-01    8.699362e-05
  1.192468e-01    8.758895e-05
  1.195458e-01    8.667316e-05
  1.198447e-01    9.042612e-05
  1.201436e-01    9.279469e-05
  1.204425e-01    8.290343e-05
  1.207415e-01    7.100730e-05
  1.210404e-01    9.167746e-05
  1.213393e-01    0.000000e+00
  1.216383e-01    0.000000e+00
  1.219372e-01    0.000000e+00
  1.222361e-01    0.000000e+00
  1.225351e-01    0.000000e+00
  1.228340e-01    0.000000e+00
  1.231329e-01    0.000000e+00
  1.234318e-01    0.000000e+00
  1.237308e-01    0.000000e+00
  1.240297e-01    0.000000e+00
  1.243286e-01    0.000000e+00
  1.246276e-01    0.000000e+00
  1.249265e-01    0.000000e+00
  1.252254e-01    0.000000e+00
  1.255244e-01    0.000000e+00
  1.258233e-01    0.000000e+00
  1.261222e-01    0.000000e+00
  1.264212e-01    0.000000e+00
  1.267201e-01    0.000000e+00
  1.270190e-01    0.000000e+00
  1.273179e-01    0.000000e+00
  1.276169e-01    0.000000e+00
  1.279158e-01    0.000000e+00
  1.282147e-01    0.000000e+00
  1.285137e-01    0.000000e+00
  1.288126e-01    0.000000e+00
  1.291115e-01    0.000000e+00
  1.294105e-01    0.000000e+00
  1.297094e-01    0.000000e+00
  1.300083e-01    0.000000e+00
  1.303072e-01    0.000000e+00
  1.306062e-01    0.000000e+00
  1.309051e-01    0.000000e+00
  1.312040e-01    0.000000e+00
  1.315030e-01    0.000000e+00
  1.318019e-01    0.000000e+00
  1.321008e-01    0.000000e+00
  1.323998e-01    0.000000e+00
  1.326987e-01    0.000000e+00
  1.329976e-01    0.000000e+00
  1.332965e-01    0.000000e+00
  1.335955e-01    0.000000e+00
  1.338944e-01    0.000000e+00
  1.341933e-01    0.000000e+00
  1.344923e-01    0.000000e+00
  1.347912e-01    0.000000e+00
  1.350901e-01    0.000000e+00
  1.353891e-01    0.000000e+00
  1.356880e-01    0.000000e+00
  1.359869e-01    0.000000e+00
  1.362859e-01    0.000000e+00
  1.365848e-01    0.000000e+00
  1.368837e-01    0.000000e+00
  1.371826e-01    0.000000e+00
  1.374816e-01    0.000000e+00
  1.377805e-01    0.000000e+00
  1.380794e-01    0.000000e+00
  1.383784e-01    0.000000e+00
  1.386773e-01    0.000000e+00
  1.389762e-01    0.000000e+00
  1.392752e-01    0.000000e+00
  1.395741e-01    0.000000e+00
  1.398730e-01    0.000000e+00
  1.401719e-01    0.000000e+00
  1.404709e-01    0.000000e+00
  1.407698e-01    0.000000e+00
  1.410687e-01    0.000000e+00
  1.413677e-01    0.000000e+00
  1.416666e-01    0.000000e+00
  1.419655e-01    0.000000e+00
  1.422645e-01    0.000000e+00
  1.425634e-01    0.000000e+00
  1.428623e-01    0.000000e+00
  1.431613e-01    0.000000e+00
  1.434602e-01    0.000000e+00
  1.437591e-01    0.000000e+00
  1.440580e-01    0.000000e+00
  1.443570e-01    0.000000e+00
  1.446559e-01    0.000000e+00
  1.449548e-01    0.000000e+00
  1.452538e-01    0.000000e+00
  1.455527e-01    0.000000e+00
  1.458516e-01    0.000000e+00
  1.461506e-01    0.000000e+00
  1.464495e-01    0.000000e+00
  1.467484e-01    0.000000e+00
  1.470473e-01    0.000000e+00
  1.473463e-01    0.000000e+00
  1.476452e-01    0.000000e+00
  1.479441e-01    0.000000e+00
  1.482431e-01    0.000000e+00
  1.485420e-01    0.000000e+00
  1.488409e-01    0.000000e+00
  1.491399e-01    0.000000e+00
  1.494388e-01    0.000000e+00
  1.497377e-01    0.000000e+00
  1.500367e-01    0.000000e+00
  1.503356e-01    0.000000e+00
  1.506345e-01    0.000000e+00
  1.509334e-01    0.000000e+00
  1.512324e-01    0.000000e+00
  1.515313e-01    0.000000e+00
  1.518302e-01    0.000000e+00
  1.521292e-01    0.000000e+00
  1.524281e-01    0.000000e+00
  1.527270e-01    0.000000e+00
  1.530260e-01    0.000000e+00
  1.533249e-01    0.000000e+00
  1.536238e-01    0.000000e+00
