# == pyFAI calibration ==
# Distance Sample to Detector: 2.266 m
# PONI: 5.659e-02, 4.293e-02 m
# Rotations: 0.000000 0.000000 0.000000 rad
# 
# == Fit2d calibration ==
# Distance Sample-beamCenter: 2266.000 mm
# Center: x=249.594, y=329.012 pix
# Tilt: 0.000 deg  TiltPlanRot: 0.000 deg
# 
# Detector Pilatus 300k	 PixelSize= 1.720e-04, 1.720e-04 m
#    Detector has a mask: True 
#    Detector has a dark current: False 
#    detector has a flat field: False 
# 
# Wavelength: 1.27818e-10 m
# Mask applied: user provided
# Dark current applied: False
# Flat field applied: False
# Polarization factor: None
# Normalization factor: 26869274.6
# --> MT-AL_F127_220301_8561899e-6004-452b-b9ab-9279609848e7_2_r1d.csv
#        q_A^-1             I 
  4.457554e-03    1.698324e-03
  4.756484e-03    1.347589e-03
  5.055415e-03    9.772285e-04
  5.354345e-03    7.071315e-04
  5.653276e-03    5.626701e-04
  5.952206e-03    9.187880e-04
  6.251136e-03    8.317332e-04
  6.550067e-03    7.140152e-04
  6.848997e-03    6.020840e-04
  7.147927e-03    5.081732e-04
  7.446858e-03    4.336874e-04
  7.745788e-03    3.718601e-04
  8.044719e-03    3.206879e-04
  8.343649e-03    2.803192e-04
  8.642579e-03    2.453086e-04
  8.941510e-03    2.160548e-04
  9.240440e-03    1.915102e-04
  9.539371e-03    1.699531e-04
  9.838301e-03    1.514040e-04
  1.013723e-02    1.360172e-04
  1.043616e-02    1.227703e-04
  1.073509e-02    1.104330e-04
  1.103402e-02    9.985796e-05
  1.133295e-02    9.080569e-05
  1.163188e-02    8.288705e-05
  1.193081e-02    7.578859e-05
  1.222974e-02    6.938601e-05
  1.252867e-02    6.389094e-05
  1.282760e-02    5.891716e-05
  1.312654e-02    5.415312e-05
  1.342547e-02    5.014166e-05
  1.372440e-02    4.660423e-05
  1.402333e-02    4.324777e-05
  1.432226e-02    4.021394e-05
  1.462119e-02    3.756081e-05
  1.492012e-02    3.524231e-05
  1.521905e-02    3.302562e-05
  1.551798e-02    3.103583e-05
  1.581691e-02    2.914371e-05
  1.611584e-02    2.743771e-05
  1.641477e-02    2.591052e-05
  1.671370e-02    2.445794e-05
  1.701263e-02    2.320736e-05
  1.731156e-02    2.202672e-05
  1.761049e-02    2.090145e-05
  1.790942e-02    1.994885e-05
  1.820835e-02    1.900901e-05
  1.850728e-02    1.813478e-05
  1.880621e-02    1.738115e-05
  1.910514e-02    1.661143e-05
  1.940407e-02    1.585318e-05
  1.970300e-02    1.524313e-05
  2.000193e-02    1.468593e-05
  2.030086e-02    1.414461e-05
  2.059979e-02    1.363599e-05
  2.089873e-02    1.313077e-05
  2.119766e-02    1.269162e-05
  2.149659e-02    1.225883e-05
  2.179552e-02    1.190371e-05
  2.209445e-02    1.159159e-05
  2.239338e-02    1.122642e-05
  2.269231e-02    1.087253e-05
  2.299124e-02    1.060454e-05
  2.329017e-02    1.037869e-05
  2.358910e-02    1.016118e-05
  2.388803e-02    9.898222e-06
  2.418696e-02    9.618658e-06
  2.448589e-02    9.383480e-06
  2.478482e-02    9.176828e-06
  2.508375e-02    8.986942e-06
  2.538268e-02    8.834529e-06
  2.568161e-02    8.667044e-06
  2.598054e-02    8.512092e-06
  2.627947e-02    8.380038e-06
  2.657840e-02    8.190941e-06
  2.687733e-02    8.046577e-06
  2.717626e-02    7.944078e-06
  2.747519e-02    7.799965e-06
  2.777412e-02    7.675807e-06
  2.807305e-02    7.575210e-06
  2.837198e-02    7.450079e-06
  2.867092e-02    7.370721e-06
  2.896985e-02    7.290543e-06
  2.926878e-02    7.223753e-06
  2.956771e-02    7.114730e-06
  2.986664e-02    7.017281e-06
  3.016557e-02    6.956719e-06
  3.046450e-02    6.881774e-06
  3.076343e-02    6.816920e-06
  3.106236e-02    6.755646e-06
  3.136129e-02    6.676327e-06
  3.166022e-02    6.571899e-06
  3.195915e-02    6.529742e-06
  3.225808e-02    6.481270e-06
  3.255701e-02    6.422854e-06
  3.285594e-02    6.373790e-06
  3.315487e-02    6.300214e-06
  3.345380e-02    6.252151e-06
  3.375273e-02    6.205053e-06
  3.405166e-02    6.114661e-06
  3.435059e-02    6.064542e-06
  3.464952e-02    6.006493e-06
  3.494845e-02    5.986489e-06
  3.524738e-02    5.965814e-06
  3.554631e-02    5.903867e-06
  3.584524e-02    5.856906e-06
  3.614417e-02    5.791400e-06
  3.644310e-02    5.755388e-06
  3.674204e-02    5.709121e-06
  3.704097e-02    5.628774e-06
  3.733990e-02    5.570067e-06
  3.763883e-02    5.557077e-06
  3.793776e-02    5.538807e-06
  3.823669e-02    5.520124e-06
  3.853562e-02    5.499663e-06
  3.883455e-02    5.466978e-06
  3.913348e-02    5.441661e-06
  3.943241e-02    5.427410e-06
  3.973134e-02    5.391296e-06
  4.003027e-02    5.355477e-06
  4.032920e-02    5.337075e-06
  4.062813e-02    5.325339e-06
  4.092706e-02    5.313841e-06
  4.122599e-02    5.276217e-06
  4.152492e-02    5.251527e-06
  4.182385e-02    5.245062e-06
  4.212278e-02    5.212711e-06
  4.242171e-02    5.188037e-06
  4.272064e-02    5.177174e-06
  4.301957e-02    5.162567e-06
  4.331850e-02    5.151454e-06
  4.361743e-02    5.117280e-06
  4.391636e-02    5.120191e-06
  4.421529e-02    5.095894e-06
  4.451423e-02    5.092620e-06
  4.481316e-02    5.106340e-06
  4.511209e-02    5.094140e-06
  4.541102e-02    5.069476e-06
  4.570995e-02    5.064934e-06
  4.600888e-02    5.072234e-06
  4.630781e-02    5.087576e-06
  4.660674e-02    5.068559e-06
  4.690567e-02    5.036923e-06
  4.720460e-02    5.035874e-06
  4.750353e-02    5.043756e-06
  4.780246e-02    5.030449e-06
  4.810139e-02    5.025366e-06
  4.840032e-02    5.038088e-06
  4.869925e-02    5.052325e-06
  4.899818e-02    5.040614e-06
  4.929711e-02    5.018062e-06
  4.959604e-02    5.027325e-06
  4.989497e-02    5.029281e-06
  5.019390e-02    5.030581e-06
  5.049283e-02    5.031037e-06
  5.079176e-02    5.040433e-06
  5.109069e-02    5.031411e-06
  5.138962e-02    5.053499e-06
  5.168855e-02    5.138767e-06
  5.198748e-02    5.192866e-06
  5.228642e-02    5.155484e-06
  5.258535e-02    5.061060e-06
  5.288428e-02    5.033607e-06
  5.318321e-02    5.037871e-06
  5.348214e-02    5.020176e-06
  5.378107e-02    5.044471e-06
  5.408000e-02    5.030636e-06
  5.437893e-02    5.013462e-06
  5.467786e-02    5.008882e-06
  5.497679e-02    5.020412e-06
  5.527572e-02    5.041539e-06
  5.557465e-02    5.021499e-06
  5.587358e-02    5.023608e-06
  5.617251e-02    5.043065e-06
  5.647144e-02    5.053616e-06
  5.677037e-02    5.055781e-06
  5.706930e-02    5.061078e-06
  5.736823e-02    5.065694e-06
  5.766716e-02    5.075937e-06
  5.796609e-02    5.073812e-06
  5.826502e-02    5.070000e-06
  5.856395e-02    5.085064e-06
  5.886288e-02    5.088246e-06
  5.916181e-02    5.089206e-06
  5.946074e-02    5.098273e-06
  5.975967e-02    5.114016e-06
  6.005861e-02    5.119011e-06
  6.035754e-02    5.132619e-06
  6.065647e-02    5.161068e-06
  6.095540e-02    5.214462e-06
  6.125433e-02    5.263001e-06
  6.155326e-02    5.268077e-06
  6.185219e-02    5.232209e-06
  6.215112e-02    5.193734e-06
  6.245005e-02    5.177283e-06
  6.274898e-02    5.190771e-06
  6.304791e-02    5.209208e-06
  6.334684e-02    5.222850e-06
  6.364577e-02    5.245756e-06
  6.394470e-02    5.243865e-06
  6.424363e-02    5.223907e-06
  6.454256e-02    5.237416e-06
  6.484149e-02    5.261076e-06
  6.514042e-02    5.264066e-06
  6.543935e-02    5.265179e-06
  6.573828e-02    5.264806e-06
  6.603721e-02    5.277226e-06
  6.633614e-02    5.281548e-06
  6.663507e-02    5.283585e-06
  6.693400e-02    5.302309e-06
  6.723293e-02    5.316341e-06
  6.753186e-02    5.305942e-06
  6.783080e-02    5.310830e-06
  6.812973e-02    5.327223e-06
  6.842866e-02    5.345604e-06
  6.872759e-02    5.361733e-06
  6.902652e-02    5.357897e-06
  6.932545e-02    5.350763e-06
  6.962438e-02    5.365660e-06
  6.992331e-02    5.387627e-06
  7.022224e-02    5.385387e-06
  7.052117e-02    5.391534e-06
  7.082010e-02    5.400849e-06
  7.111903e-02    5.403916e-06
  7.141796e-02    5.399544e-06
  7.171689e-02    5.411064e-06
  7.201582e-02    5.425300e-06
  7.231475e-02    5.435985e-06
  7.261368e-02    5.435610e-06
  7.291261e-02    5.441575e-06
  7.321154e-02    5.456570e-06
  7.351047e-02    5.467757e-06
  7.380940e-02    5.460925e-06
  7.410833e-02    5.456124e-06
  7.440726e-02    5.469383e-06
  7.470619e-02    5.463530e-06
  7.500512e-02    5.460789e-06
  7.530405e-02    5.460106e-06
  7.560299e-02    5.441314e-06
  7.590192e-02    5.447249e-06
  7.620085e-02    5.470558e-06
  7.649978e-02    5.475625e-06
  7.679871e-02    5.469913e-06
  7.709764e-02    5.457946e-06
  7.739657e-02    5.468610e-06
  7.769550e-02    5.464108e-06
  7.799443e-02    5.467258e-06
  7.829336e-02    5.466834e-06
  7.859229e-02    5.450529e-06
  7.889122e-02    5.442435e-06
  7.919015e-02    5.462355e-06
  7.948908e-02    5.461963e-06
  7.978801e-02    5.445514e-06
  8.008694e-02    5.451344e-06
  8.038587e-02    5.438881e-06
  8.068480e-02    5.423318e-06
  8.098373e-02    5.431341e-06
  8.128266e-02    5.435283e-06
  8.158159e-02    5.432510e-06
  8.188052e-02    5.425087e-06
  8.217945e-02    5.416061e-06
  8.247838e-02    5.416869e-06
  8.277731e-02    5.406270e-06
  8.307624e-02    5.401969e-06
  8.337518e-02    5.408629e-06
  8.367411e-02    5.404621e-06
  8.397304e-02    5.394886e-06
  8.427197e-02    5.400366e-06
  8.457090e-02    5.387266e-06
  8.486983e-02    5.372511e-06
  8.516876e-02    5.375993e-06
  8.546769e-02    5.356711e-06
  8.576662e-02    5.352113e-06
  8.606555e-02    5.338950e-06
  8.636448e-02    5.338285e-06
  8.666341e-02    5.342151e-06
  8.696234e-02    5.324429e-06
  8.726127e-02    5.327383e-06
  8.756020e-02    5.307985e-06
  8.785913e-02    5.280416e-06
  8.815806e-02    5.269799e-06
  8.845699e-02    5.271105e-06
  8.875592e-02    5.255895e-06
  8.905485e-02    5.244300e-06
  8.935378e-02    5.237183e-06
  8.965271e-02    5.248980e-06
  8.995164e-02    5.253004e-06
  9.025057e-02    5.231627e-06
  9.054950e-02    5.220460e-06
  9.084843e-02    5.224560e-06
  9.114737e-02    5.205583e-06
  9.144630e-02    5.189105e-06
  9.174523e-02    5.182173e-06
  9.204416e-02    5.182376e-06
  9.234309e-02    5.153220e-06
  9.264202e-02    5.152868e-06
  9.294095e-02    5.142861e-06
  9.323988e-02    5.129022e-06
  9.353881e-02    5.139302e-06
  9.383774e-02    5.136963e-06
  9.413667e-02    5.094923e-06
  9.443560e-02    5.103020e-06
  9.473453e-02    5.101675e-06
  9.503346e-02    5.074112e-06
  9.533239e-02    5.088325e-06
  9.563132e-02    5.095812e-06
  9.593025e-02    5.070608e-06
  9.622918e-02    5.063962e-06
  9.652811e-02    5.077774e-06
  9.682704e-02    5.094007e-06
  9.712597e-02    5.086850e-06
  9.742490e-02    5.047236e-06
  9.772383e-02    5.035529e-06
  9.802276e-02    5.033565e-06
  9.832169e-02    4.993817e-06
  9.862062e-02    4.965322e-06
  9.891956e-02    4.950501e-06
  9.921849e-02    4.956481e-06
  9.951742e-02    4.941658e-06
  9.981635e-02    4.932245e-06
  1.001153e-01    4.931792e-06
  1.004142e-01    4.918967e-06
  1.007131e-01    4.906152e-06
  1.010121e-01    4.898439e-06
  1.013110e-01    4.887720e-06
  1.016099e-01    4.889434e-06
  1.019089e-01    4.868778e-06
  1.022078e-01    4.836254e-06
  1.025067e-01    4.828162e-06
  1.028057e-01    4.824937e-06
  1.031046e-01    4.823426e-06
  1.034035e-01    4.821953e-06
  1.037024e-01    4.815797e-06
  1.040014e-01    4.801904e-06
  1.043003e-01    4.780940e-06
  1.045992e-01    4.761798e-06
  1.048982e-01    4.761785e-06
  1.051971e-01    4.757339e-06
  1.054960e-01    4.734332e-06
  1.057950e-01    4.738939e-06
  1.060939e-01    4.737197e-06
  1.063928e-01    4.744310e-06
  1.066917e-01    4.730930e-06
  1.069907e-01    4.697553e-06
  1.072896e-01    4.687164e-06
  1.075885e-01    4.687986e-06
  1.078875e-01    4.677107e-06
  1.081864e-01    4.659723e-06
  1.084853e-01    4.666118e-06
  1.087843e-01    4.658813e-06
  1.090832e-01    4.643938e-06
  1.093821e-01    4.616257e-06
  1.096810e-01    4.610191e-06
  1.099800e-01    4.604645e-06
  1.102789e-01    4.592396e-06
  1.105778e-01    4.569697e-06
  1.108768e-01    4.560593e-06
  1.111757e-01    4.537479e-06
  1.114746e-01    4.513609e-06
  1.117736e-01    4.525803e-06
  1.120725e-01    4.532915e-06
  1.123714e-01    4.514274e-06
  1.126704e-01    4.504175e-06
  1.129693e-01    4.488031e-06
  1.132682e-01    4.469806e-06
  1.135671e-01    4.460719e-06
  1.138661e-01    4.449480e-06
  1.141650e-01    4.456368e-06
  1.144639e-01    4.463169e-06
  1.147629e-01    4.434683e-06
  1.150618e-01    4.427987e-06
  1.153607e-01    4.441237e-06
  1.156597e-01    4.425210e-06
  1.159586e-01    4.409753e-06
  1.162575e-01    4.422986e-06
  1.165564e-01    4.430294e-06
  1.168554e-01    4.421366e-06
  1.171543e-01    4.380418e-06
  1.174532e-01    4.339370e-06
  1.177522e-01    4.366234e-06
  1.180511e-01    4.388910e-06
  1.183500e-01    4.404076e-06
  1.186490e-01    4.425700e-06
  1.189479e-01    4.396840e-06
  1.192468e-01    4.361638e-06
  1.195458e-01    4.366609e-06
  1.198447e-01    4.352985e-06
  1.201436e-01    4.345915e-06
  1.204425e-01    4.290432e-06
  1.207415e-01    3.974148e-06
  1.210404e-01    3.799596e-06
  1.213393e-01    0.000000e+00
  1.216383e-01    0.000000e+00
  1.219372e-01    0.000000e+00
  1.222361e-01    0.000000e+00
  1.225351e-01    0.000000e+00
  1.228340e-01    0.000000e+00
  1.231329e-01    0.000000e+00
  1.234318e-01    0.000000e+00
  1.237308e-01    0.000000e+00
  1.240297e-01    0.000000e+00
  1.243286e-01    0.000000e+00
  1.246276e-01    0.000000e+00
  1.249265e-01    0.000000e+00
  1.252254e-01    0.000000e+00
  1.255244e-01    0.000000e+00
  1.258233e-01    0.000000e+00
  1.261222e-01    0.000000e+00
  1.264212e-01    0.000000e+00
  1.267201e-01    0.000000e+00
  1.270190e-01    0.000000e+00
  1.273179e-01    0.000000e+00
  1.276169e-01    0.000000e+00
  1.279158e-01    0.000000e+00
  1.282147e-01    0.000000e+00
  1.285137e-01    0.000000e+00
  1.288126e-01    0.000000e+00
  1.291115e-01    0.000000e+00
  1.294105e-01    0.000000e+00
  1.297094e-01    0.000000e+00
  1.300083e-01    0.000000e+00
  1.303072e-01    0.000000e+00
  1.306062e-01    0.000000e+00
  1.309051e-01    0.000000e+00
  1.312040e-01    0.000000e+00
  1.315030e-01    0.000000e+00
  1.318019e-01    0.000000e+00
  1.321008e-01    0.000000e+00
  1.323998e-01    0.000000e+00
  1.326987e-01    0.000000e+00
  1.329976e-01    0.000000e+00
  1.332965e-01    0.000000e+00
  1.335955e-01    0.000000e+00
  1.338944e-01    0.000000e+00
  1.341933e-01    0.000000e+00
  1.344923e-01    0.000000e+00
  1.347912e-01    0.000000e+00
  1.350901e-01    0.000000e+00
  1.353891e-01    0.000000e+00
  1.356880e-01    0.000000e+00
  1.359869e-01    0.000000e+00
  1.362859e-01    0.000000e+00
  1.365848e-01    0.000000e+00
  1.368837e-01    0.000000e+00
  1.371826e-01    0.000000e+00
  1.374816e-01    0.000000e+00
  1.377805e-01    0.000000e+00
  1.380794e-01    0.000000e+00
  1.383784e-01    0.000000e+00
  1.386773e-01    0.000000e+00
  1.389762e-01    0.000000e+00
  1.392752e-01    0.000000e+00
  1.395741e-01    0.000000e+00
  1.398730e-01    0.000000e+00
  1.401719e-01    0.000000e+00
  1.404709e-01    0.000000e+00
  1.407698e-01    0.000000e+00
  1.410687e-01    0.000000e+00
  1.413677e-01    0.000000e+00
  1.416666e-01    0.000000e+00
  1.419655e-01    0.000000e+00
  1.422645e-01    0.000000e+00
  1.425634e-01    0.000000e+00
  1.428623e-01    0.000000e+00
  1.431613e-01    0.000000e+00
  1.434602e-01    0.000000e+00
  1.437591e-01    0.000000e+00
  1.440580e-01    0.000000e+00
  1.443570e-01    0.000000e+00
  1.446559e-01    0.000000e+00
  1.449548e-01    0.000000e+00
  1.452538e-01    0.000000e+00
  1.455527e-01    0.000000e+00
  1.458516e-01    0.000000e+00
  1.461506e-01    0.000000e+00
  1.464495e-01    0.000000e+00
  1.467484e-01    0.000000e+00
  1.470473e-01    0.000000e+00
  1.473463e-01    0.000000e+00
  1.476452e-01    0.000000e+00
  1.479441e-01    0.000000e+00
  1.482431e-01    0.000000e+00
  1.485420e-01    0.000000e+00
  1.488409e-01    0.000000e+00
  1.491399e-01    0.000000e+00
  1.494388e-01    0.000000e+00
  1.497377e-01    0.000000e+00
  1.500367e-01    0.000000e+00
  1.503356e-01    0.000000e+00
  1.506345e-01    0.000000e+00
  1.509334e-01    0.000000e+00
  1.512324e-01    0.000000e+00
  1.515313e-01    0.000000e+00
  1.518302e-01    0.000000e+00
  1.521292e-01    0.000000e+00
  1.524281e-01    0.000000e+00
  1.527270e-01    0.000000e+00
  1.530260e-01    0.000000e+00
  1.533249e-01    0.000000e+00
  1.536238e-01    0.000000e+00
