# == pyFAI calibration ==
# Distance Sample to Detector: 2.266 m
# PONI: 5.659e-02, 4.293e-02 m
# Rotations: 0.000000 0.000000 0.000000 rad
# 
# == Fit2d calibration ==
# Distance Sample-beamCenter: 2266.000 mm
# Center: x=249.594, y=329.012 pix
# Tilt: 0.000 deg  TiltPlanRot: 0.000 deg
# 
# Detector Pilatus 300k	 PixelSize= 1.720e-04, 1.720e-04 m
#    Detector has a mask: True 
#    Detector has a dark current: False 
#    detector has a flat field: False 
# 
# Wavelength: 1.27818e-10 m
# Mask applied: user provided
# Dark current applied: False
# Flat field applied: False
# Polarization factor: None
# Normalization factor: 10569.41
# --> MT-AL_DowExpt1_220227_320f43e3-819e-40b5-bfad-004d1d11ab96_2_r1d.csv
#        q_A^-1             I 
  4.457554e-03    5.511316e-02
  4.756484e-03    4.499389e-02
  5.055415e-03    3.180201e-02
  5.354345e-03    2.201902e-02
  5.653276e-03    1.808229e-02
  5.952206e-03    3.195093e-02
  6.251136e-03    2.920611e-02
  6.550067e-03    2.558533e-02
  6.848997e-03    2.178007e-02
  7.147927e-03    1.831479e-02
  7.446858e-03    1.549395e-02
  7.745788e-03    1.317787e-02
  8.044719e-03    1.125683e-02
  8.343649e-03    9.809819e-03
  8.642579e-03    8.633905e-03
  8.941510e-03    7.604769e-03
  9.240440e-03    6.725687e-03
  9.539371e-03    5.918611e-03
  9.838301e-03    5.325189e-03
  1.013723e-02    4.804645e-03
  1.043616e-02    4.265390e-03
  1.073509e-02    3.773369e-03
  1.103402e-02    3.368118e-03
  1.133295e-02    3.040856e-03
  1.163188e-02    2.733848e-03
  1.193081e-02    2.509984e-03
  1.222974e-02    2.274963e-03
  1.252867e-02    2.100366e-03
  1.282760e-02    1.946506e-03
  1.312654e-02    1.755743e-03
  1.342547e-02    1.616307e-03
  1.372440e-02    1.490896e-03
  1.402333e-02    1.395531e-03
  1.432226e-02    1.296194e-03
  1.462119e-02    1.187191e-03
  1.492012e-02    1.095676e-03
  1.521905e-02    1.027224e-03
  1.551798e-02    9.678412e-04
  1.581691e-02    8.824212e-04
  1.611584e-02    8.392381e-04
  1.641477e-02    7.906009e-04
  1.671370e-02    7.437407e-04
  1.701263e-02    7.238625e-04
  1.731156e-02    6.872753e-04
  1.761049e-02    6.257168e-04
  1.790942e-02    5.973444e-04
  1.820835e-02    5.715674e-04
  1.850728e-02    5.301698e-04
  1.880621e-02    5.061802e-04
  1.910514e-02    4.854405e-04
  1.940407e-02    4.549458e-04
  1.970300e-02    4.305867e-04
  2.000193e-02    4.165104e-04
  2.030086e-02    3.969015e-04
  2.059979e-02    3.851910e-04
  2.089873e-02    3.705797e-04
  2.119766e-02    3.479053e-04
  2.149659e-02    3.194677e-04
  2.179552e-02    3.039021e-04
  2.209445e-02    3.005169e-04
  2.239338e-02    2.993919e-04
  2.269231e-02    2.789936e-04
  2.299124e-02    2.656616e-04
  2.329017e-02    2.593460e-04
  2.358910e-02    2.566220e-04
  2.388803e-02    2.501089e-04
  2.418696e-02    2.447194e-04
  2.448589e-02    2.353484e-04
  2.478482e-02    2.285021e-04
  2.508375e-02    2.228653e-04
  2.538268e-02    2.221688e-04
  2.568161e-02    2.195782e-04
  2.598054e-02    2.029255e-04
  2.627947e-02    1.993112e-04
  2.657840e-02    2.028007e-04
  2.687733e-02    1.968563e-04
  2.717626e-02    1.949825e-04
  2.747519e-02    1.843655e-04
  2.777412e-02    1.873430e-04
  2.807305e-02    1.800768e-04
  2.837198e-02    1.732008e-04
  2.867092e-02    1.667974e-04
  2.896985e-02    1.764052e-04
  2.926878e-02    1.703336e-04
  2.956771e-02    1.699077e-04
  2.986664e-02    1.672620e-04
  3.016557e-02    1.644861e-04
  3.046450e-02    1.651873e-04
  3.076343e-02    1.593691e-04
  3.106236e-02    1.554090e-04
  3.136129e-02    1.498593e-04
  3.166022e-02    1.508140e-04
  3.195915e-02    1.545678e-04
  3.225808e-02    1.450715e-04
  3.255701e-02    1.401645e-04
  3.285594e-02    1.417380e-04
  3.315487e-02    1.321309e-04
  3.345380e-02    1.318770e-04
  3.375273e-02    1.345282e-04
  3.405166e-02    1.307117e-04
  3.435059e-02    1.342036e-04
  3.464952e-02    1.291926e-04
  3.494845e-02    1.262794e-04
  3.524738e-02    1.283132e-04
  3.554631e-02    1.258058e-04
  3.584524e-02    1.236091e-04
  3.614417e-02    1.224888e-04
  3.644310e-02    1.212640e-04
  3.674204e-02    1.205098e-04
  3.704097e-02    1.219682e-04
  3.733990e-02    1.242599e-04
  3.763883e-02    1.192570e-04
  3.793776e-02    1.126152e-04
  3.823669e-02    1.175964e-04
  3.853562e-02    1.149099e-04
  3.883455e-02    1.124202e-04
  3.913348e-02    1.155306e-04
  3.943241e-02    1.091773e-04
  3.973134e-02    1.057980e-04
  4.003027e-02    1.024987e-04
  4.032920e-02    1.057005e-04
  4.062813e-02    1.056521e-04
  4.092706e-02    1.065245e-04
  4.122599e-02    1.060282e-04
  4.152492e-02    1.073663e-04
  4.182385e-02    1.078810e-04
  4.212278e-02    1.033869e-04
  4.242171e-02    1.001924e-04
  4.272064e-02    1.057003e-04
  4.301957e-02    1.102864e-04
  4.331850e-02    1.085166e-04
  4.361743e-02    1.059087e-04
  4.391636e-02    1.037895e-04
  4.421529e-02    1.016140e-04
  4.451423e-02    9.920792e-05
  4.481316e-02    9.935680e-05
  4.511209e-02    1.002454e-04
  4.541102e-02    9.887179e-05
  4.570995e-02    9.971800e-05
  4.600888e-02    9.805281e-05
  4.630781e-02    9.650161e-05
  4.660674e-02    9.939233e-05
  4.690567e-02    1.003896e-04
  4.720460e-02    9.894140e-05
  4.750353e-02    9.804480e-05
  4.780246e-02    9.632392e-05
  4.810139e-02    9.723906e-05
  4.840032e-02    9.839709e-05
  4.869925e-02    9.694967e-05
  4.899818e-02    9.524848e-05
  4.929711e-02    9.243399e-05
  4.959604e-02    9.458364e-05
  4.989497e-02    9.226724e-05
  5.019390e-02    9.292628e-05
  5.049283e-02    9.495991e-05
  5.079176e-02    9.569648e-05
  5.109069e-02    9.914450e-05
  5.138962e-02    1.002102e-04
  5.168855e-02    1.032366e-04
  5.198748e-02    1.057763e-04
  5.228642e-02    1.001191e-04
  5.258535e-02    9.618674e-05
  5.288428e-02    9.634016e-05
  5.318321e-02    9.319464e-05
  5.348214e-02    9.166776e-05
  5.378107e-02    9.280573e-05
  5.408000e-02    9.601802e-05
  5.437893e-02    9.751199e-05
  5.467786e-02    9.778237e-05
  5.497679e-02    9.479653e-05
  5.527572e-02    9.435002e-05
  5.557465e-02    9.761639e-05
  5.587358e-02    1.001343e-04
  5.617251e-02    9.913516e-05
  5.647144e-02    1.002981e-04
  5.677037e-02    1.023795e-04
  5.706930e-02    9.844181e-05
  5.736823e-02    9.260470e-05
  5.766716e-02    9.432383e-05
  5.796609e-02    9.373213e-05
  5.826502e-02    9.588239e-05
  5.856395e-02    9.261297e-05
  5.886288e-02    8.915692e-05
  5.916181e-02    9.418511e-05
  5.946074e-02    9.802020e-05
  5.975967e-02    1.000933e-04
  6.005861e-02    9.864297e-05
  6.035754e-02    9.287400e-05
  6.065647e-02    9.637061e-05
  6.095540e-02    9.860135e-05
  6.125433e-02    9.778180e-05
  6.155326e-02    9.893883e-05
  6.185219e-02    9.683498e-05
  6.215112e-02    1.004067e-04
  6.245005e-02    9.910980e-05
  6.274898e-02    9.514517e-05
  6.304791e-02    9.280311e-05
  6.334684e-02    9.705919e-05
  6.364577e-02    9.762049e-05
  6.394470e-02    9.374174e-05
  6.424363e-02    9.484489e-05
  6.454256e-02    9.760494e-05
  6.484149e-02    9.602298e-05
  6.514042e-02    9.653200e-05
  6.543935e-02    1.001345e-04
  6.573828e-02    9.758837e-05
  6.603721e-02    1.008701e-04
  6.633614e-02    1.019352e-04
  6.663507e-02    9.706826e-05
  6.693400e-02    1.004916e-04
  6.723293e-02    9.775117e-05
  6.753186e-02    1.004270e-04
  6.783080e-02    1.033710e-04
  6.812973e-02    9.795749e-05
  6.842866e-02    9.987455e-05
  6.872759e-02    1.041111e-04
  6.902652e-02    1.031114e-04
  6.932545e-02    1.002752e-04
  6.962438e-02    1.027495e-04
  6.992331e-02    1.043065e-04
  7.022224e-02    1.029437e-04
  7.052117e-02    1.012410e-04
  7.082010e-02    1.000505e-04
  7.111903e-02    1.000085e-04
  7.141796e-02    1.021512e-04
  7.171689e-02    1.004388e-04
  7.201582e-02    9.832625e-05
  7.231475e-02    1.023923e-04
  7.261368e-02    1.006141e-04
  7.291261e-02    1.003031e-04
  7.321154e-02    1.009185e-04
  7.351047e-02    1.009422e-04
  7.380940e-02    9.807118e-05
  7.410833e-02    9.905073e-05
  7.440726e-02    9.861148e-05
  7.470619e-02    9.702297e-05
  7.500512e-02    9.470021e-05
  7.530405e-02    9.752337e-05
  7.560299e-02    1.035493e-04
  7.590192e-02    1.052872e-04
  7.620085e-02    1.014363e-04
  7.649978e-02    9.952964e-05
  7.679871e-02    9.790694e-05
  7.709764e-02    9.966249e-05
  7.739657e-02    1.008679e-04
  7.769550e-02    9.977864e-05
  7.799443e-02    9.908819e-05
  7.829336e-02    9.760610e-05
  7.859229e-02    1.035697e-04
  7.889122e-02    1.042389e-04
  7.919015e-02    1.039322e-04
  7.948908e-02    1.019097e-04
  7.978801e-02    9.859628e-05
  8.008694e-02    1.001955e-04
  8.038587e-02    9.838150e-05
  8.068480e-02    9.455594e-05
  8.098373e-02    9.751928e-05
  8.128266e-02    9.853585e-05
  8.158159e-02    9.980802e-05
  8.188052e-02    9.642498e-05
  8.217945e-02    9.795029e-05
  8.247838e-02    9.944561e-05
  8.277731e-02    9.698721e-05
  8.307624e-02    9.663634e-05
  8.337518e-02    9.999952e-05
  8.367411e-02    9.759415e-05
  8.397304e-02    9.642476e-05
  8.427197e-02    1.016280e-04
  8.457090e-02    1.021679e-04
  8.486983e-02    9.871447e-05
  8.516876e-02    9.514447e-05
  8.546769e-02    9.421078e-05
  8.576662e-02    9.159104e-05
  8.606555e-02    9.318033e-05
  8.636448e-02    9.618465e-05
  8.666341e-02    9.839529e-05
  8.696234e-02    9.723294e-05
  8.726127e-02    9.631654e-05
  8.756020e-02    9.697188e-05
  8.785913e-02    9.844555e-05
  8.815806e-02    9.730066e-05
  8.845699e-02    9.680010e-05
  8.875592e-02    9.495131e-05
  8.905485e-02    9.404741e-05
  8.935378e-02    9.501498e-05
  8.965271e-02    9.487583e-05
  8.995164e-02    9.280611e-05
  9.025057e-02    9.268201e-05
  9.054950e-02    9.170479e-05
  9.084843e-02    9.112158e-05
  9.114737e-02    9.190170e-05
  9.144630e-02    8.910136e-05
  9.174523e-02    8.745582e-05
  9.204416e-02    9.079304e-05
  9.234309e-02    8.996881e-05
  9.264202e-02    9.115261e-05
  9.294095e-02    9.210304e-05
  9.323988e-02    9.171286e-05
  9.353881e-02    8.975624e-05
  9.383774e-02    8.962426e-05
  9.413667e-02    8.944816e-05
  9.443560e-02    9.032653e-05
  9.473453e-02    8.931757e-05
  9.503346e-02    9.042821e-05
  9.533239e-02    9.038969e-05
  9.563132e-02    9.078241e-05
  9.593025e-02    9.055502e-05
  9.622918e-02    9.076586e-05
  9.652811e-02    8.960027e-05
  9.682704e-02    9.166358e-05
  9.712597e-02    9.502792e-05
  9.742490e-02    9.282275e-05
  9.772383e-02    9.231678e-05
  9.802276e-02    8.895428e-05
  9.832169e-02    8.950160e-05
  9.862062e-02    8.948960e-05
  9.891956e-02    8.727308e-05
  9.921849e-02    8.691742e-05
  9.951742e-02    8.806335e-05
  9.981635e-02    8.909876e-05
  1.001153e-01    9.214515e-05
  1.004142e-01    9.221723e-05
  1.007131e-01    8.855194e-05
  1.010121e-01    8.798327e-05
  1.013110e-01    8.810762e-05
  1.016099e-01    8.617796e-05
  1.019089e-01    8.561106e-05
  1.022078e-01    8.596465e-05
  1.025067e-01    8.628683e-05
  1.028057e-01    8.258014e-05
  1.031046e-01    8.370220e-05
  1.034035e-01    8.401888e-05
  1.037024e-01    8.338417e-05
  1.040014e-01    8.455437e-05
  1.043003e-01    8.847554e-05
  1.045992e-01    8.575038e-05
  1.048982e-01    8.217640e-05
  1.051971e-01    8.308642e-05
  1.054960e-01    8.441923e-05
  1.057950e-01    8.635269e-05
  1.060939e-01    8.500348e-05
  1.063928e-01    8.146537e-05
  1.066917e-01    8.186176e-05
  1.069907e-01    8.542017e-05
  1.072896e-01    8.479346e-05
  1.075885e-01    8.246839e-05
  1.078875e-01    8.402953e-05
  1.081864e-01    8.407309e-05
  1.084853e-01    8.396721e-05
  1.087843e-01    8.680629e-05
  1.090832e-01    8.541903e-05
  1.093821e-01    8.369708e-05
  1.096810e-01    8.487105e-05
  1.099800e-01    8.332169e-05
  1.102789e-01    8.117623e-05
  1.105778e-01    8.090762e-05
  1.108768e-01    8.200663e-05
  1.111757e-01    8.355967e-05
  1.114746e-01    8.130141e-05
  1.117736e-01    8.145654e-05
  1.120725e-01    8.373700e-05
  1.123714e-01    8.509048e-05
  1.126704e-01    8.292913e-05
  1.129693e-01    8.034091e-05
  1.132682e-01    7.754151e-05
  1.135671e-01    7.510425e-05
  1.138661e-01    7.588635e-05
  1.141650e-01    7.630682e-05
  1.144639e-01    8.167557e-05
  1.147629e-01    7.660010e-05
  1.150618e-01    7.400433e-05
  1.153607e-01    7.780275e-05
  1.156597e-01    7.509670e-05
  1.159586e-01    7.456359e-05
  1.162575e-01    7.625045e-05
  1.165564e-01    7.389560e-05
  1.168554e-01    7.704453e-05
  1.171543e-01    8.765074e-05
  1.174532e-01    8.242744e-05
  1.177522e-01    7.424490e-05
  1.180511e-01    7.985745e-05
  1.183500e-01    7.851275e-05
  1.186490e-01    7.861769e-05
  1.189479e-01    8.593909e-05
  1.192468e-01    7.966189e-05
  1.195458e-01    7.484973e-05
  1.198447e-01    8.277869e-05
  1.201436e-01    8.301442e-05
  1.204425e-01    5.504100e-05
  1.207415e-01    2.967897e-05
  1.210404e-01    9.469836e-05
  1.213393e-01    0.000000e+00
  1.216383e-01    0.000000e+00
  1.219372e-01    0.000000e+00
  1.222361e-01    0.000000e+00
  1.225351e-01    0.000000e+00
  1.228340e-01    0.000000e+00
  1.231329e-01    0.000000e+00
  1.234318e-01    0.000000e+00
  1.237308e-01    0.000000e+00
  1.240297e-01    0.000000e+00
  1.243286e-01    0.000000e+00
  1.246276e-01    0.000000e+00
  1.249265e-01    0.000000e+00
  1.252254e-01    0.000000e+00
  1.255244e-01    0.000000e+00
  1.258233e-01    0.000000e+00
  1.261222e-01    0.000000e+00
  1.264212e-01    0.000000e+00
  1.267201e-01    0.000000e+00
  1.270190e-01    0.000000e+00
  1.273179e-01    0.000000e+00
  1.276169e-01    0.000000e+00
  1.279158e-01    0.000000e+00
  1.282147e-01    0.000000e+00
  1.285137e-01    0.000000e+00
  1.288126e-01    0.000000e+00
  1.291115e-01    0.000000e+00
  1.294105e-01    0.000000e+00
  1.297094e-01    0.000000e+00
  1.300083e-01    0.000000e+00
  1.303072e-01    0.000000e+00
  1.306062e-01    0.000000e+00
  1.309051e-01    0.000000e+00
  1.312040e-01    0.000000e+00
  1.315030e-01    0.000000e+00
  1.318019e-01    0.000000e+00
  1.321008e-01    0.000000e+00
  1.323998e-01    0.000000e+00
  1.326987e-01    0.000000e+00
  1.329976e-01    0.000000e+00
  1.332965e-01    0.000000e+00
  1.335955e-01    0.000000e+00
  1.338944e-01    0.000000e+00
  1.341933e-01    0.000000e+00
  1.344923e-01    0.000000e+00
  1.347912e-01    0.000000e+00
  1.350901e-01    0.000000e+00
  1.353891e-01    0.000000e+00
  1.356880e-01    0.000000e+00
  1.359869e-01    0.000000e+00
  1.362859e-01    0.000000e+00
  1.365848e-01    0.000000e+00
  1.368837e-01    0.000000e+00
  1.371826e-01    0.000000e+00
  1.374816e-01    0.000000e+00
  1.377805e-01    0.000000e+00
  1.380794e-01    0.000000e+00
  1.383784e-01    0.000000e+00
  1.386773e-01    0.000000e+00
  1.389762e-01    0.000000e+00
  1.392752e-01    0.000000e+00
  1.395741e-01    0.000000e+00
  1.398730e-01    0.000000e+00
  1.401719e-01    0.000000e+00
  1.404709e-01    0.000000e+00
  1.407698e-01    0.000000e+00
  1.410687e-01    0.000000e+00
  1.413677e-01    0.000000e+00
  1.416666e-01    0.000000e+00
  1.419655e-01    0.000000e+00
  1.422645e-01    0.000000e+00
  1.425634e-01    0.000000e+00
  1.428623e-01    0.000000e+00
  1.431613e-01    0.000000e+00
  1.434602e-01    0.000000e+00
  1.437591e-01    0.000000e+00
  1.440580e-01    0.000000e+00
  1.443570e-01    0.000000e+00
  1.446559e-01    0.000000e+00
  1.449548e-01    0.000000e+00
  1.452538e-01    0.000000e+00
  1.455527e-01    0.000000e+00
  1.458516e-01    0.000000e+00
  1.461506e-01    0.000000e+00
  1.464495e-01    0.000000e+00
  1.467484e-01    0.000000e+00
  1.470473e-01    0.000000e+00
  1.473463e-01    0.000000e+00
  1.476452e-01    0.000000e+00
  1.479441e-01    0.000000e+00
  1.482431e-01    0.000000e+00
  1.485420e-01    0.000000e+00
  1.488409e-01    0.000000e+00
  1.491399e-01    0.000000e+00
  1.494388e-01    0.000000e+00
  1.497377e-01    0.000000e+00
  1.500367e-01    0.000000e+00
  1.503356e-01    0.000000e+00
  1.506345e-01    0.000000e+00
  1.509334e-01    0.000000e+00
  1.512324e-01    0.000000e+00
  1.515313e-01    0.000000e+00
  1.518302e-01    0.000000e+00
  1.521292e-01    0.000000e+00
  1.524281e-01    0.000000e+00
  1.527270e-01    0.000000e+00
  1.530260e-01    0.000000e+00
  1.533249e-01    0.000000e+00
  1.536238e-01    0.000000e+00
