# == pyFAI calibration ==
# Distance Sample to Detector: 2.266 m
# PONI: 5.659e-02, 4.293e-02 m
# Rotations: 0.000000 0.000000 0.000000 rad
# 
# == Fit2d calibration ==
# Distance Sample-beamCenter: 2266.000 mm
# Center: x=249.594, y=329.012 pix
# Tilt: 0.000 deg  TiltPlanRot: 0.000 deg
# 
# Detector Pilatus 300k	 PixelSize= 1.720e-04, 1.720e-04 m
#    Detector has a mask: True 
#    Detector has a dark current: False 
#    detector has a flat field: False 
# 
# Wavelength: 1.27818e-10 m
# Mask applied: user provided
# Dark current applied: False
# Flat field applied: False
# Polarization factor: None
# Normalization factor: 2764668.2
# --> MT-AL_F127_220225_ecb898a6-95d1-4898-a712-9968013c3b7b_1_r1d.csv
#        q_A^-1             I 
  4.457554e-03    2.557172e-03
  4.756484e-03    1.996606e-03
  5.055415e-03    1.425135e-03
  5.354345e-03    1.016167e-03
  5.653276e-03    7.905826e-04
  5.952206e-03    1.214704e-03
  6.251136e-03    1.111121e-03
  6.550067e-03    9.687457e-04
  6.848997e-03    8.287053e-04
  7.147927e-03    7.018007e-04
  7.446858e-03    6.017393e-04
  7.745788e-03    5.172076e-04
  8.044719e-03    4.451831e-04
  8.343649e-03    3.888920e-04
  8.642579e-03    3.409186e-04
  8.941510e-03    3.016877e-04
  9.240440e-03    2.677128e-04
  9.539371e-03    2.378859e-04
  9.838301e-03    2.119777e-04
  1.013723e-02    1.891659e-04
  1.043616e-02    1.698781e-04
  1.073509e-02    1.529840e-04
  1.103402e-02    1.386143e-04
  1.133295e-02    1.254857e-04
  1.163188e-02    1.140903e-04
  1.193081e-02    1.043663e-04
  1.222974e-02    9.516035e-05
  1.252867e-02    8.675833e-05
  1.282760e-02    7.931161e-05
  1.312654e-02    7.327784e-05
  1.342547e-02    6.812352e-05
  1.372440e-02    6.284747e-05
  1.402333e-02    5.816931e-05
  1.432226e-02    5.379842e-05
  1.462119e-02    5.052598e-05
  1.492012e-02    4.697995e-05
  1.521905e-02    4.325670e-05
  1.551798e-02    4.045495e-05
  1.581691e-02    3.804793e-05
  1.611584e-02    3.572112e-05
  1.641477e-02    3.349463e-05
  1.671370e-02    3.150553e-05
  1.701263e-02    2.992860e-05
  1.731156e-02    2.851275e-05
  1.761049e-02    2.689192e-05
  1.790942e-02    2.532894e-05
  1.820835e-02    2.387502e-05
  1.850728e-02    2.295176e-05
  1.880621e-02    2.176651e-05
  1.910514e-02    2.078308e-05
  1.940407e-02    1.980670e-05
  1.970300e-02    1.896089e-05
  2.000193e-02    1.813091e-05
  2.030086e-02    1.721456e-05
  2.059979e-02    1.670249e-05
  2.089873e-02    1.627765e-05
  2.119766e-02    1.574347e-05
  2.149659e-02    1.528335e-05
  2.179552e-02    1.475809e-05
  2.209445e-02    1.428019e-05
  2.239338e-02    1.380853e-05
  2.269231e-02    1.353580e-05
  2.299124e-02    1.303934e-05
  2.329017e-02    1.261097e-05
  2.358910e-02    1.231030e-05
  2.388803e-02    1.182864e-05
  2.418696e-02    1.157390e-05
  2.448589e-02    1.143248e-05
  2.478482e-02    1.112793e-05
  2.508375e-02    1.080905e-05
  2.538268e-02    1.061105e-05
  2.568161e-02    1.048570e-05
  2.598054e-02    1.029714e-05
  2.627947e-02    1.014731e-05
  2.657840e-02    9.861410e-06
  2.687733e-02    9.629450e-06
  2.717626e-02    9.582579e-06
  2.747519e-02    9.355476e-06
  2.777412e-02    9.270431e-06
  2.807305e-02    9.090398e-06
  2.837198e-02    9.011671e-06
  2.867092e-02    8.991018e-06
  2.896985e-02    8.838524e-06
  2.926878e-02    8.758264e-06
  2.956771e-02    8.601814e-06
  2.986664e-02    8.454368e-06
  3.016557e-02    8.425613e-06
  3.046450e-02    8.276649e-06
  3.076343e-02    8.255888e-06
  3.106236e-02    8.125278e-06
  3.136129e-02    8.077464e-06
  3.166022e-02    8.029320e-06
  3.195915e-02    7.861786e-06
  3.225808e-02    7.686852e-06
  3.255701e-02    7.737418e-06
  3.285594e-02    7.723473e-06
  3.315487e-02    7.593364e-06
  3.345380e-02    7.473245e-06
  3.375273e-02    7.415941e-06
  3.405166e-02    7.315559e-06
  3.435059e-02    7.180212e-06
  3.464952e-02    7.040629e-06
  3.494845e-02    6.969819e-06
  3.524738e-02    6.933722e-06
  3.554631e-02    6.888606e-06
  3.584524e-02    6.779515e-06
  3.614417e-02    6.702628e-06
  3.644310e-02    6.761111e-06
  3.674204e-02    6.630907e-06
  3.704097e-02    6.513907e-06
  3.733990e-02    6.378355e-06
  3.763883e-02    6.325603e-06
  3.793776e-02    6.366971e-06
  3.823669e-02    6.353784e-06
  3.853562e-02    6.253358e-06
  3.883455e-02    6.144312e-06
  3.913348e-02    6.113877e-06
  3.943241e-02    6.081546e-06
  3.973134e-02    6.002573e-06
  4.003027e-02    6.035729e-06
  4.032920e-02    5.991617e-06
  4.062813e-02    5.978011e-06
  4.092706e-02    5.985891e-06
  4.122599e-02    5.877233e-06
  4.152492e-02    5.838583e-06
  4.182385e-02    5.815642e-06
  4.212278e-02    5.793230e-06
  4.242171e-02    5.734152e-06
  4.272064e-02    5.718028e-06
  4.301957e-02    5.687989e-06
  4.331850e-02    5.638737e-06
  4.361743e-02    5.664951e-06
  4.391636e-02    5.664115e-06
  4.421529e-02    5.676828e-06
  4.451423e-02    5.656353e-06
  4.481316e-02    5.633878e-06
  4.511209e-02    5.548736e-06
  4.541102e-02    5.594614e-06
  4.570995e-02    5.628234e-06
  4.600888e-02    5.619898e-06
  4.630781e-02    5.631296e-06
  4.660674e-02    5.587660e-06
  4.690567e-02    5.545555e-06
  4.720460e-02    5.554809e-06
  4.750353e-02    5.579850e-06
  4.780246e-02    5.587826e-06
  4.810139e-02    5.584931e-06
  4.840032e-02    5.514093e-06
  4.869925e-02    5.493412e-06
  4.899818e-02    5.477838e-06
  4.929711e-02    5.448433e-06
  4.959604e-02    5.438804e-06
  4.989497e-02    5.426854e-06
  5.019390e-02    5.473243e-06
  5.049283e-02    5.513752e-06
  5.079176e-02    5.485035e-06
  5.109069e-02    5.464343e-06
  5.138962e-02    5.544829e-06
  5.168855e-02    5.674865e-06
  5.198748e-02    5.819812e-06
  5.228642e-02    5.744665e-06
  5.258535e-02    5.523525e-06
  5.288428e-02    5.426254e-06
  5.318321e-02    5.449132e-06
  5.348214e-02    5.483088e-06
  5.378107e-02    5.476793e-06
  5.408000e-02    5.411256e-06
  5.437893e-02    5.385906e-06
  5.467786e-02    5.369949e-06
  5.497679e-02    5.429958e-06
  5.527572e-02    5.498709e-06
  5.557465e-02    5.468307e-06
  5.587358e-02    5.402506e-06
  5.617251e-02    5.358761e-06
  5.647144e-02    5.338771e-06
  5.677037e-02    5.407424e-06
  5.706930e-02    5.375878e-06
  5.736823e-02    5.330556e-06
  5.766716e-02    5.307830e-06
  5.796609e-02    5.360062e-06
  5.826502e-02    5.478210e-06
  5.856395e-02    5.416841e-06
  5.886288e-02    5.392823e-06
  5.916181e-02    5.384984e-06
  5.946074e-02    5.397816e-06
  5.975967e-02    5.452426e-06
  6.005861e-02    5.463470e-06
  6.035754e-02    5.457073e-06
  6.065647e-02    5.450047e-06
  6.095540e-02    5.515198e-06
  6.125433e-02    5.624001e-06
  6.155326e-02    5.697726e-06
  6.185219e-02    5.624704e-06
  6.215112e-02    5.538280e-06
  6.245005e-02    5.457259e-06
  6.274898e-02    5.469598e-06
  6.304791e-02    5.514029e-06
  6.334684e-02    5.462092e-06
  6.364577e-02    5.467342e-06
  6.394470e-02    5.489848e-06
  6.424363e-02    5.526032e-06
  6.454256e-02    5.541136e-06
  6.484149e-02    5.493939e-06
  6.514042e-02    5.556902e-06
  6.543935e-02    5.645107e-06
  6.573828e-02    5.578986e-06
  6.603721e-02    5.506992e-06
  6.633614e-02    5.463224e-06
  6.663507e-02    5.481285e-06
  6.693400e-02    5.527768e-06
  6.723293e-02    5.532242e-06
  6.753186e-02    5.560762e-06
  6.783080e-02    5.555099e-06
  6.812973e-02    5.532001e-06
  6.842866e-02    5.532914e-06
  6.872759e-02    5.587955e-06
  6.902652e-02    5.583494e-06
  6.932545e-02    5.615502e-06
  6.962438e-02    5.631409e-06
  6.992331e-02    5.630623e-06
  7.022224e-02    5.680837e-06
  7.052117e-02    5.694453e-06
  7.082010e-02    5.621390e-06
  7.111903e-02    5.641788e-06
  7.141796e-02    5.658889e-06
  7.171689e-02    5.626223e-06
  7.201582e-02    5.661447e-06
  7.231475e-02    5.712337e-06
  7.261368e-02    5.704095e-06
  7.291261e-02    5.658281e-06
  7.321154e-02    5.728755e-06
  7.351047e-02    5.751123e-06
  7.380940e-02    5.663172e-06
  7.410833e-02    5.631091e-06
  7.440726e-02    5.685233e-06
  7.470619e-02    5.693149e-06
  7.500512e-02    5.698745e-06
  7.530405e-02    5.705166e-06
  7.560299e-02    5.686695e-06
  7.590192e-02    5.739153e-06
  7.620085e-02    5.738929e-06
  7.649978e-02    5.719533e-06
  7.679871e-02    5.654854e-06
  7.709764e-02    5.647108e-06
  7.739657e-02    5.679944e-06
  7.769550e-02    5.707345e-06
  7.799443e-02    5.658379e-06
  7.829336e-02    5.645167e-06
  7.859229e-02    5.629111e-06
  7.889122e-02    5.590186e-06
  7.919015e-02    5.584212e-06
  7.948908e-02    5.578891e-06
  7.978801e-02    5.616671e-06
  8.008694e-02    5.647647e-06
  8.038587e-02    5.660082e-06
  8.068480e-02    5.636407e-06
  8.098373e-02    5.566444e-06
  8.128266e-02    5.543994e-06
  8.158159e-02    5.630547e-06
  8.188052e-02    5.580893e-06
  8.217945e-02    5.591634e-06
  8.247838e-02    5.656972e-06
  8.277731e-02    5.613214e-06
  8.307624e-02    5.553251e-06
  8.337518e-02    5.551812e-06
  8.367411e-02    5.569861e-06
  8.397304e-02    5.552680e-06
  8.427197e-02    5.502209e-06
  8.457090e-02    5.420494e-06
  8.486983e-02    5.415417e-06
  8.516876e-02    5.448569e-06
  8.546769e-02    5.527271e-06
  8.576662e-02    5.494502e-06
  8.606555e-02    5.446399e-06
  8.636448e-02    5.422229e-06
  8.666341e-02    5.440090e-06
  8.696234e-02    5.413149e-06
  8.726127e-02    5.421802e-06
  8.756020e-02    5.456386e-06
  8.785913e-02    5.399704e-06
  8.815806e-02    5.368825e-06
  8.845699e-02    5.391717e-06
  8.875592e-02    5.352973e-06
  8.905485e-02    5.310474e-06
  8.935378e-02    5.316238e-06
  8.965271e-02    5.358137e-06
  8.995164e-02    5.338836e-06
  9.025057e-02    5.301390e-06
  9.054950e-02    5.305236e-06
  9.084843e-02    5.312817e-06
  9.114737e-02    5.313694e-06
  9.144630e-02    5.300219e-06
  9.174523e-02    5.204383e-06
  9.204416e-02    5.187774e-06
  9.234309e-02    5.186936e-06
  9.264202e-02    5.213632e-06
  9.294095e-02    5.200656e-06
  9.323988e-02    5.173667e-06
  9.353881e-02    5.204090e-06
  9.383774e-02    5.189223e-06
  9.413667e-02    5.189210e-06
  9.443560e-02    5.157263e-06
  9.473453e-02    5.157917e-06
  9.503346e-02    5.129899e-06
  9.533239e-02    5.127499e-06
  9.563132e-02    5.185898e-06
  9.593025e-02    5.182011e-06
  9.622918e-02    5.100939e-06
  9.652811e-02    5.118924e-06
  9.682704e-02    5.135632e-06
  9.712597e-02    5.106881e-06
  9.742490e-02    5.120868e-06
  9.772383e-02    5.112132e-06
  9.802276e-02    5.098123e-06
  9.832169e-02    5.049527e-06
  9.862062e-02    4.993979e-06
  9.891956e-02    4.975897e-06
  9.921849e-02    4.974743e-06
  9.951742e-02    4.975474e-06
  9.981635e-02    4.976696e-06
  1.001153e-01    4.976893e-06
  1.004142e-01    4.983993e-06
  1.007131e-01    4.980748e-06
  1.010121e-01    4.950532e-06
  1.013110e-01    4.946539e-06
  1.016099e-01    4.959705e-06
  1.019089e-01    4.959132e-06
  1.022078e-01    4.906339e-06
  1.025067e-01    4.883439e-06
  1.028057e-01    4.885994e-06
  1.031046e-01    4.892961e-06
  1.034035e-01    4.910863e-06
  1.037024e-01    4.875812e-06
  1.040014e-01    4.822924e-06
  1.043003e-01    4.833243e-06
  1.045992e-01    4.822656e-06
  1.048982e-01    4.755037e-06
  1.051971e-01    4.801523e-06
  1.054960e-01    4.830827e-06
  1.057950e-01    4.775047e-06
  1.060939e-01    4.739762e-06
  1.063928e-01    4.796415e-06
  1.066917e-01    4.821195e-06
  1.069907e-01    4.839962e-06
  1.072896e-01    4.824292e-06
  1.075885e-01    4.767622e-06
  1.078875e-01    4.730932e-06
  1.081864e-01    4.732143e-06
  1.084853e-01    4.742372e-06
  1.087843e-01    4.744466e-06
  1.090832e-01    4.755470e-06
  1.093821e-01    4.670994e-06
  1.096810e-01    4.659773e-06
  1.099800e-01    4.686124e-06
  1.102789e-01    4.697631e-06
  1.105778e-01    4.693512e-06
  1.108768e-01    4.642854e-06
  1.111757e-01    4.658513e-06
  1.114746e-01    4.648690e-06
  1.117736e-01    4.553767e-06
  1.120725e-01    4.561678e-06
  1.123714e-01    4.639332e-06
  1.126704e-01    4.634443e-06
  1.129693e-01    4.544796e-06
  1.132682e-01    4.514017e-06
  1.135671e-01    4.467993e-06
  1.138661e-01    4.433736e-06
  1.141650e-01    4.381188e-06
  1.144639e-01    4.463262e-06
  1.147629e-01    4.544550e-06
  1.150618e-01    4.560917e-06
  1.153607e-01    4.541891e-06
  1.156597e-01    4.462570e-06
  1.159586e-01    4.467710e-06
  1.162575e-01    4.504339e-06
  1.165564e-01    4.441486e-06
  1.168554e-01    4.379719e-06
  1.171543e-01    4.474952e-06
  1.174532e-01    4.559101e-06
  1.177522e-01    4.453725e-06
  1.180511e-01    4.460614e-06
  1.183500e-01    4.464002e-06
  1.186490e-01    4.452738e-06
  1.189479e-01    4.381985e-06
  1.192468e-01    4.479185e-06
  1.195458e-01    4.532715e-06
  1.198447e-01    4.553114e-06
  1.201436e-01    4.680758e-06
  1.204425e-01    4.556621e-06
  1.207415e-01    4.133644e-06
  1.210404e-01    4.344417e-06
  1.213393e-01    0.000000e+00
  1.216383e-01    0.000000e+00
  1.219372e-01    0.000000e+00
  1.222361e-01    0.000000e+00
  1.225351e-01    0.000000e+00
  1.228340e-01    0.000000e+00
  1.231329e-01    0.000000e+00
  1.234318e-01    0.000000e+00
  1.237308e-01    0.000000e+00
  1.240297e-01    0.000000e+00
  1.243286e-01    0.000000e+00
  1.246276e-01    0.000000e+00
  1.249265e-01    0.000000e+00
  1.252254e-01    0.000000e+00
  1.255244e-01    0.000000e+00
  1.258233e-01    0.000000e+00
  1.261222e-01    0.000000e+00
  1.264212e-01    0.000000e+00
  1.267201e-01    0.000000e+00
  1.270190e-01    0.000000e+00
  1.273179e-01    0.000000e+00
  1.276169e-01    0.000000e+00
  1.279158e-01    0.000000e+00
  1.282147e-01    0.000000e+00
  1.285137e-01    0.000000e+00
  1.288126e-01    0.000000e+00
  1.291115e-01    0.000000e+00
  1.294105e-01    0.000000e+00
  1.297094e-01    0.000000e+00
  1.300083e-01    0.000000e+00
  1.303072e-01    0.000000e+00
  1.306062e-01    0.000000e+00
  1.309051e-01    0.000000e+00
  1.312040e-01    0.000000e+00
  1.315030e-01    0.000000e+00
  1.318019e-01    0.000000e+00
  1.321008e-01    0.000000e+00
  1.323998e-01    0.000000e+00
  1.326987e-01    0.000000e+00
  1.329976e-01    0.000000e+00
  1.332965e-01    0.000000e+00
  1.335955e-01    0.000000e+00
  1.338944e-01    0.000000e+00
  1.341933e-01    0.000000e+00
  1.344923e-01    0.000000e+00
  1.347912e-01    0.000000e+00
  1.350901e-01    0.000000e+00
  1.353891e-01    0.000000e+00
  1.356880e-01    0.000000e+00
  1.359869e-01    0.000000e+00
  1.362859e-01    0.000000e+00
  1.365848e-01    0.000000e+00
  1.368837e-01    0.000000e+00
  1.371826e-01    0.000000e+00
  1.374816e-01    0.000000e+00
  1.377805e-01    0.000000e+00
  1.380794e-01    0.000000e+00
  1.383784e-01    0.000000e+00
  1.386773e-01    0.000000e+00
  1.389762e-01    0.000000e+00
  1.392752e-01    0.000000e+00
  1.395741e-01    0.000000e+00
  1.398730e-01    0.000000e+00
  1.401719e-01    0.000000e+00
  1.404709e-01    0.000000e+00
  1.407698e-01    0.000000e+00
  1.410687e-01    0.000000e+00
  1.413677e-01    0.000000e+00
  1.416666e-01    0.000000e+00
  1.419655e-01    0.000000e+00
  1.422645e-01    0.000000e+00
  1.425634e-01    0.000000e+00
  1.428623e-01    0.000000e+00
  1.431613e-01    0.000000e+00
  1.434602e-01    0.000000e+00
  1.437591e-01    0.000000e+00
  1.440580e-01    0.000000e+00
  1.443570e-01    0.000000e+00
  1.446559e-01    0.000000e+00
  1.449548e-01    0.000000e+00
  1.452538e-01    0.000000e+00
  1.455527e-01    0.000000e+00
  1.458516e-01    0.000000e+00
  1.461506e-01    0.000000e+00
  1.464495e-01    0.000000e+00
  1.467484e-01    0.000000e+00
  1.470473e-01    0.000000e+00
  1.473463e-01    0.000000e+00
  1.476452e-01    0.000000e+00
  1.479441e-01    0.000000e+00
  1.482431e-01    0.000000e+00
  1.485420e-01    0.000000e+00
  1.488409e-01    0.000000e+00
  1.491399e-01    0.000000e+00
  1.494388e-01    0.000000e+00
  1.497377e-01    0.000000e+00
  1.500367e-01    0.000000e+00
  1.503356e-01    0.000000e+00
  1.506345e-01    0.000000e+00
  1.509334e-01    0.000000e+00
  1.512324e-01    0.000000e+00
  1.515313e-01    0.000000e+00
  1.518302e-01    0.000000e+00
  1.521292e-01    0.000000e+00
  1.524281e-01    0.000000e+00
  1.527270e-01    0.000000e+00
  1.530260e-01    0.000000e+00
  1.533249e-01    0.000000e+00
  1.536238e-01    0.000000e+00
