# == pyFAI calibration ==
# Distance Sample to Detector: 2.266 m
# PONI: 5.659e-02, 4.293e-02 m
# Rotations: 0.000000 0.000000 0.000000 rad
# 
# == Fit2d calibration ==
# Distance Sample-beamCenter: 2266.000 mm
# Center: x=249.594, y=329.012 pix
# Tilt: 0.000 deg  TiltPlanRot: 0.000 deg
# 
# Detector Pilatus 300k	 PixelSize= 1.720e-04, 1.720e-04 m
#    Detector has a mask: True 
#    Detector has a dark current: False 
#    detector has a flat field: False 
# 
# Wavelength: 1.27818e-10 m
# Mask applied: user provided
# Dark current applied: False
# Flat field applied: False
# Polarization factor: None
# Normalization factor: 78506.25
# --> MT-AL_DowExpt1_220227_797693af-0bb0-4d68-b2c8-2a5ef8ea2ed0_1_r1d.csv
#        q_A^-1             I 
  4.457554e-03    3.580622e-02
  4.756484e-03    2.912353e-02
  5.055415e-03    2.174722e-02
  5.354345e-03    1.584332e-02
  5.653276e-03    1.267462e-02
  5.952206e-03    2.089940e-02
  6.251136e-03    1.880974e-02
  6.550067e-03    1.601052e-02
  6.848997e-03    1.353813e-02
  7.147927e-03    1.141324e-02
  7.446858e-03    9.687585e-03
  7.745788e-03    8.365255e-03
  8.044719e-03    7.209594e-03
  8.343649e-03    6.237182e-03
  8.642579e-03    5.422601e-03
  8.941510e-03    4.783730e-03
  9.240440e-03    4.246441e-03
  9.539371e-03    3.773650e-03
  9.838301e-03    3.354609e-03
  1.013723e-02    3.005174e-03
  1.043616e-02    2.684251e-03
  1.073509e-02    2.421106e-03
  1.103402e-02    2.202488e-03
  1.133295e-02    1.984050e-03
  1.163188e-02    1.798841e-03
  1.193081e-02    1.651709e-03
  1.222974e-02    1.515733e-03
  1.252867e-02    1.377888e-03
  1.282760e-02    1.270470e-03
  1.312654e-02    1.182408e-03
  1.342547e-02    1.085208e-03
  1.372440e-02    9.979636e-04
  1.402333e-02    9.356814e-04
  1.432226e-02    8.678911e-04
  1.462119e-02    8.082168e-04
  1.492012e-02    7.585552e-04
  1.521905e-02    7.055124e-04
  1.551798e-02    6.583599e-04
  1.581691e-02    6.135211e-04
  1.611584e-02    5.852035e-04
  1.641477e-02    5.508398e-04
  1.671370e-02    5.175652e-04
  1.701263e-02    4.912799e-04
  1.731156e-02    4.659799e-04
  1.761049e-02    4.363894e-04
  1.790942e-02    4.112146e-04
  1.820835e-02    3.939179e-04
  1.850728e-02    3.761363e-04
  1.880621e-02    3.564425e-04
  1.910514e-02    3.437524e-04
  1.940407e-02    3.338997e-04
  1.970300e-02    3.157178e-04
  2.000193e-02    2.998018e-04
  2.030086e-02    2.924036e-04
  2.059979e-02    2.811326e-04
  2.089873e-02    2.677877e-04
  2.119766e-02    2.547629e-04
  2.149659e-02    2.497686e-04
  2.179552e-02    2.454206e-04
  2.209445e-02    2.360372e-04
  2.239338e-02    2.294059e-04
  2.269231e-02    2.229490e-04
  2.299124e-02    2.135134e-04
  2.329017e-02    2.098776e-04
  2.358910e-02    2.050209e-04
  2.388803e-02    1.996958e-04
  2.418696e-02    1.937027e-04
  2.448589e-02    1.874874e-04
  2.478482e-02    1.832066e-04
  2.508375e-02    1.771713e-04
  2.538268e-02    1.744462e-04
  2.568161e-02    1.730298e-04
  2.598054e-02    1.696447e-04
  2.627947e-02    1.675770e-04
  2.657840e-02    1.645562e-04
  2.687733e-02    1.599417e-04
  2.717626e-02    1.563192e-04
  2.747519e-02    1.573361e-04
  2.777412e-02    1.539859e-04
  2.807305e-02    1.511853e-04
  2.837198e-02    1.504449e-04
  2.867092e-02    1.440454e-04
  2.896985e-02    1.402695e-04
  2.926878e-02    1.416320e-04
  2.956771e-02    1.390640e-04
  2.986664e-02    1.378056e-04
  3.016557e-02    1.355674e-04
  3.046450e-02    1.333151e-04
  3.076343e-02    1.329304e-04
  3.106236e-02    1.325315e-04
  3.136129e-02    1.332106e-04
  3.166022e-02    1.321087e-04
  3.195915e-02    1.286877e-04
  3.225808e-02    1.272976e-04
  3.255701e-02    1.244811e-04
  3.285594e-02    1.234553e-04
  3.315487e-02    1.233229e-04
  3.345380e-02    1.238322e-04
  3.375273e-02    1.211817e-04
  3.405166e-02    1.195255e-04
  3.435059e-02    1.195097e-04
  3.464952e-02    1.167796e-04
  3.494845e-02    1.138403e-04
  3.524738e-02    1.142324e-04
  3.554631e-02    1.131482e-04
  3.584524e-02    1.124177e-04
  3.614417e-02    1.121379e-04
  3.644310e-02    1.137449e-04
  3.674204e-02    1.136309e-04
  3.704097e-02    1.125776e-04
  3.733990e-02    1.121962e-04
  3.763883e-02    1.103892e-04
  3.793776e-02    1.087199e-04
  3.823669e-02    1.072574e-04
  3.853562e-02    1.080424e-04
  3.883455e-02    1.087824e-04
  3.913348e-02    1.083440e-04
  3.943241e-02    1.054488e-04
  3.973134e-02    1.037000e-04
  4.003027e-02    1.048829e-04
  4.032920e-02    1.044933e-04
  4.062813e-02    1.027353e-04
  4.092706e-02    1.035624e-04
  4.122599e-02    1.037411e-04
  4.152492e-02    1.050228e-04
  4.182385e-02    1.024591e-04
  4.212278e-02    1.009667e-04
  4.242171e-02    1.022745e-04
  4.272064e-02    1.026660e-04
  4.301957e-02    9.939353e-05
  4.331850e-02    1.007503e-04
  4.361743e-02    1.032751e-04
  4.391636e-02    1.014367e-04
  4.421529e-02    9.893400e-05
  4.451423e-02    9.977145e-05
  4.481316e-02    9.930466e-05
  4.511209e-02    9.994650e-05
  4.541102e-02    9.903242e-05
  4.570995e-02    9.924741e-05
  4.600888e-02    9.965616e-05
  4.630781e-02    9.879691e-05
  4.660674e-02    9.926915e-05
  4.690567e-02    9.888513e-05
  4.720460e-02    9.937191e-05
  4.750353e-02    9.989358e-05
  4.780246e-02    9.908999e-05
  4.810139e-02    9.898203e-05
  4.840032e-02    9.954769e-05
  4.869925e-02    9.885473e-05
  4.899818e-02    9.913136e-05
  4.929711e-02    9.784727e-05
  4.959604e-02    9.683273e-05
  4.989497e-02    9.833078e-05
  5.019390e-02    9.885899e-05
  5.049283e-02    9.798058e-05
  5.079176e-02    9.697732e-05
  5.109069e-02    9.881197e-05
  5.138962e-02    1.009646e-04
  5.168855e-02    1.015779e-04
  5.198748e-02    1.002366e-04
  5.228642e-02    1.007357e-04
  5.258535e-02    9.875719e-05
  5.288428e-02    9.857560e-05
  5.318321e-02    1.005819e-04
  5.348214e-02    1.009523e-04
  5.378107e-02    9.991149e-05
  5.408000e-02    1.000010e-04
  5.437893e-02    9.789349e-05
  5.467786e-02    9.852162e-05
  5.497679e-02    1.000052e-04
  5.527572e-02    1.001111e-04
  5.557465e-02    9.981702e-05
  5.587358e-02    1.001974e-04
  5.617251e-02    9.984997e-05
  5.647144e-02    9.994076e-05
  5.677037e-02    1.009455e-04
  5.706930e-02    1.022585e-04
  5.736823e-02    1.009734e-04
  5.766716e-02    9.955841e-05
  5.796609e-02    1.010392e-04
  5.826502e-02    1.017210e-04
  5.856395e-02    1.018438e-04
  5.886288e-02    1.020903e-04
  5.916181e-02    1.011054e-04
  5.946074e-02    1.025420e-04
  5.975967e-02    1.030709e-04
  6.005861e-02    1.016741e-04
  6.035754e-02    1.031214e-04
  6.065647e-02    1.028315e-04
  6.095540e-02    1.028887e-04
  6.125433e-02    1.045607e-04
  6.155326e-02    1.057950e-04
  6.185219e-02    1.048426e-04
  6.215112e-02    1.029385e-04
  6.245005e-02    1.025335e-04
  6.274898e-02    1.025935e-04
  6.304791e-02    1.040442e-04
  6.334684e-02    1.044235e-04
  6.364577e-02    1.038667e-04
  6.394470e-02    1.034460e-04
  6.424363e-02    1.038325e-04
  6.454256e-02    1.031090e-04
  6.484149e-02    1.035537e-04
  6.514042e-02    1.045560e-04
  6.543935e-02    1.044750e-04
  6.573828e-02    1.051154e-04
  6.603721e-02    1.044302e-04
  6.633614e-02    1.033446e-04
  6.663507e-02    1.042233e-04
  6.693400e-02    1.064116e-04
  6.723293e-02    1.058702e-04
  6.753186e-02    1.057339e-04
  6.783080e-02    1.065282e-04
  6.812973e-02    1.068457e-04
  6.842866e-02    1.073269e-04
  6.872759e-02    1.061773e-04
  6.902652e-02    1.077729e-04
  6.932545e-02    1.071087e-04
  6.962438e-02    1.061049e-04
  6.992331e-02    1.075773e-04
  7.022224e-02    1.063383e-04
  7.052117e-02    1.054145e-04
  7.082010e-02    1.061480e-04
  7.111903e-02    1.065234e-04
  7.141796e-02    1.067936e-04
  7.171689e-02    1.066799e-04
  7.201582e-02    1.074165e-04
  7.231475e-02    1.082085e-04
  7.261368e-02    1.081838e-04
  7.291261e-02    1.082150e-04
  7.321154e-02    1.083824e-04
  7.351047e-02    1.070466e-04
  7.380940e-02    1.070818e-04
  7.410833e-02    1.068126e-04
  7.440726e-02    1.067076e-04
  7.470619e-02    1.069013e-04
  7.500512e-02    1.062524e-04
  7.530405e-02    1.074117e-04
  7.560299e-02    1.074538e-04
  7.590192e-02    1.072524e-04
  7.620085e-02    1.068513e-04
  7.649978e-02    1.065503e-04
  7.679871e-02    1.062836e-04
  7.709764e-02    1.058569e-04
  7.739657e-02    1.063136e-04
  7.769550e-02    1.076880e-04
  7.799443e-02    1.078250e-04
  7.829336e-02    1.076922e-04
  7.859229e-02    1.060649e-04
  7.889122e-02    1.060406e-04
  7.919015e-02    1.065381e-04
  7.948908e-02    1.073308e-04
  7.978801e-02    1.089718e-04
  8.008694e-02    1.061037e-04
  8.038587e-02    1.046020e-04
  8.068480e-02    1.052034e-04
  8.098373e-02    1.050775e-04
  8.128266e-02    1.050595e-04
  8.158159e-02    1.050800e-04
  8.188052e-02    1.051153e-04
  8.217945e-02    1.057260e-04
  8.247838e-02    1.058859e-04
  8.277731e-02    1.054541e-04
  8.307624e-02    1.051783e-04
  8.337518e-02    1.061297e-04
  8.367411e-02    1.050328e-04
  8.397304e-02    1.060787e-04
  8.427197e-02    1.071716e-04
  8.457090e-02    1.058690e-04
  8.486983e-02    1.055074e-04
  8.516876e-02    1.056950e-04
  8.546769e-02    1.046549e-04
  8.576662e-02    1.044324e-04
  8.606555e-02    1.038108e-04
  8.636448e-02    1.036909e-04
  8.666341e-02    1.042449e-04
  8.696234e-02    1.032422e-04
  8.726127e-02    1.041104e-04
  8.756020e-02    1.044578e-04
  8.785913e-02    1.031902e-04
  8.815806e-02    1.024637e-04
  8.845699e-02    1.014739e-04
  8.875592e-02    1.006222e-04
  8.905485e-02    1.027936e-04
  8.935378e-02    1.034834e-04
  8.965271e-02    1.022550e-04
  8.995164e-02    1.012428e-04
  9.025057e-02    1.008059e-04
  9.054950e-02    9.897592e-05
  9.084843e-02    9.846647e-05
  9.114737e-02    9.995208e-05
  9.144630e-02    1.008879e-04
  9.174523e-02    1.011551e-04
  9.204416e-02    9.961692e-05
  9.234309e-02    9.789826e-05
  9.264202e-02    9.838038e-05
  9.294095e-02    9.847975e-05
  9.323988e-02    9.896167e-05
  9.353881e-02    9.873269e-05
  9.383774e-02    9.961655e-05
  9.413667e-02    1.006519e-04
  9.443560e-02    9.977743e-05
  9.473453e-02    9.852274e-05
  9.503346e-02    9.920147e-05
  9.533239e-02    9.849262e-05
  9.563132e-02    9.857782e-05
  9.593025e-02    9.912034e-05
  9.622918e-02    9.807970e-05
  9.652811e-02    9.760725e-05
  9.682704e-02    9.693343e-05
  9.712597e-02    9.618073e-05
  9.742490e-02    9.700152e-05
  9.772383e-02    9.751699e-05
  9.802276e-02    9.763828e-05
  9.832169e-02    9.710064e-05
  9.862062e-02    9.641000e-05
  9.891956e-02    9.565911e-05
  9.921849e-02    9.469798e-05
  9.951742e-02    9.517439e-05
  9.981635e-02    9.441231e-05
  1.001153e-01    9.484554e-05
  1.004142e-01    9.519334e-05
  1.007131e-01    9.460464e-05
  1.010121e-01    9.501514e-05
  1.013110e-01    9.628704e-05
  1.016099e-01    9.529442e-05
  1.019089e-01    9.392264e-05
  1.022078e-01    9.285560e-05
  1.025067e-01    9.312083e-05
  1.028057e-01    9.347386e-05
  1.031046e-01    9.341103e-05
  1.034035e-01    9.362007e-05
  1.037024e-01    9.399399e-05
  1.040014e-01    9.410487e-05
  1.043003e-01    9.436156e-05
  1.045992e-01    9.178305e-05
  1.048982e-01    9.102024e-05
  1.051971e-01    9.162008e-05
  1.054960e-01    9.106160e-05
  1.057950e-01    9.088869e-05
  1.060939e-01    9.092283e-05
  1.063928e-01    9.113583e-05
  1.066917e-01    9.164929e-05
  1.069907e-01    9.197993e-05
  1.072896e-01    9.113884e-05
  1.075885e-01    9.089317e-05
  1.078875e-01    9.132582e-05
  1.081864e-01    9.239489e-05
  1.084853e-01    9.093983e-05
  1.087843e-01    8.915381e-05
  1.090832e-01    8.991790e-05
  1.093821e-01    9.025959e-05
  1.096810e-01    8.931271e-05
  1.099800e-01    9.079435e-05
  1.102789e-01    9.140399e-05
  1.105778e-01    8.939661e-05
  1.108768e-01    8.843900e-05
  1.111757e-01    8.950417e-05
  1.114746e-01    8.925785e-05
  1.117736e-01    8.846261e-05
  1.120725e-01    8.789144e-05
  1.123714e-01    8.769987e-05
  1.126704e-01    8.725917e-05
  1.129693e-01    8.729983e-05
  1.132682e-01    8.608359e-05
  1.135671e-01    8.645355e-05
  1.138661e-01    8.689046e-05
  1.141650e-01    8.688612e-05
  1.144639e-01    8.742804e-05
  1.147629e-01    8.792696e-05
  1.150618e-01    8.802067e-05
  1.153607e-01    8.772235e-05
  1.156597e-01    8.729103e-05
  1.159586e-01    8.624376e-05
  1.162575e-01    8.458477e-05
  1.165564e-01    8.238726e-05
  1.168554e-01    8.332852e-05
  1.171543e-01    8.631648e-05
  1.174532e-01    8.504489e-05
  1.177522e-01    8.310352e-05
  1.180511e-01    8.337018e-05
  1.183500e-01    8.228832e-05
  1.186490e-01    8.609745e-05
  1.189479e-01    8.655192e-05
  1.192468e-01    8.606879e-05
  1.195458e-01    8.497332e-05
  1.198447e-01    8.270364e-05
  1.201436e-01    7.984586e-05
  1.204425e-01    8.065360e-05
  1.207415e-01    8.223637e-05
  1.210404e-01    5.099751e-05
  1.213393e-01    0.000000e+00
  1.216383e-01    0.000000e+00
  1.219372e-01    0.000000e+00
  1.222361e-01    0.000000e+00
  1.225351e-01    0.000000e+00
  1.228340e-01    0.000000e+00
  1.231329e-01    0.000000e+00
  1.234318e-01    0.000000e+00
  1.237308e-01    0.000000e+00
  1.240297e-01    0.000000e+00
  1.243286e-01    0.000000e+00
  1.246276e-01    0.000000e+00
  1.249265e-01    0.000000e+00
  1.252254e-01    0.000000e+00
  1.255244e-01    0.000000e+00
  1.258233e-01    0.000000e+00
  1.261222e-01    0.000000e+00
  1.264212e-01    0.000000e+00
  1.267201e-01    0.000000e+00
  1.270190e-01    0.000000e+00
  1.273179e-01    0.000000e+00
  1.276169e-01    0.000000e+00
  1.279158e-01    0.000000e+00
  1.282147e-01    0.000000e+00
  1.285137e-01    0.000000e+00
  1.288126e-01    0.000000e+00
  1.291115e-01    0.000000e+00
  1.294105e-01    0.000000e+00
  1.297094e-01    0.000000e+00
  1.300083e-01    0.000000e+00
  1.303072e-01    0.000000e+00
  1.306062e-01    0.000000e+00
  1.309051e-01    0.000000e+00
  1.312040e-01    0.000000e+00
  1.315030e-01    0.000000e+00
  1.318019e-01    0.000000e+00
  1.321008e-01    0.000000e+00
  1.323998e-01    0.000000e+00
  1.326987e-01    0.000000e+00
  1.329976e-01    0.000000e+00
  1.332965e-01    0.000000e+00
  1.335955e-01    0.000000e+00
  1.338944e-01    0.000000e+00
  1.341933e-01    0.000000e+00
  1.344923e-01    0.000000e+00
  1.347912e-01    0.000000e+00
  1.350901e-01    0.000000e+00
  1.353891e-01    0.000000e+00
  1.356880e-01    0.000000e+00
  1.359869e-01    0.000000e+00
  1.362859e-01    0.000000e+00
  1.365848e-01    0.000000e+00
  1.368837e-01    0.000000e+00
  1.371826e-01    0.000000e+00
  1.374816e-01    0.000000e+00
  1.377805e-01    0.000000e+00
  1.380794e-01    0.000000e+00
  1.383784e-01    0.000000e+00
  1.386773e-01    0.000000e+00
  1.389762e-01    0.000000e+00
  1.392752e-01    0.000000e+00
  1.395741e-01    0.000000e+00
  1.398730e-01    0.000000e+00
  1.401719e-01    0.000000e+00
  1.404709e-01    0.000000e+00
  1.407698e-01    0.000000e+00
  1.410687e-01    0.000000e+00
  1.413677e-01    0.000000e+00
  1.416666e-01    0.000000e+00
  1.419655e-01    0.000000e+00
  1.422645e-01    0.000000e+00
  1.425634e-01    0.000000e+00
  1.428623e-01    0.000000e+00
  1.431613e-01    0.000000e+00
  1.434602e-01    0.000000e+00
  1.437591e-01    0.000000e+00
  1.440580e-01    0.000000e+00
  1.443570e-01    0.000000e+00
  1.446559e-01    0.000000e+00
  1.449548e-01    0.000000e+00
  1.452538e-01    0.000000e+00
  1.455527e-01    0.000000e+00
  1.458516e-01    0.000000e+00
  1.461506e-01    0.000000e+00
  1.464495e-01    0.000000e+00
  1.467484e-01    0.000000e+00
  1.470473e-01    0.000000e+00
  1.473463e-01    0.000000e+00
  1.476452e-01    0.000000e+00
  1.479441e-01    0.000000e+00
  1.482431e-01    0.000000e+00
  1.485420e-01    0.000000e+00
  1.488409e-01    0.000000e+00
  1.491399e-01    0.000000e+00
  1.494388e-01    0.000000e+00
  1.497377e-01    0.000000e+00
  1.500367e-01    0.000000e+00
  1.503356e-01    0.000000e+00
  1.506345e-01    0.000000e+00
  1.509334e-01    0.000000e+00
  1.512324e-01    0.000000e+00
  1.515313e-01    0.000000e+00
  1.518302e-01    0.000000e+00
  1.521292e-01    0.000000e+00
  1.524281e-01    0.000000e+00
  1.527270e-01    0.000000e+00
  1.530260e-01    0.000000e+00
  1.533249e-01    0.000000e+00
  1.536238e-01    0.000000e+00
