# == pyFAI calibration ==
# Distance Sample to Detector: 2.266 m
# PONI: 5.659e-02, 4.293e-02 m
# Rotations: 0.000000 0.000000 0.000000 rad
# 
# == Fit2d calibration ==
# Distance Sample-beamCenter: 2266.000 mm
# Center: x=249.594, y=329.012 pix
# Tilt: 0.000 deg  TiltPlanRot: 0.000 deg
# 
# Detector Pilatus 300k	 PixelSize= 1.720e-04, 1.720e-04 m
#    Detector has a mask: True 
#    Detector has a dark current: False 
#    detector has a flat field: False 
# 
# Wavelength: 1.27818e-10 m
# Mask applied: user provided
# Dark current applied: False
# Flat field applied: False
# Polarization factor: None
# Normalization factor: 4310619.2
# --> MT-AL_F127_220226_7eb7d671-f292-4ea9-a3aa-1859b129a09d_1_r1d.csv
#        q_A^-1             I 
  4.457554e-03    2.055407e-03
  4.756484e-03    1.612043e-03
  5.055415e-03    1.132827e-03
  5.354345e-03    7.744197e-04
  5.653276e-03    5.900937e-04
  5.952206e-03    9.434323e-04
  6.251136e-03    8.639094e-04
  6.550067e-03    7.509256e-04
  6.848997e-03    6.377830e-04
  7.147927e-03    5.397029e-04
  7.446858e-03    4.615487e-04
  7.745788e-03    3.953634e-04
  8.044719e-03    3.403383e-04
  8.343649e-03    2.972431e-04
  8.642579e-03    2.600805e-04
  8.941510e-03    2.297587e-04
  9.240440e-03    2.031489e-04
  9.539371e-03    1.797551e-04
  9.838301e-03    1.593897e-04
  1.013723e-02    1.428264e-04
  1.043616e-02    1.282839e-04
  1.073509e-02    1.149404e-04
  1.103402e-02    1.039522e-04
  1.133295e-02    9.445706e-05
  1.163188e-02    8.657412e-05
  1.193081e-02    7.912142e-05
  1.222974e-02    7.210560e-05
  1.252867e-02    6.588135e-05
  1.282760e-02    6.086708e-05
  1.312654e-02    5.647392e-05
  1.342547e-02    5.184794e-05
  1.372440e-02    4.818945e-05
  1.402333e-02    4.471220e-05
  1.432226e-02    4.131572e-05
  1.462119e-02    3.844659e-05
  1.492012e-02    3.595031e-05
  1.521905e-02    3.369362e-05
  1.551798e-02    3.185991e-05
  1.581691e-02    2.986901e-05
  1.611584e-02    2.791814e-05
  1.641477e-02    2.619986e-05
  1.671370e-02    2.484006e-05
  1.701263e-02    2.352309e-05
  1.731156e-02    2.220020e-05
  1.761049e-02    2.110030e-05
  1.790942e-02    1.991859e-05
  1.820835e-02    1.901904e-05
  1.850728e-02    1.822620e-05
  1.880621e-02    1.728283e-05
  1.910514e-02    1.664206e-05
  1.940407e-02    1.591397e-05
  1.970300e-02    1.508756e-05
  2.000193e-02    1.454509e-05
  2.030086e-02    1.407329e-05
  2.059979e-02    1.355516e-05
  2.089873e-02    1.308858e-05
  2.119766e-02    1.283081e-05
  2.149659e-02    1.240646e-05
  2.179552e-02    1.199666e-05
  2.209445e-02    1.175935e-05
  2.239338e-02    1.135682e-05
  2.269231e-02    1.102504e-05
  2.299124e-02    1.076453e-05
  2.329017e-02    1.045262e-05
  2.358910e-02    1.013323e-05
  2.388803e-02    9.949684e-06
  2.418696e-02    9.725409e-06
  2.448589e-02    9.377116e-06
  2.478482e-02    9.254078e-06
  2.508375e-02    9.153087e-06
  2.538268e-02    8.909130e-06
  2.568161e-02    8.743388e-06
  2.598054e-02    8.689038e-06
  2.627947e-02    8.560981e-06
  2.657840e-02    8.409953e-06
  2.687733e-02    8.155779e-06
  2.717626e-02    8.018370e-06
  2.747519e-02    8.019786e-06
  2.777412e-02    7.893436e-06
  2.807305e-02    7.814405e-06
  2.837198e-02    7.675486e-06
  2.867092e-02    7.469243e-06
  2.896985e-02    7.426940e-06
  2.926878e-02    7.431184e-06
  2.956771e-02    7.317840e-06
  2.986664e-02    7.181387e-06
  3.016557e-02    7.141443e-06
  3.046450e-02    7.087075e-06
  3.076343e-02    7.044924e-06
  3.106236e-02    6.919074e-06
  3.136129e-02    6.861069e-06
  3.166022e-02    6.828583e-06
  3.195915e-02    6.789375e-06
  3.225808e-02    6.724068e-06
  3.255701e-02    6.735882e-06
  3.285594e-02    6.628404e-06
  3.315487e-02    6.529136e-06
  3.345380e-02    6.431514e-06
  3.375273e-02    6.312511e-06
  3.405166e-02    6.223654e-06
  3.435059e-02    6.220996e-06
  3.464952e-02    6.224318e-06
  3.494845e-02    6.104317e-06
  3.524738e-02    6.063136e-06
  3.554631e-02    6.009691e-06
  3.584524e-02    5.979750e-06
  3.614417e-02    5.888814e-06
  3.644310e-02    5.845956e-06
  3.674204e-02    5.816740e-06
  3.704097e-02    5.764669e-06
  3.733990e-02    5.633297e-06
  3.763883e-02    5.584278e-06
  3.793776e-02    5.555813e-06
  3.823669e-02    5.530445e-06
  3.853562e-02    5.507563e-06
  3.883455e-02    5.420171e-06
  3.913348e-02    5.357848e-06
  3.943241e-02    5.335778e-06
  3.973134e-02    5.372147e-06
  4.003027e-02    5.358205e-06
  4.032920e-02    5.280241e-06
  4.062813e-02    5.247232e-06
  4.092706e-02    5.255349e-06
  4.122599e-02    5.168532e-06
  4.152492e-02    5.078945e-06
  4.182385e-02    5.109798e-06
  4.212278e-02    5.078500e-06
  4.242171e-02    5.042087e-06
  4.272064e-02    5.070026e-06
  4.301957e-02    5.023876e-06
  4.331850e-02    4.966237e-06
  4.361743e-02    4.952028e-06
  4.391636e-02    4.980421e-06
  4.421529e-02    4.956567e-06
  4.451423e-02    4.982729e-06
  4.481316e-02    5.004661e-06
  4.511209e-02    4.968365e-06
  4.541102e-02    4.928631e-06
  4.570995e-02    4.942699e-06
  4.600888e-02    4.940980e-06
  4.630781e-02    4.957717e-06
  4.660674e-02    4.926086e-06
  4.690567e-02    4.963585e-06
  4.720460e-02    5.013741e-06
  4.750353e-02    4.986914e-06
  4.780246e-02    4.980700e-06
  4.810139e-02    4.963381e-06
  4.840032e-02    4.896030e-06
  4.869925e-02    4.909633e-06
  4.899818e-02    4.893849e-06
  4.929711e-02    4.855155e-06
  4.959604e-02    4.861351e-06
  4.989497e-02    4.866323e-06
  5.019390e-02    4.915193e-06
  5.049283e-02    4.904681e-06
  5.079176e-02    4.859216e-06
  5.109069e-02    4.901740e-06
  5.138962e-02    5.012468e-06
  5.168855e-02    5.136705e-06
  5.198748e-02    5.233488e-06
  5.228642e-02    5.142230e-06
  5.258535e-02    4.882899e-06
  5.288428e-02    4.795297e-06
  5.318321e-02    4.802216e-06
  5.348214e-02    4.802760e-06
  5.378107e-02    4.854769e-06
  5.408000e-02    4.838019e-06
  5.437893e-02    4.823601e-06
  5.467786e-02    4.826788e-06
  5.497679e-02    4.803477e-06
  5.527572e-02    4.859842e-06
  5.557465e-02    4.927528e-06
  5.587358e-02    4.890793e-06
  5.617251e-02    4.862813e-06
  5.647144e-02    4.925029e-06
  5.677037e-02    4.878934e-06
  5.706930e-02    4.825747e-06
  5.736823e-02    4.813394e-06
  5.766716e-02    4.846558e-06
  5.796609e-02    4.853707e-06
  5.826502e-02    4.823153e-06
  5.856395e-02    4.824305e-06
  5.886288e-02    4.819307e-06
  5.916181e-02    4.853180e-06
  5.946074e-02    4.920293e-06
  5.975967e-02    4.926976e-06
  6.005861e-02    4.949962e-06
  6.035754e-02    4.934227e-06
  6.065647e-02    4.962250e-06
  6.095540e-02    5.044028e-06
  6.125433e-02    5.124492e-06
  6.155326e-02    5.116828e-06
  6.185219e-02    4.969329e-06
  6.215112e-02    4.947248e-06
  6.245005e-02    4.979621e-06
  6.274898e-02    4.981083e-06
  6.304791e-02    4.934537e-06
  6.334684e-02    4.912227e-06
  6.364577e-02    4.937465e-06
  6.394470e-02    4.913195e-06
  6.424363e-02    4.944911e-06
  6.454256e-02    4.967773e-06
  6.484149e-02    4.952681e-06
  6.514042e-02    4.977634e-06
  6.543935e-02    5.023670e-06
  6.573828e-02    5.011874e-06
  6.603721e-02    4.960503e-06
  6.633614e-02    4.947367e-06
  6.663507e-02    5.004728e-06
  6.693400e-02    5.031642e-06
  6.723293e-02    5.017922e-06
  6.753186e-02    5.063961e-06
  6.783080e-02    5.065496e-06
  6.812973e-02    5.059792e-06
  6.842866e-02    5.080713e-06
  6.872759e-02    5.086978e-06
  6.902652e-02    5.122674e-06
  6.932545e-02    5.113390e-06
  6.962438e-02    5.115347e-06
  6.992331e-02    5.088456e-06
  7.022224e-02    5.086966e-06
  7.052117e-02    5.105685e-06
  7.082010e-02    5.105615e-06
  7.111903e-02    5.104235e-06
  7.141796e-02    5.099874e-06
  7.171689e-02    5.135666e-06
  7.201582e-02    5.125589e-06
  7.231475e-02    5.097575e-06
  7.261368e-02    5.150206e-06
  7.291261e-02    5.181039e-06
  7.321154e-02    5.152858e-06
  7.351047e-02    5.101700e-06
  7.380940e-02    5.115412e-06
  7.410833e-02    5.103260e-06
  7.440726e-02    5.132578e-06
  7.470619e-02    5.149298e-06
  7.500512e-02    5.175728e-06
  7.530405e-02    5.188992e-06
  7.560299e-02    5.152689e-06
  7.590192e-02    5.126142e-06
  7.620085e-02    5.151654e-06
  7.649978e-02    5.161491e-06
  7.679871e-02    5.152046e-06
  7.709764e-02    5.138734e-06
  7.739657e-02    5.159663e-06
  7.769550e-02    5.166723e-06
  7.799443e-02    5.138575e-06
  7.829336e-02    5.081085e-06
  7.859229e-02    5.055196e-06
  7.889122e-02    5.085826e-06
  7.919015e-02    5.139508e-06
  7.948908e-02    5.145741e-06
  7.978801e-02    5.131365e-06
  8.008694e-02    5.094600e-06
  8.038587e-02    5.060874e-06
  8.068480e-02    5.078182e-06
  8.098373e-02    5.097999e-06
  8.128266e-02    5.139199e-06
  8.158159e-02    5.129950e-06
  8.188052e-02    5.136554e-06
  8.217945e-02    5.099093e-06
  8.247838e-02    5.067773e-06
  8.277731e-02    5.029426e-06
  8.307624e-02    5.040924e-06
  8.337518e-02    5.081323e-06
  8.367411e-02    5.040253e-06
  8.397304e-02    5.042633e-06
  8.427197e-02    5.039464e-06
  8.457090e-02    4.992213e-06
  8.486983e-02    4.974860e-06
  8.516876e-02    4.964414e-06
  8.546769e-02    5.000396e-06
  8.576662e-02    4.988015e-06
  8.606555e-02    4.941321e-06
  8.636448e-02    4.940629e-06
  8.666341e-02    4.913260e-06
  8.696234e-02    4.945141e-06
  8.726127e-02    4.869554e-06
  8.756020e-02    4.875116e-06
  8.785913e-02    4.901418e-06
  8.815806e-02    4.919756e-06
  8.845699e-02    4.923053e-06
  8.875592e-02    4.848173e-06
  8.905485e-02    4.816584e-06
  8.935378e-02    4.806527e-06
  8.965271e-02    4.818907e-06
  8.995164e-02    4.832799e-06
  9.025057e-02    4.825519e-06
  9.054950e-02    4.816594e-06
  9.084843e-02    4.791809e-06
  9.114737e-02    4.817792e-06
  9.144630e-02    4.810156e-06
  9.174523e-02    4.763579e-06
  9.204416e-02    4.739348e-06
  9.234309e-02    4.741996e-06
  9.264202e-02    4.729283e-06
  9.294095e-02    4.727210e-06
  9.323988e-02    4.708604e-06
  9.353881e-02    4.729271e-06
  9.383774e-02    4.749329e-06
  9.413667e-02    4.724725e-06
  9.443560e-02    4.665424e-06
  9.473453e-02    4.682337e-06
  9.503346e-02    4.709001e-06
  9.533239e-02    4.721457e-06
  9.563132e-02    4.723459e-06
  9.593025e-02    4.715062e-06
  9.622918e-02    4.680890e-06
  9.652811e-02    4.708818e-06
  9.682704e-02    4.716640e-06
  9.712597e-02    4.688771e-06
  9.742490e-02    4.690992e-06
  9.772383e-02    4.679660e-06
  9.802276e-02    4.649964e-06
  9.832169e-02    4.611974e-06
  9.862062e-02    4.560316e-06
  9.891956e-02    4.573518e-06
  9.921849e-02    4.599307e-06
  9.951742e-02    4.540301e-06
  9.981635e-02    4.542100e-06
  1.001153e-01    4.511875e-06
  1.004142e-01    4.507804e-06
  1.007131e-01    4.486996e-06
  1.010121e-01    4.482677e-06
  1.013110e-01    4.456541e-06
  1.016099e-01    4.476151e-06
  1.019089e-01    4.484269e-06
  1.022078e-01    4.490792e-06
  1.025067e-01    4.526383e-06
  1.028057e-01    4.483004e-06
  1.031046e-01    4.473272e-06
  1.034035e-01    4.452635e-06
  1.037024e-01    4.404710e-06
  1.040014e-01    4.410891e-06
  1.043003e-01    4.405102e-06
  1.045992e-01    4.369811e-06
  1.048982e-01    4.404902e-06
  1.051971e-01    4.393354e-06
  1.054960e-01    4.362498e-06
  1.057950e-01    4.353995e-06
  1.060939e-01    4.354878e-06
  1.063928e-01    4.318413e-06
  1.066917e-01    4.251183e-06
  1.069907e-01    4.298595e-06
  1.072896e-01    4.330670e-06
  1.075885e-01    4.303840e-06
  1.078875e-01    4.339042e-06
  1.081864e-01    4.346595e-06
  1.084853e-01    4.317278e-06
  1.087843e-01    4.366014e-06
  1.090832e-01    4.347616e-06
  1.093821e-01    4.281865e-06
  1.096810e-01    4.248353e-06
  1.099800e-01    4.227196e-06
  1.102789e-01    4.243136e-06
  1.105778e-01    4.239896e-06
  1.108768e-01    4.220533e-06
  1.111757e-01    4.203891e-06
  1.114746e-01    4.179778e-06
  1.117736e-01    4.153053e-06
  1.120725e-01    4.135739e-06
  1.123714e-01    4.180366e-06
  1.126704e-01    4.186432e-06
  1.129693e-01    4.150339e-06
  1.132682e-01    4.130261e-06
  1.135671e-01    4.153458e-06
  1.138661e-01    4.150129e-06
  1.141650e-01    4.110888e-06
  1.144639e-01    4.094429e-06
  1.147629e-01    4.061736e-06
  1.150618e-01    4.078705e-06
  1.153607e-01    4.055466e-06
  1.156597e-01    4.033711e-06
  1.159586e-01    4.012172e-06
  1.162575e-01    4.015704e-06
  1.165564e-01    4.099180e-06
  1.168554e-01    4.028520e-06
  1.171543e-01    3.967431e-06
  1.174532e-01    4.033795e-06
  1.177522e-01    4.082393e-06
  1.180511e-01    4.098813e-06
  1.183500e-01    4.094250e-06
  1.186490e-01    4.095456e-06
  1.189479e-01    4.067414e-06
  1.192468e-01    4.011130e-06
  1.195458e-01    4.049168e-06
  1.198447e-01    4.028941e-06
  1.201436e-01    4.072215e-06
  1.204425e-01    3.968467e-06
  1.207415e-01    3.752288e-06
  1.210404e-01    4.179517e-06
  1.213393e-01    0.000000e+00
  1.216383e-01    0.000000e+00
  1.219372e-01    0.000000e+00
  1.222361e-01    0.000000e+00
  1.225351e-01    0.000000e+00
  1.228340e-01    0.000000e+00
  1.231329e-01    0.000000e+00
  1.234318e-01    0.000000e+00
  1.237308e-01    0.000000e+00
  1.240297e-01    0.000000e+00
  1.243286e-01    0.000000e+00
  1.246276e-01    0.000000e+00
  1.249265e-01    0.000000e+00
  1.252254e-01    0.000000e+00
  1.255244e-01    0.000000e+00
  1.258233e-01    0.000000e+00
  1.261222e-01    0.000000e+00
  1.264212e-01    0.000000e+00
  1.267201e-01    0.000000e+00
  1.270190e-01    0.000000e+00
  1.273179e-01    0.000000e+00
  1.276169e-01    0.000000e+00
  1.279158e-01    0.000000e+00
  1.282147e-01    0.000000e+00
  1.285137e-01    0.000000e+00
  1.288126e-01    0.000000e+00
  1.291115e-01    0.000000e+00
  1.294105e-01    0.000000e+00
  1.297094e-01    0.000000e+00
  1.300083e-01    0.000000e+00
  1.303072e-01    0.000000e+00
  1.306062e-01    0.000000e+00
  1.309051e-01    0.000000e+00
  1.312040e-01    0.000000e+00
  1.315030e-01    0.000000e+00
  1.318019e-01    0.000000e+00
  1.321008e-01    0.000000e+00
  1.323998e-01    0.000000e+00
  1.326987e-01    0.000000e+00
  1.329976e-01    0.000000e+00
  1.332965e-01    0.000000e+00
  1.335955e-01    0.000000e+00
  1.338944e-01    0.000000e+00
  1.341933e-01    0.000000e+00
  1.344923e-01    0.000000e+00
  1.347912e-01    0.000000e+00
  1.350901e-01    0.000000e+00
  1.353891e-01    0.000000e+00
  1.356880e-01    0.000000e+00
  1.359869e-01    0.000000e+00
  1.362859e-01    0.000000e+00
  1.365848e-01    0.000000e+00
  1.368837e-01    0.000000e+00
  1.371826e-01    0.000000e+00
  1.374816e-01    0.000000e+00
  1.377805e-01    0.000000e+00
  1.380794e-01    0.000000e+00
  1.383784e-01    0.000000e+00
  1.386773e-01    0.000000e+00
  1.389762e-01    0.000000e+00
  1.392752e-01    0.000000e+00
  1.395741e-01    0.000000e+00
  1.398730e-01    0.000000e+00
  1.401719e-01    0.000000e+00
  1.404709e-01    0.000000e+00
  1.407698e-01    0.000000e+00
  1.410687e-01    0.000000e+00
  1.413677e-01    0.000000e+00
  1.416666e-01    0.000000e+00
  1.419655e-01    0.000000e+00
  1.422645e-01    0.000000e+00
  1.425634e-01    0.000000e+00
  1.428623e-01    0.000000e+00
  1.431613e-01    0.000000e+00
  1.434602e-01    0.000000e+00
  1.437591e-01    0.000000e+00
  1.440580e-01    0.000000e+00
  1.443570e-01    0.000000e+00
  1.446559e-01    0.000000e+00
  1.449548e-01    0.000000e+00
  1.452538e-01    0.000000e+00
  1.455527e-01    0.000000e+00
  1.458516e-01    0.000000e+00
  1.461506e-01    0.000000e+00
  1.464495e-01    0.000000e+00
  1.467484e-01    0.000000e+00
  1.470473e-01    0.000000e+00
  1.473463e-01    0.000000e+00
  1.476452e-01    0.000000e+00
  1.479441e-01    0.000000e+00
  1.482431e-01    0.000000e+00
  1.485420e-01    0.000000e+00
  1.488409e-01    0.000000e+00
  1.491399e-01    0.000000e+00
  1.494388e-01    0.000000e+00
  1.497377e-01    0.000000e+00
  1.500367e-01    0.000000e+00
  1.503356e-01    0.000000e+00
  1.506345e-01    0.000000e+00
  1.509334e-01    0.000000e+00
  1.512324e-01    0.000000e+00
  1.515313e-01    0.000000e+00
  1.518302e-01    0.000000e+00
  1.521292e-01    0.000000e+00
  1.524281e-01    0.000000e+00
  1.527270e-01    0.000000e+00
  1.530260e-01    0.000000e+00
  1.533249e-01    0.000000e+00
  1.536238e-01    0.000000e+00
