# == pyFAI calibration ==
# Distance Sample to Detector: 2.266 m
# PONI: 5.659e-02, 4.293e-02 m
# Rotations: 0.000000 0.000000 0.000000 rad
# 
# == Fit2d calibration ==
# Distance Sample-beamCenter: 2266.000 mm
# Center: x=249.594, y=329.012 pix
# Tilt: 0.000 deg  TiltPlanRot: 0.000 deg
# 
# Detector Pilatus 300k	 PixelSize= 1.720e-04, 1.720e-04 m
#    Detector has a mask: True 
#    Detector has a dark current: False 
#    detector has a flat field: False 
# 
# Wavelength: 1.27818e-10 m
# Mask applied: user provided
# Dark current applied: False
# Flat field applied: False
# Polarization factor: None
# Normalization factor: 16268501.600000001
# --> MT-AL_F127_220226_d9d33bfe-ef9d-4f90-adeb-891feebf03cb_2_r1d.csv
#        q_A^-1             I 
  4.457554e-03    1.835507e-03
  4.756484e-03    1.441595e-03
  5.055415e-03    1.033075e-03
  5.354345e-03    7.340356e-04
  5.653276e-03    5.693394e-04
  5.952206e-03    9.422831e-04
  6.251136e-03    8.606296e-04
  6.550067e-03    7.448148e-04
  6.848997e-03    6.319066e-04
  7.147927e-03    5.330138e-04
  7.446858e-03    4.547494e-04
  7.745788e-03    3.896336e-04
  8.044719e-03    3.349617e-04
  8.343649e-03    2.922985e-04
  8.642579e-03    2.559383e-04
  8.941510e-03    2.247372e-04
  9.240440e-03    1.993187e-04
  9.539371e-03    1.766548e-04
  9.838301e-03    1.570942e-04
  1.013723e-02    1.409311e-04
  1.043616e-02    1.268397e-04
  1.073509e-02    1.138165e-04
  1.103402e-02    1.029690e-04
  1.133295e-02    9.363287e-05
  1.163188e-02    8.511214e-05
  1.193081e-02    7.776106e-05
  1.222974e-02    7.122431e-05
  1.252867e-02    6.539998e-05
  1.282760e-02    6.030986e-05
  1.312654e-02    5.560519e-05
  1.342547e-02    5.138055e-05
  1.372440e-02    4.767521e-05
  1.402333e-02    4.426025e-05
  1.432226e-02    4.126907e-05
  1.462119e-02    3.835127e-05
  1.492012e-02    3.578907e-05
  1.521905e-02    3.358260e-05
  1.551798e-02    3.150811e-05
  1.581691e-02    2.958072e-05
  1.611584e-02    2.790496e-05
  1.641477e-02    2.638715e-05
  1.671370e-02    2.487434e-05
  1.701263e-02    2.346035e-05
  1.731156e-02    2.223459e-05
  1.761049e-02    2.119873e-05
  1.790942e-02    2.013081e-05
  1.820835e-02    1.912334e-05
  1.850728e-02    1.826939e-05
  1.880621e-02    1.746447e-05
  1.910514e-02    1.663835e-05
  1.940407e-02    1.603860e-05
  1.970300e-02    1.543097e-05
  2.000193e-02    1.474822e-05
  2.030086e-02    1.416099e-05
  2.059979e-02    1.370255e-05
  2.089873e-02    1.318399e-05
  2.119766e-02    1.275493e-05
  2.149659e-02    1.235000e-05
  2.179552e-02    1.196390e-05
  2.209445e-02    1.162303e-05
  2.239338e-02    1.129849e-05
  2.269231e-02    1.092218e-05
  2.299124e-02    1.060830e-05
  2.329017e-02    1.039019e-05
  2.358910e-02    1.008850e-05
  2.388803e-02    9.849445e-06
  2.418696e-02    9.608732e-06
  2.448589e-02    9.336378e-06
  2.478482e-02    9.195322e-06
  2.508375e-02    9.072180e-06
  2.538268e-02    8.909745e-06
  2.568161e-02    8.671181e-06
  2.598054e-02    8.527562e-06
  2.627947e-02    8.355679e-06
  2.657840e-02    8.153770e-06
  2.687733e-02    8.007873e-06
  2.717626e-02    7.937832e-06
  2.747519e-02    7.849797e-06
  2.777412e-02    7.724998e-06
  2.807305e-02    7.604279e-06
  2.837198e-02    7.497746e-06
  2.867092e-02    7.422575e-06
  2.896985e-02    7.341470e-06
  2.926878e-02    7.254092e-06
  2.956771e-02    7.134352e-06
  2.986664e-02    7.051156e-06
  3.016557e-02    7.010637e-06
  3.046450e-02    6.909213e-06
  3.076343e-02    6.811876e-06
  3.106236e-02    6.746298e-06
  3.136129e-02    6.684505e-06
  3.166022e-02    6.600721e-06
  3.195915e-02    6.563228e-06
  3.225808e-02    6.532206e-06
  3.255701e-02    6.440877e-06
  3.285594e-02    6.367094e-06
  3.315487e-02    6.316413e-06
  3.345380e-02    6.247961e-06
  3.375273e-02    6.172572e-06
  3.405166e-02    6.124172e-06
  3.435059e-02    6.068532e-06
  3.464952e-02    6.018193e-06
  3.494845e-02    5.967514e-06
  3.524738e-02    5.913849e-06
  3.554631e-02    5.850073e-06
  3.584524e-02    5.823649e-06
  3.614417e-02    5.773159e-06
  3.644310e-02    5.757116e-06
  3.674204e-02    5.713632e-06
  3.704097e-02    5.652771e-06
  3.733990e-02    5.571349e-06
  3.763883e-02    5.538512e-06
  3.793776e-02    5.513500e-06
  3.823669e-02    5.459333e-06
  3.853562e-02    5.427523e-06
  3.883455e-02    5.404685e-06
  3.913348e-02    5.359961e-06
  3.943241e-02    5.320730e-06
  3.973134e-02    5.281857e-06
  4.003027e-02    5.245455e-06
  4.032920e-02    5.255761e-06
  4.062813e-02    5.240916e-06
  4.092706e-02    5.202934e-06
  4.122599e-02    5.178726e-06
  4.152492e-02    5.185987e-06
  4.182385e-02    5.157962e-06
  4.212278e-02    5.145309e-06
  4.242171e-02    5.130230e-06
  4.272064e-02    5.120276e-06
  4.301957e-02    5.085793e-06
  4.331850e-02    5.066884e-06
  4.361743e-02    5.046558e-06
  4.391636e-02    5.014738e-06
  4.421529e-02    5.041129e-06
  4.451423e-02    5.045771e-06
  4.481316e-02    5.033258e-06
  4.511209e-02    4.992606e-06
  4.541102e-02    4.979774e-06
  4.570995e-02    5.005022e-06
  4.600888e-02    5.004587e-06
  4.630781e-02    4.985054e-06
  4.660674e-02    4.989829e-06
  4.690567e-02    4.959596e-06
  4.720460e-02    4.938540e-06
  4.750353e-02    4.960381e-06
  4.780246e-02    4.958189e-06
  4.810139e-02    4.950071e-06
  4.840032e-02    4.960363e-06
  4.869925e-02    4.948323e-06
  4.899818e-02    4.926977e-06
  4.929711e-02    4.924107e-06
  4.959604e-02    4.931485e-06
  4.989497e-02    4.913463e-06
  5.019390e-02    4.929070e-06
  5.049283e-02    4.951407e-06
  5.079176e-02    4.918094e-06
  5.109069e-02    4.939502e-06
  5.138962e-02    4.985016e-06
  5.168855e-02    5.073831e-06
  5.198748e-02    5.136477e-06
  5.228642e-02    5.104536e-06
  5.258535e-02    4.964404e-06
  5.288428e-02    4.916311e-06
  5.318321e-02    4.943478e-06
  5.348214e-02    4.940373e-06
  5.378107e-02    4.924213e-06
  5.408000e-02    4.907667e-06
  5.437893e-02    4.907958e-06
  5.467786e-02    4.928783e-06
  5.497679e-02    4.937553e-06
  5.527572e-02    4.931247e-06
  5.557465e-02    4.937032e-06
  5.587358e-02    4.949075e-06
  5.617251e-02    4.967665e-06
  5.647144e-02    4.940048e-06
  5.677037e-02    4.944801e-06
  5.706930e-02    4.963649e-06
  5.736823e-02    4.943652e-06
  5.766716e-02    4.959793e-06
  5.796609e-02    5.004486e-06
  5.826502e-02    5.024438e-06
  5.856395e-02    5.021514e-06
  5.886288e-02    4.986784e-06
  5.916181e-02    4.965448e-06
  5.946074e-02    4.995808e-06
  5.975967e-02    5.000101e-06
  6.005861e-02    5.023597e-06
  6.035754e-02    5.036576e-06
  6.065647e-02    5.062045e-06
  6.095540e-02    5.119342e-06
  6.125433e-02    5.168235e-06
  6.155326e-02    5.206675e-06
  6.185219e-02    5.156299e-06
  6.215112e-02    5.112900e-06
  6.245005e-02    5.087024e-06
  6.274898e-02    5.085030e-06
  6.304791e-02    5.105569e-06
  6.334684e-02    5.117816e-06
  6.364577e-02    5.119065e-06
  6.394470e-02    5.114036e-06
  6.424363e-02    5.121293e-06
  6.454256e-02    5.146752e-06
  6.484149e-02    5.167465e-06
  6.514042e-02    5.158835e-06
  6.543935e-02    5.155312e-06
  6.573828e-02    5.173787e-06
  6.603721e-02    5.193142e-06
  6.633614e-02    5.183637e-06
  6.663507e-02    5.199314e-06
  6.693400e-02    5.235050e-06
  6.723293e-02    5.258581e-06
  6.753186e-02    5.246080e-06
  6.783080e-02    5.250185e-06
  6.812973e-02    5.250374e-06
  6.842866e-02    5.253254e-06
  6.872759e-02    5.265596e-06
  6.902652e-02    5.277040e-06
  6.932545e-02    5.274926e-06
  6.962438e-02    5.280058e-06
  6.992331e-02    5.276680e-06
  7.022224e-02    5.284149e-06
  7.052117e-02    5.293652e-06
  7.082010e-02    5.303103e-06
  7.111903e-02    5.315226e-06
  7.141796e-02    5.337662e-06
  7.171689e-02    5.361404e-06
  7.201582e-02    5.361114e-06
  7.231475e-02    5.357625e-06
  7.261368e-02    5.344564e-06
  7.291261e-02    5.335302e-06
  7.321154e-02    5.365962e-06
  7.351047e-02    5.359085e-06
  7.380940e-02    5.369760e-06
  7.410833e-02    5.381592e-06
  7.440726e-02    5.385776e-06
  7.470619e-02    5.376441e-06
  7.500512e-02    5.380684e-06
  7.530405e-02    5.382197e-06
  7.560299e-02    5.373855e-06
  7.590192e-02    5.359528e-06
  7.620085e-02    5.372718e-06
  7.649978e-02    5.398375e-06
  7.679871e-02    5.393651e-06
  7.709764e-02    5.378943e-06
  7.739657e-02    5.383715e-06
  7.769550e-02    5.379206e-06
  7.799443e-02    5.396593e-06
  7.829336e-02    5.410959e-06
  7.859229e-02    5.408313e-06
  7.889122e-02    5.388680e-06
  7.919015e-02    5.366092e-06
  7.948908e-02    5.375459e-06
  7.978801e-02    5.395279e-06
  8.008694e-02    5.377686e-06
  8.038587e-02    5.369068e-06
  8.068480e-02    5.366321e-06
  8.098373e-02    5.369999e-06
  8.128266e-02    5.362736e-06
  8.158159e-02    5.346235e-06
  8.188052e-02    5.338029e-06
  8.217945e-02    5.334068e-06
  8.247838e-02    5.336682e-06
  8.277731e-02    5.332585e-06
  8.307624e-02    5.311434e-06
  8.337518e-02    5.281947e-06
  8.367411e-02    5.272439e-06
  8.397304e-02    5.273589e-06
  8.427197e-02    5.279127e-06
  8.457090e-02    5.271755e-06
  8.486983e-02    5.264201e-06
  8.516876e-02    5.256402e-06
  8.546769e-02    5.249997e-06
  8.576662e-02    5.248405e-06
  8.606555e-02    5.236984e-06
  8.636448e-02    5.244473e-06
  8.666341e-02    5.225228e-06
  8.696234e-02    5.228092e-06
  8.726127e-02    5.208152e-06
  8.756020e-02    5.199571e-06
  8.785913e-02    5.204149e-06
  8.815806e-02    5.181606e-06
  8.845699e-02    5.164024e-06
  8.875592e-02    5.161512e-06
  8.905485e-02    5.176702e-06
  8.935378e-02    5.164379e-06
  8.965271e-02    5.153092e-06
  8.995164e-02    5.143209e-06
  9.025057e-02    5.129305e-06
  9.054950e-02    5.119720e-06
  9.084843e-02    5.096904e-06
  9.114737e-02    5.080155e-06
  9.144630e-02    5.088079e-06
  9.174523e-02    5.084246e-06
  9.204416e-02    5.092522e-06
  9.234309e-02    5.083334e-06
  9.264202e-02    5.051144e-06
  9.294095e-02    5.022332e-06
  9.323988e-02    5.020228e-06
  9.353881e-02    5.020657e-06
  9.383774e-02    4.994446e-06
  9.413667e-02    4.998152e-06
  9.443560e-02    4.988096e-06
  9.473453e-02    4.982613e-06
  9.503346e-02    4.982134e-06
  9.533239e-02    4.966845e-06
  9.563132e-02    4.962318e-06
  9.593025e-02    4.993928e-06
  9.622918e-02    4.996627e-06
  9.652811e-02    4.985745e-06
  9.682704e-02    4.989353e-06
  9.712597e-02    4.990233e-06
  9.742490e-02    4.974275e-06
  9.772383e-02    4.945976e-06
  9.802276e-02    4.928336e-06
  9.832169e-02    4.912175e-06
  9.862062e-02    4.876242e-06
  9.891956e-02    4.866588e-06
  9.921849e-02    4.847552e-06
  9.951742e-02    4.821396e-06
  9.981635e-02    4.810336e-06
  1.001153e-01    4.814000e-06
  1.004142e-01    4.833234e-06
  1.007131e-01    4.805161e-06
  1.010121e-01    4.769971e-06
  1.013110e-01    4.774083e-06
  1.016099e-01    4.779401e-06
  1.019089e-01    4.769003e-06
  1.022078e-01    4.760470e-06
  1.025067e-01    4.758689e-06
  1.028057e-01    4.753543e-06
  1.031046e-01    4.732682e-06
  1.034035e-01    4.713143e-06
  1.037024e-01    4.734386e-06
  1.040014e-01    4.717368e-06
  1.043003e-01    4.704251e-06
  1.045992e-01    4.699796e-06
  1.048982e-01    4.700435e-06
  1.051971e-01    4.683237e-06
  1.054960e-01    4.661782e-06
  1.057950e-01    4.667022e-06
  1.060939e-01    4.659799e-06
  1.063928e-01    4.632649e-06
  1.066917e-01    4.615220e-06
  1.069907e-01    4.604761e-06
  1.072896e-01    4.583982e-06
  1.075885e-01    4.555674e-06
  1.078875e-01    4.565652e-06
  1.081864e-01    4.576870e-06
  1.084853e-01    4.579656e-06
  1.087843e-01    4.593483e-06
  1.090832e-01    4.601829e-06
  1.093821e-01    4.574988e-06
  1.096810e-01    4.552094e-06
  1.099800e-01    4.534726e-06
  1.102789e-01    4.511623e-06
  1.105778e-01    4.478040e-06
  1.108768e-01    4.452734e-06
  1.111757e-01    4.429166e-06
  1.114746e-01    4.416342e-06
  1.117736e-01    4.415780e-06
  1.120725e-01    4.424413e-06
  1.123714e-01    4.396518e-06
  1.126704e-01    4.389221e-06
  1.129693e-01    4.379066e-06
  1.132682e-01    4.384281e-06
  1.135671e-01    4.377477e-06
  1.138661e-01    4.353637e-06
  1.141650e-01    4.350235e-06
  1.144639e-01    4.358836e-06
  1.147629e-01    4.355948e-06
  1.150618e-01    4.319568e-06
  1.153607e-01    4.326761e-06
  1.156597e-01    4.329529e-06
  1.159586e-01    4.297726e-06
  1.162575e-01    4.271188e-06
  1.165564e-01    4.263278e-06
  1.168554e-01    4.283083e-06
  1.171543e-01    4.305683e-06
  1.174532e-01    4.296126e-06
  1.177522e-01    4.338393e-06
  1.180511e-01    4.338715e-06
  1.183500e-01    4.264914e-06
  1.186490e-01    4.211211e-06
  1.189479e-01    4.249729e-06
  1.192468e-01    4.240643e-06
  1.195458e-01    4.239307e-06
  1.198447e-01    4.183652e-06
  1.201436e-01    4.092840e-06
  1.204425e-01    3.973903e-06
  1.207415e-01    4.082139e-06
  1.210404e-01    4.798884e-06
  1.213393e-01    0.000000e+00
  1.216383e-01    0.000000e+00
  1.219372e-01    0.000000e+00
  1.222361e-01    0.000000e+00
  1.225351e-01    0.000000e+00
  1.228340e-01    0.000000e+00
  1.231329e-01    0.000000e+00
  1.234318e-01    0.000000e+00
  1.237308e-01    0.000000e+00
  1.240297e-01    0.000000e+00
  1.243286e-01    0.000000e+00
  1.246276e-01    0.000000e+00
  1.249265e-01    0.000000e+00
  1.252254e-01    0.000000e+00
  1.255244e-01    0.000000e+00
  1.258233e-01    0.000000e+00
  1.261222e-01    0.000000e+00
  1.264212e-01    0.000000e+00
  1.267201e-01    0.000000e+00
  1.270190e-01    0.000000e+00
  1.273179e-01    0.000000e+00
  1.276169e-01    0.000000e+00
  1.279158e-01    0.000000e+00
  1.282147e-01    0.000000e+00
  1.285137e-01    0.000000e+00
  1.288126e-01    0.000000e+00
  1.291115e-01    0.000000e+00
  1.294105e-01    0.000000e+00
  1.297094e-01    0.000000e+00
  1.300083e-01    0.000000e+00
  1.303072e-01    0.000000e+00
  1.306062e-01    0.000000e+00
  1.309051e-01    0.000000e+00
  1.312040e-01    0.000000e+00
  1.315030e-01    0.000000e+00
  1.318019e-01    0.000000e+00
  1.321008e-01    0.000000e+00
  1.323998e-01    0.000000e+00
  1.326987e-01    0.000000e+00
  1.329976e-01    0.000000e+00
  1.332965e-01    0.000000e+00
  1.335955e-01    0.000000e+00
  1.338944e-01    0.000000e+00
  1.341933e-01    0.000000e+00
  1.344923e-01    0.000000e+00
  1.347912e-01    0.000000e+00
  1.350901e-01    0.000000e+00
  1.353891e-01    0.000000e+00
  1.356880e-01    0.000000e+00
  1.359869e-01    0.000000e+00
  1.362859e-01    0.000000e+00
  1.365848e-01    0.000000e+00
  1.368837e-01    0.000000e+00
  1.371826e-01    0.000000e+00
  1.374816e-01    0.000000e+00
  1.377805e-01    0.000000e+00
  1.380794e-01    0.000000e+00
  1.383784e-01    0.000000e+00
  1.386773e-01    0.000000e+00
  1.389762e-01    0.000000e+00
  1.392752e-01    0.000000e+00
  1.395741e-01    0.000000e+00
  1.398730e-01    0.000000e+00
  1.401719e-01    0.000000e+00
  1.404709e-01    0.000000e+00
  1.407698e-01    0.000000e+00
  1.410687e-01    0.000000e+00
  1.413677e-01    0.000000e+00
  1.416666e-01    0.000000e+00
  1.419655e-01    0.000000e+00
  1.422645e-01    0.000000e+00
  1.425634e-01    0.000000e+00
  1.428623e-01    0.000000e+00
  1.431613e-01    0.000000e+00
  1.434602e-01    0.000000e+00
  1.437591e-01    0.000000e+00
  1.440580e-01    0.000000e+00
  1.443570e-01    0.000000e+00
  1.446559e-01    0.000000e+00
  1.449548e-01    0.000000e+00
  1.452538e-01    0.000000e+00
  1.455527e-01    0.000000e+00
  1.458516e-01    0.000000e+00
  1.461506e-01    0.000000e+00
  1.464495e-01    0.000000e+00
  1.467484e-01    0.000000e+00
  1.470473e-01    0.000000e+00
  1.473463e-01    0.000000e+00
  1.476452e-01    0.000000e+00
  1.479441e-01    0.000000e+00
  1.482431e-01    0.000000e+00
  1.485420e-01    0.000000e+00
  1.488409e-01    0.000000e+00
  1.491399e-01    0.000000e+00
  1.494388e-01    0.000000e+00
  1.497377e-01    0.000000e+00
  1.500367e-01    0.000000e+00
  1.503356e-01    0.000000e+00
  1.506345e-01    0.000000e+00
  1.509334e-01    0.000000e+00
  1.512324e-01    0.000000e+00
  1.515313e-01    0.000000e+00
  1.518302e-01    0.000000e+00
  1.521292e-01    0.000000e+00
  1.524281e-01    0.000000e+00
  1.527270e-01    0.000000e+00
  1.530260e-01    0.000000e+00
  1.533249e-01    0.000000e+00
  1.536238e-01    0.000000e+00
