# == pyFAI calibration ==
# Distance Sample to Detector: 2.266 m
# PONI: 5.659e-02, 4.293e-02 m
# Rotations: 0.000000 0.000000 0.000000 rad
# 
# == Fit2d calibration ==
# Distance Sample-beamCenter: 2266.000 mm
# Center: x=249.594, y=329.012 pix
# Tilt: 0.000 deg  TiltPlanRot: 0.000 deg
# 
# Detector Pilatus 300k	 PixelSize= 1.720e-04, 1.720e-04 m
#    Detector has a mask: True 
#    Detector has a dark current: False 
#    detector has a flat field: False 
# 
# Wavelength: 1.27818e-10 m
# Mask applied: user provided
# Dark current applied: False
# Flat field applied: False
# Polarization factor: None
# Normalization factor: 1731743.2000000002
# --> MT-AL_F127_220301_3e612500-a98f-400e-8c11-285eaaf0fdca_0_r1d.csv
#        q_A^-1             I 
  4.457554e-03    7.883030e-03
  4.756484e-03    6.081411e-03
  5.055415e-03    4.268871e-03
  5.354345e-03    2.971999e-03
  5.653276e-03    2.252940e-03
  5.952206e-03    3.560714e-03
  6.251136e-03    3.263418e-03
  6.550067e-03    2.849073e-03
  6.848997e-03    2.432874e-03
  7.147927e-03    2.058892e-03
  7.446858e-03    1.758778e-03
  7.745788e-03    1.505278e-03
  8.044719e-03    1.296702e-03
  8.343649e-03    1.129966e-03
  8.642579e-03    9.901159e-04
  8.941510e-03    8.718711e-04
  9.240440e-03    7.730516e-04
  9.539371e-03    6.875695e-04
  9.838301e-03    6.118132e-04
  1.013723e-02    5.462333e-04
  1.043616e-02    4.910808e-04
  1.073509e-02    4.422790e-04
  1.103402e-02    4.002082e-04
  1.133295e-02    3.638689e-04
  1.163188e-02    3.312651e-04
  1.193081e-02    3.017504e-04
  1.222974e-02    2.757808e-04
  1.252867e-02    2.539079e-04
  1.282760e-02    2.339811e-04
  1.312654e-02    2.150413e-04
  1.342547e-02    1.993324e-04
  1.372440e-02    1.847156e-04
  1.402333e-02    1.708353e-04
  1.432226e-02    1.595205e-04
  1.462119e-02    1.490165e-04
  1.492012e-02    1.383774e-04
  1.521905e-02    1.294960e-04
  1.551798e-02    1.217917e-04
  1.581691e-02    1.148934e-04
  1.611584e-02    1.074605e-04
  1.641477e-02    1.013019e-04
  1.671370e-02    9.584344e-05
  1.701263e-02    9.021441e-05
  1.731156e-02    8.561332e-05
  1.761049e-02    8.164636e-05
  1.790942e-02    7.769748e-05
  1.820835e-02    7.409337e-05
  1.850728e-02    7.085126e-05
  1.880621e-02    6.767950e-05
  1.910514e-02    6.502069e-05
  1.940407e-02    6.252861e-05
  1.970300e-02    5.991145e-05
  2.000193e-02    5.764845e-05
  2.030086e-02    5.556599e-05
  2.059979e-02    5.342431e-05
  2.089873e-02    5.150164e-05
  2.119766e-02    4.953566e-05
  2.149659e-02    4.814607e-05
  2.179552e-02    4.685233e-05
  2.209445e-02    4.514954e-05
  2.239338e-02    4.373909e-05
  2.269231e-02    4.241107e-05
  2.299124e-02    4.106458e-05
  2.329017e-02    4.042446e-05
  2.358910e-02    3.963631e-05
  2.388803e-02    3.868563e-05
  2.418696e-02    3.757884e-05
  2.448589e-02    3.676494e-05
  2.478482e-02    3.608006e-05
  2.508375e-02    3.543061e-05
  2.538268e-02    3.505117e-05
  2.568161e-02    3.414152e-05
  2.598054e-02    3.342410e-05
  2.627947e-02    3.292217e-05
  2.657840e-02    3.231067e-05
  2.687733e-02    3.161822e-05
  2.717626e-02    3.155295e-05
  2.747519e-02    3.097770e-05
  2.777412e-02    3.047888e-05
  2.807305e-02    3.017774e-05
  2.837198e-02    2.991698e-05
  2.867092e-02    2.947428e-05
  2.896985e-02    2.902854e-05
  2.926878e-02    2.858774e-05
  2.956771e-02    2.819755e-05
  2.986664e-02    2.787609e-05
  3.016557e-02    2.782101e-05
  3.046450e-02    2.750538e-05
  3.076343e-02    2.726415e-05
  3.106236e-02    2.695230e-05
  3.136129e-02    2.652052e-05
  3.166022e-02    2.632942e-05
  3.195915e-02    2.626978e-05
  3.225808e-02    2.585945e-05
  3.255701e-02    2.571580e-05
  3.285594e-02    2.545197e-05
  3.315487e-02    2.506884e-05
  3.345380e-02    2.518251e-05
  3.375273e-02    2.465389e-05
  3.405166e-02    2.441724e-05
  3.435059e-02    2.432209e-05
  3.464952e-02    2.417909e-05
  3.494845e-02    2.383600e-05
  3.524738e-02    2.353684e-05
  3.554631e-02    2.320303e-05
  3.584524e-02    2.293123e-05
  3.614417e-02    2.290039e-05
  3.644310e-02    2.247329e-05
  3.674204e-02    2.215704e-05
  3.704097e-02    2.205416e-05
  3.733990e-02    2.195395e-05
  3.763883e-02    2.191979e-05
  3.793776e-02    2.173778e-05
  3.823669e-02    2.148324e-05
  3.853562e-02    2.124909e-05
  3.883455e-02    2.110742e-05
  3.913348e-02    2.092966e-05
  3.943241e-02    2.090561e-05
  3.973134e-02    2.089972e-05
  4.003027e-02    2.074430e-05
  4.032920e-02    2.045773e-05
  4.062813e-02    2.035818e-05
  4.092706e-02    2.024256e-05
  4.122599e-02    2.015915e-05
  4.152492e-02    1.991489e-05
  4.182385e-02    1.986333e-05
  4.212278e-02    1.993244e-05
  4.242171e-02    1.996355e-05
  4.272064e-02    1.991921e-05
  4.301957e-02    1.969421e-05
  4.331850e-02    1.953662e-05
  4.361743e-02    1.955168e-05
  4.391636e-02    1.950399e-05
  4.421529e-02    1.945308e-05
  4.451423e-02    1.950931e-05
  4.481316e-02    1.950968e-05
  4.511209e-02    1.937823e-05
  4.541102e-02    1.925591e-05
  4.570995e-02    1.931715e-05
  4.600888e-02    1.933043e-05
  4.630781e-02    1.909709e-05
  4.660674e-02    1.892587e-05
  4.690567e-02    1.919593e-05
  4.720460e-02    1.930032e-05
  4.750353e-02    1.920156e-05
  4.780246e-02    1.903896e-05
  4.810139e-02    1.892113e-05
  4.840032e-02    1.891330e-05
  4.869925e-02    1.892745e-05
  4.899818e-02    1.885007e-05
  4.929711e-02    1.896365e-05
  4.959604e-02    1.908154e-05
  4.989497e-02    1.907514e-05
  5.019390e-02    1.896872e-05
  5.049283e-02    1.904479e-05
  5.079176e-02    1.894440e-05
  5.109069e-02    1.880308e-05
  5.138962e-02    1.906538e-05
  5.168855e-02    1.966987e-05
  5.198748e-02    1.995505e-05
  5.228642e-02    1.970930e-05
  5.258535e-02    1.897092e-05
  5.288428e-02    1.876418e-05
  5.318321e-02    1.878051e-05
  5.348214e-02    1.870389e-05
  5.378107e-02    1.869735e-05
  5.408000e-02    1.873071e-05
  5.437893e-02    1.865705e-05
  5.467786e-02    1.875289e-05
  5.497679e-02    1.888502e-05
  5.527572e-02    1.876612e-05
  5.557465e-02    1.859365e-05
  5.587358e-02    1.867852e-05
  5.617251e-02    1.872976e-05
  5.647144e-02    1.870949e-05
  5.677037e-02    1.865058e-05
  5.706930e-02    1.864751e-05
  5.736823e-02    1.870072e-05
  5.766716e-02    1.878465e-05
  5.796609e-02    1.876437e-05
  5.826502e-02    1.882228e-05
  5.856395e-02    1.880401e-05
  5.886288e-02    1.868988e-05
  5.916181e-02    1.887229e-05
  5.946074e-02    1.900282e-05
  5.975967e-02    1.898409e-05
  6.005861e-02    1.902224e-05
  6.035754e-02    1.915254e-05
  6.065647e-02    1.914244e-05
  6.095540e-02    1.917600e-05
  6.125433e-02    1.947271e-05
  6.155326e-02    1.969663e-05
  6.185219e-02    1.938708e-05
  6.215112e-02    1.922611e-05
  6.245005e-02    1.906454e-05
  6.274898e-02    1.901902e-05
  6.304791e-02    1.913539e-05
  6.334684e-02    1.916695e-05
  6.364577e-02    1.904299e-05
  6.394470e-02    1.900514e-05
  6.424363e-02    1.908659e-05
  6.454256e-02    1.918490e-05
  6.484149e-02    1.898149e-05
  6.514042e-02    1.909918e-05
  6.543935e-02    1.925099e-05
  6.573828e-02    1.927670e-05
  6.603721e-02    1.936661e-05
  6.633614e-02    1.936045e-05
  6.663507e-02    1.941172e-05
  6.693400e-02    1.952505e-05
  6.723293e-02    1.958317e-05
  6.753186e-02    1.946733e-05
  6.783080e-02    1.959742e-05
  6.812973e-02    1.966629e-05
  6.842866e-02    1.963582e-05
  6.872759e-02    1.951106e-05
  6.902652e-02    1.958790e-05
  6.932545e-02    1.957924e-05
  6.962438e-02    1.962316e-05
  6.992331e-02    1.967028e-05
  7.022224e-02    1.968624e-05
  7.052117e-02    1.976317e-05
  7.082010e-02    1.974009e-05
  7.111903e-02    1.978459e-05
  7.141796e-02    1.979868e-05
  7.171689e-02    1.972307e-05
  7.201582e-02    1.977137e-05
  7.231475e-02    1.981939e-05
  7.261368e-02    1.972290e-05
  7.291261e-02    1.970760e-05
  7.321154e-02    1.971420e-05
  7.351047e-02    1.983698e-05
  7.380940e-02    1.994484e-05
  7.410833e-02    1.982166e-05
  7.440726e-02    1.981767e-05
  7.470619e-02    1.991149e-05
  7.500512e-02    1.986612e-05
  7.530405e-02    1.984251e-05
  7.560299e-02    1.989473e-05
  7.590192e-02    1.993746e-05
  7.620085e-02    1.986928e-05
  7.649978e-02    1.990931e-05
  7.679871e-02    2.003655e-05
  7.709764e-02    1.997074e-05
  7.739657e-02    1.995695e-05
  7.769550e-02    1.994267e-05
  7.799443e-02    1.992070e-05
  7.829336e-02    1.980079e-05
  7.859229e-02    1.986878e-05
  7.889122e-02    1.991110e-05
  7.919015e-02    1.982184e-05
  7.948908e-02    1.968643e-05
  7.978801e-02    1.963919e-05
  8.008694e-02    1.963355e-05
  8.038587e-02    1.985379e-05
  8.068480e-02    1.996301e-05
  8.098373e-02    1.974695e-05
  8.128266e-02    1.967901e-05
  8.158159e-02    1.975393e-05
  8.188052e-02    1.976428e-05
  8.217945e-02    1.971996e-05
  8.247838e-02    1.960776e-05
  8.277731e-02    1.960769e-05
  8.307624e-02    1.961635e-05
  8.337518e-02    1.945871e-05
  8.367411e-02    1.941584e-05
  8.397304e-02    1.941571e-05
  8.427197e-02    1.943762e-05
  8.457090e-02    1.950272e-05
  8.486983e-02    1.949152e-05
  8.516876e-02    1.936160e-05
  8.546769e-02    1.933939e-05
  8.576662e-02    1.915962e-05
  8.606555e-02    1.920693e-05
  8.636448e-02    1.931006e-05
  8.666341e-02    1.923359e-05
  8.696234e-02    1.922499e-05
  8.726127e-02    1.927176e-05
  8.756020e-02    1.916604e-05
  8.785913e-02    1.915318e-05
  8.815806e-02    1.911837e-05
  8.845699e-02    1.914484e-05
  8.875592e-02    1.900303e-05
  8.905485e-02    1.886249e-05
  8.935378e-02    1.890729e-05
  8.965271e-02    1.905740e-05
  8.995164e-02    1.889250e-05
  9.025057e-02    1.879272e-05
  9.054950e-02    1.883542e-05
  9.084843e-02    1.885712e-05
  9.114737e-02    1.870669e-05
  9.144630e-02    1.873160e-05
  9.174523e-02    1.867406e-05
  9.204416e-02    1.860780e-05
  9.234309e-02    1.864076e-05
  9.264202e-02    1.859609e-05
  9.294095e-02    1.845759e-05
  9.323988e-02    1.851494e-05
  9.353881e-02    1.847060e-05
  9.383774e-02    1.843429e-05
  9.413667e-02    1.834990e-05
  9.443560e-02    1.831317e-05
  9.473453e-02    1.825350e-05
  9.503346e-02    1.821768e-05
  9.533239e-02    1.826665e-05
  9.563132e-02    1.809088e-05
  9.593025e-02    1.817176e-05
  9.622918e-02    1.822538e-05
  9.652811e-02    1.820606e-05
  9.682704e-02    1.833304e-05
  9.712597e-02    1.841511e-05
  9.742490e-02    1.833645e-05
  9.772383e-02    1.823248e-05
  9.802276e-02    1.820057e-05
  9.832169e-02    1.802486e-05
  9.862062e-02    1.793055e-05
  9.891956e-02    1.802203e-05
  9.921849e-02    1.789568e-05
  9.951742e-02    1.781171e-05
  9.981635e-02    1.770423e-05
  1.001153e-01    1.756542e-05
  1.004142e-01    1.750218e-05
  1.007131e-01    1.757051e-05
  1.010121e-01    1.759878e-05
  1.013110e-01    1.764026e-05
  1.016099e-01    1.765641e-05
  1.019089e-01    1.750345e-05
  1.022078e-01    1.745062e-05
  1.025067e-01    1.751020e-05
  1.028057e-01    1.758904e-05
  1.031046e-01    1.754523e-05
  1.034035e-01    1.739668e-05
  1.037024e-01    1.739289e-05
  1.040014e-01    1.730225e-05
  1.043003e-01    1.723901e-05
  1.045992e-01    1.731316e-05
  1.048982e-01    1.741991e-05
  1.051971e-01    1.723451e-05
  1.054960e-01    1.710280e-05
  1.057950e-01    1.716131e-05
  1.060939e-01    1.712206e-05
  1.063928e-01    1.697375e-05
  1.066917e-01    1.694719e-05
  1.069907e-01    1.704099e-05
  1.072896e-01    1.700962e-05
  1.075885e-01    1.705173e-05
  1.078875e-01    1.694849e-05
  1.081864e-01    1.689360e-05
  1.084853e-01    1.692465e-05
  1.087843e-01    1.696918e-05
  1.090832e-01    1.688316e-05
  1.093821e-01    1.681604e-05
  1.096810e-01    1.679722e-05
  1.099800e-01    1.677142e-05
  1.102789e-01    1.655941e-05
  1.105778e-01    1.647490e-05
  1.108768e-01    1.654622e-05
  1.111757e-01    1.654546e-05
  1.114746e-01    1.658616e-05
  1.117736e-01    1.636190e-05
  1.120725e-01    1.627123e-05
  1.123714e-01    1.639667e-05
  1.126704e-01    1.645611e-05
  1.129693e-01    1.638529e-05
  1.132682e-01    1.619372e-05
  1.135671e-01    1.605658e-05
  1.138661e-01    1.616197e-05
  1.141650e-01    1.622855e-05
  1.144639e-01    1.620865e-05
  1.147629e-01    1.602275e-05
  1.150618e-01    1.571399e-05
  1.153607e-01    1.567631e-05
  1.156597e-01    1.593276e-05
  1.159586e-01    1.597145e-05
  1.162575e-01    1.586459e-05
  1.165564e-01    1.586101e-05
  1.168554e-01    1.571170e-05
  1.171543e-01    1.594924e-05
  1.174532e-01    1.603838e-05
  1.177522e-01    1.586261e-05
  1.180511e-01    1.589590e-05
  1.183500e-01    1.619025e-05
  1.186490e-01    1.616652e-05
  1.189479e-01    1.587485e-05
  1.192468e-01    1.572885e-05
  1.195458e-01    1.590382e-05
  1.198447e-01    1.634798e-05
  1.201436e-01    1.627597e-05
  1.204425e-01    1.505915e-05
  1.207415e-01    1.430250e-05
  1.210404e-01    1.560535e-05
  1.213393e-01    0.000000e+00
  1.216383e-01    0.000000e+00
  1.219372e-01    0.000000e+00
  1.222361e-01    0.000000e+00
  1.225351e-01    0.000000e+00
  1.228340e-01    0.000000e+00
  1.231329e-01    0.000000e+00
  1.234318e-01    0.000000e+00
  1.237308e-01    0.000000e+00
  1.240297e-01    0.000000e+00
  1.243286e-01    0.000000e+00
  1.246276e-01    0.000000e+00
  1.249265e-01    0.000000e+00
  1.252254e-01    0.000000e+00
  1.255244e-01    0.000000e+00
  1.258233e-01    0.000000e+00
  1.261222e-01    0.000000e+00
  1.264212e-01    0.000000e+00
  1.267201e-01    0.000000e+00
  1.270190e-01    0.000000e+00
  1.273179e-01    0.000000e+00
  1.276169e-01    0.000000e+00
  1.279158e-01    0.000000e+00
  1.282147e-01    0.000000e+00
  1.285137e-01    0.000000e+00
  1.288126e-01    0.000000e+00
  1.291115e-01    0.000000e+00
  1.294105e-01    0.000000e+00
  1.297094e-01    0.000000e+00
  1.300083e-01    0.000000e+00
  1.303072e-01    0.000000e+00
  1.306062e-01    0.000000e+00
  1.309051e-01    0.000000e+00
  1.312040e-01    0.000000e+00
  1.315030e-01    0.000000e+00
  1.318019e-01    0.000000e+00
  1.321008e-01    0.000000e+00
  1.323998e-01    0.000000e+00
  1.326987e-01    0.000000e+00
  1.329976e-01    0.000000e+00
  1.332965e-01    0.000000e+00
  1.335955e-01    0.000000e+00
  1.338944e-01    0.000000e+00
  1.341933e-01    0.000000e+00
  1.344923e-01    0.000000e+00
  1.347912e-01    0.000000e+00
  1.350901e-01    0.000000e+00
  1.353891e-01    0.000000e+00
  1.356880e-01    0.000000e+00
  1.359869e-01    0.000000e+00
  1.362859e-01    0.000000e+00
  1.365848e-01    0.000000e+00
  1.368837e-01    0.000000e+00
  1.371826e-01    0.000000e+00
  1.374816e-01    0.000000e+00
  1.377805e-01    0.000000e+00
  1.380794e-01    0.000000e+00
  1.383784e-01    0.000000e+00
  1.386773e-01    0.000000e+00
  1.389762e-01    0.000000e+00
  1.392752e-01    0.000000e+00
  1.395741e-01    0.000000e+00
  1.398730e-01    0.000000e+00
  1.401719e-01    0.000000e+00
  1.404709e-01    0.000000e+00
  1.407698e-01    0.000000e+00
  1.410687e-01    0.000000e+00
  1.413677e-01    0.000000e+00
  1.416666e-01    0.000000e+00
  1.419655e-01    0.000000e+00
  1.422645e-01    0.000000e+00
  1.425634e-01    0.000000e+00
  1.428623e-01    0.000000e+00
  1.431613e-01    0.000000e+00
  1.434602e-01    0.000000e+00
  1.437591e-01    0.000000e+00
  1.440580e-01    0.000000e+00
  1.443570e-01    0.000000e+00
  1.446559e-01    0.000000e+00
  1.449548e-01    0.000000e+00
  1.452538e-01    0.000000e+00
  1.455527e-01    0.000000e+00
  1.458516e-01    0.000000e+00
  1.461506e-01    0.000000e+00
  1.464495e-01    0.000000e+00
  1.467484e-01    0.000000e+00
  1.470473e-01    0.000000e+00
  1.473463e-01    0.000000e+00
  1.476452e-01    0.000000e+00
  1.479441e-01    0.000000e+00
  1.482431e-01    0.000000e+00
  1.485420e-01    0.000000e+00
  1.488409e-01    0.000000e+00
  1.491399e-01    0.000000e+00
  1.494388e-01    0.000000e+00
  1.497377e-01    0.000000e+00
  1.500367e-01    0.000000e+00
  1.503356e-01    0.000000e+00
  1.506345e-01    0.000000e+00
  1.509334e-01    0.000000e+00
  1.512324e-01    0.000000e+00
  1.515313e-01    0.000000e+00
  1.518302e-01    0.000000e+00
  1.521292e-01    0.000000e+00
  1.524281e-01    0.000000e+00
  1.527270e-01    0.000000e+00
  1.530260e-01    0.000000e+00
  1.533249e-01    0.000000e+00
  1.536238e-01    0.000000e+00
