# == pyFAI calibration ==
# Distance Sample to Detector: 2.266 m
# PONI: 5.659e-02, 4.293e-02 m
# Rotations: 0.000000 0.000000 0.000000 rad
# 
# == Fit2d calibration ==
# Distance Sample-beamCenter: 2266.000 mm
# Center: x=249.594, y=329.012 pix
# Tilt: 0.000 deg  TiltPlanRot: 0.000 deg
# 
# Detector Pilatus 300k	 PixelSize= 1.720e-04, 1.720e-04 m
#    Detector has a mask: True 
#    Detector has a dark current: False 
#    detector has a flat field: False 
# 
# Wavelength: 1.27818e-10 m
# Mask applied: user provided
# Dark current applied: False
# Flat field applied: False
# Polarization factor: None
# Normalization factor: 1546978.0
# --> MT-AL_F127_220225_d090e637-7f8e-4728-b42a-6115fadd64bc_0_r1d.csv
#        q_A^-1             I 
  4.457554e-03    2.557351e-02
  4.756484e-03    2.038023e-02
  5.055415e-03    1.492741e-02
  5.354345e-03    1.081620e-02
  5.653276e-03    8.549568e-03
  5.952206e-03    1.425052e-02
  6.251136e-03    1.293784e-02
  6.550067e-03    1.116989e-02
  6.848997e-03    9.447600e-03
  7.147927e-03    7.961602e-03
  7.446858e-03    6.796570e-03
  7.745788e-03    5.833577e-03
  8.044719e-03    5.035373e-03
  8.343649e-03    4.391591e-03
  8.642579e-03    3.847466e-03
  8.941510e-03    3.391920e-03
  9.240440e-03    3.010804e-03
  9.539371e-03    2.670317e-03
  9.838301e-03    2.378887e-03
  1.013723e-02    2.132304e-03
  1.043616e-02    1.913214e-03
  1.073509e-02    1.722877e-03
  1.103402e-02    1.562653e-03
  1.133295e-02    1.418553e-03
  1.163188e-02    1.290716e-03
  1.193081e-02    1.180051e-03
  1.222974e-02    1.079194e-03
  1.252867e-02    9.897720e-04
  1.282760e-02    9.113887e-04
  1.312654e-02    8.405572e-04
  1.342547e-02    7.803155e-04
  1.372440e-02    7.226756e-04
  1.402333e-02    6.703697e-04
  1.432226e-02    6.232343e-04
  1.462119e-02    5.805025e-04
  1.492012e-02    5.443185e-04
  1.521905e-02    5.096315e-04
  1.551798e-02    4.781869e-04
  1.581691e-02    4.482139e-04
  1.611584e-02    4.216383e-04
  1.641477e-02    3.984804e-04
  1.671370e-02    3.761233e-04
  1.701263e-02    3.553539e-04
  1.731156e-02    3.375146e-04
  1.761049e-02    3.202336e-04
  1.790942e-02    3.036648e-04
  1.820835e-02    2.901026e-04
  1.850728e-02    2.772352e-04
  1.880621e-02    2.633251e-04
  1.910514e-02    2.519569e-04
  1.940407e-02    2.417004e-04
  1.970300e-02    2.320526e-04
  2.000193e-02    2.229881e-04
  2.030086e-02    2.139816e-04
  2.059979e-02    2.063601e-04
  2.089873e-02    1.997488e-04
  2.119766e-02    1.926191e-04
  2.149659e-02    1.861202e-04
  2.179552e-02    1.800601e-04
  2.209445e-02    1.749210e-04
  2.239338e-02    1.696849e-04
  2.269231e-02    1.646420e-04
  2.299124e-02    1.601499e-04
  2.329017e-02    1.554257e-04
  2.358910e-02    1.515816e-04
  2.388803e-02    1.486338e-04
  2.418696e-02    1.453605e-04
  2.448589e-02    1.412257e-04
  2.478482e-02    1.372706e-04
  2.508375e-02    1.345721e-04
  2.538268e-02    1.320123e-04
  2.568161e-02    1.299166e-04
  2.598054e-02    1.271206e-04
  2.627947e-02    1.245200e-04
  2.657840e-02    1.226242e-04
  2.687733e-02    1.208106e-04
  2.717626e-02    1.188121e-04
  2.747519e-02    1.165584e-04
  2.777412e-02    1.145608e-04
  2.807305e-02    1.130435e-04
  2.837198e-02    1.119118e-04
  2.867092e-02    1.098428e-04
  2.896985e-02    1.086168e-04
  2.926878e-02    1.065902e-04
  2.956771e-02    1.052571e-04
  2.986664e-02    1.041639e-04
  3.016557e-02    1.030906e-04
  3.046450e-02    1.015692e-04
  3.076343e-02    1.004796e-04
  3.106236e-02    9.986897e-05
  3.136129e-02    9.887142e-05
  3.166022e-02    9.758522e-05
  3.195915e-02    9.648010e-05
  3.225808e-02    9.504268e-05
  3.255701e-02    9.446772e-05
  3.285594e-02    9.365857e-05
  3.315487e-02    9.279386e-05
  3.345380e-02    9.164761e-05
  3.375273e-02    9.086114e-05
  3.405166e-02    9.033392e-05
  3.435059e-02    8.946306e-05
  3.464952e-02    8.834254e-05
  3.494845e-02    8.767990e-05
  3.524738e-02    8.734692e-05
  3.554631e-02    8.682591e-05
  3.584524e-02    8.560623e-05
  3.614417e-02    8.507655e-05
  3.644310e-02    8.478932e-05
  3.674204e-02    8.413048e-05
  3.704097e-02    8.306495e-05
  3.733990e-02    8.234486e-05
  3.763883e-02    8.173320e-05
  3.793776e-02    8.130872e-05
  3.823669e-02    8.072119e-05
  3.853562e-02    8.009178e-05
  3.883455e-02    7.969343e-05
  3.913348e-02    7.927768e-05
  3.943241e-02    7.885786e-05
  3.973134e-02    7.822886e-05
  4.003027e-02    7.803315e-05
  4.032920e-02    7.765809e-05
  4.062813e-02    7.698462e-05
  4.092706e-02    7.677731e-05
  4.122599e-02    7.648663e-05
  4.152492e-02    7.631817e-05
  4.182385e-02    7.615556e-05
  4.212278e-02    7.583953e-05
  4.242171e-02    7.577032e-05
  4.272064e-02    7.548136e-05
  4.301957e-02    7.457198e-05
  4.331850e-02    7.474679e-05
  4.361743e-02    7.454845e-05
  4.391636e-02    7.436617e-05
  4.421529e-02    7.420502e-05
  4.451423e-02    7.395697e-05
  4.481316e-02    7.369429e-05
  4.511209e-02    7.347161e-05
  4.541102e-02    7.355053e-05
  4.570995e-02    7.329793e-05
  4.600888e-02    7.340996e-05
  4.630781e-02    7.323235e-05
  4.660674e-02    7.291809e-05
  4.690567e-02    7.301056e-05
  4.720460e-02    7.258228e-05
  4.750353e-02    7.261147e-05
  4.780246e-02    7.285035e-05
  4.810139e-02    7.280398e-05
  4.840032e-02    7.281017e-05
  4.869925e-02    7.255752e-05
  4.899818e-02    7.243551e-05
  4.929711e-02    7.261357e-05
  4.959604e-02    7.228776e-05
  4.989497e-02    7.224923e-05
  5.019390e-02    7.221581e-05
  5.049283e-02    7.211116e-05
  5.079176e-02    7.204730e-05
  5.109069e-02    7.222783e-05
  5.138962e-02    7.269728e-05
  5.168855e-02    7.373728e-05
  5.198748e-02    7.496440e-05
  5.228642e-02    7.423934e-05
  5.258535e-02    7.261695e-05
  5.288428e-02    7.222127e-05
  5.318321e-02    7.224874e-05
  5.348214e-02    7.195729e-05
  5.378107e-02    7.205248e-05
  5.408000e-02    7.200104e-05
  5.437893e-02    7.176612e-05
  5.467786e-02    7.191450e-05
  5.497679e-02    7.203839e-05
  5.527572e-02    7.226440e-05
  5.557465e-02    7.246323e-05
  5.587358e-02    7.198245e-05
  5.617251e-02    7.228564e-05
  5.647144e-02    7.240840e-05
  5.677037e-02    7.233772e-05
  5.706930e-02    7.256143e-05
  5.736823e-02    7.242212e-05
  5.766716e-02    7.255274e-05
  5.796609e-02    7.268780e-05
  5.826502e-02    7.267442e-05
  5.856395e-02    7.280432e-05
  5.886288e-02    7.239359e-05
  5.916181e-02    7.238360e-05
  5.946074e-02    7.266920e-05
  5.975967e-02    7.288029e-05
  6.005861e-02    7.300891e-05
  6.035754e-02    7.320962e-05
  6.065647e-02    7.352655e-05
  6.095540e-02    7.364732e-05
  6.125433e-02    7.451751e-05
  6.155326e-02    7.480592e-05
  6.185219e-02    7.412177e-05
  6.215112e-02    7.377371e-05
  6.245005e-02    7.374905e-05
  6.274898e-02    7.376125e-05
  6.304791e-02    7.353363e-05
  6.334684e-02    7.402219e-05
  6.364577e-02    7.398836e-05
  6.394470e-02    7.411301e-05
  6.424363e-02    7.471383e-05
  6.454256e-02    7.474463e-05
  6.484149e-02    7.449306e-05
  6.514042e-02    7.464510e-05
  6.543935e-02    7.453497e-05
  6.573828e-02    7.465445e-05
  6.603721e-02    7.490361e-05
  6.633614e-02    7.486593e-05
  6.663507e-02    7.496096e-05
  6.693400e-02    7.525425e-05
  6.723293e-02    7.537054e-05
  6.753186e-02    7.524242e-05
  6.783080e-02    7.528099e-05
  6.812973e-02    7.533470e-05
  6.842866e-02    7.573492e-05
  6.872759e-02    7.555661e-05
  6.902652e-02    7.570117e-05
  6.932545e-02    7.588288e-05
  6.962438e-02    7.601405e-05
  6.992331e-02    7.606580e-05
  7.022224e-02    7.611118e-05
  7.052117e-02    7.613025e-05
  7.082010e-02    7.592239e-05
  7.111903e-02    7.583386e-05
  7.141796e-02    7.611130e-05
  7.171689e-02    7.638035e-05
  7.201582e-02    7.665194e-05
  7.231475e-02    7.627955e-05
  7.261368e-02    7.625438e-05
  7.291261e-02    7.652613e-05
  7.321154e-02    7.665416e-05
  7.351047e-02    7.666960e-05
  7.380940e-02    7.668306e-05
  7.410833e-02    7.648321e-05
  7.440726e-02    7.630939e-05
  7.470619e-02    7.617823e-05
  7.500512e-02    7.617654e-05
  7.530405e-02    7.621838e-05
  7.560299e-02    7.627056e-05
  7.590192e-02    7.622554e-05
  7.620085e-02    7.643314e-05
  7.649978e-02    7.651165e-05
  7.679871e-02    7.635912e-05
  7.709764e-02    7.641688e-05
  7.739657e-02    7.644566e-05
  7.769550e-02    7.611556e-05
  7.799443e-02    7.617888e-05
  7.829336e-02    7.641110e-05
  7.859229e-02    7.632488e-05
  7.889122e-02    7.622322e-05
  7.919015e-02    7.611936e-05
  7.948908e-02    7.584658e-05
  7.978801e-02    7.586444e-05
  8.008694e-02    7.588830e-05
  8.038587e-02    7.585213e-05
  8.068480e-02    7.586891e-05
  8.098373e-02    7.569145e-05
  8.128266e-02    7.559719e-05
  8.158159e-02    7.577074e-05
  8.188052e-02    7.553070e-05
  8.217945e-02    7.564681e-05
  8.247838e-02    7.564292e-05
  8.277731e-02    7.529866e-05
  8.307624e-02    7.525686e-05
  8.337518e-02    7.519786e-05
  8.367411e-02    7.503635e-05
  8.397304e-02    7.509653e-05
  8.427197e-02    7.473897e-05
  8.457090e-02    7.471187e-05
  8.486983e-02    7.478351e-05
  8.516876e-02    7.474748e-05
  8.546769e-02    7.448234e-05
  8.576662e-02    7.421541e-05
  8.606555e-02    7.422636e-05
  8.636448e-02    7.404474e-05
  8.666341e-02    7.422877e-05
  8.696234e-02    7.431793e-05
  8.726127e-02    7.386850e-05
  8.756020e-02    7.352673e-05
  8.785913e-02    7.347194e-05
  8.815806e-02    7.350305e-05
  8.845699e-02    7.329605e-05
  8.875592e-02    7.311059e-05
  8.905485e-02    7.319872e-05
  8.935378e-02    7.330009e-05
  8.965271e-02    7.308119e-05
  8.995164e-02    7.292143e-05
  9.025057e-02    7.260268e-05
  9.054950e-02    7.253928e-05
  9.084843e-02    7.259857e-05
  9.114737e-02    7.237977e-05
  9.144630e-02    7.233369e-05
  9.174523e-02    7.216092e-05
  9.204416e-02    7.186643e-05
  9.234309e-02    7.156694e-05
  9.264202e-02    7.164344e-05
  9.294095e-02    7.154176e-05
  9.323988e-02    7.132874e-05
  9.353881e-02    7.123630e-05
  9.383774e-02    7.101522e-05
  9.413667e-02    7.086314e-05
  9.443560e-02    7.080475e-05
  9.473453e-02    7.080382e-05
  9.503346e-02    7.080059e-05
  9.533239e-02    7.058723e-05
  9.563132e-02    7.043286e-05
  9.593025e-02    7.036551e-05
  9.622918e-02    7.048492e-05
  9.652811e-02    7.076592e-05
  9.682704e-02    7.056548e-05
  9.712597e-02    7.042233e-05
  9.742490e-02    7.025386e-05
  9.772383e-02    7.030844e-05
  9.802276e-02    6.991657e-05
  9.832169e-02    6.936953e-05
  9.862062e-02    6.940488e-05
  9.891956e-02    6.926359e-05
  9.921849e-02    6.892261e-05
  9.951742e-02    6.893363e-05
  9.981635e-02    6.869465e-05
  1.001153e-01    6.859493e-05
  1.004142e-01    6.855502e-05
  1.007131e-01    6.852499e-05
  1.010121e-01    6.827537e-05
  1.013110e-01    6.787349e-05
  1.016099e-01    6.777623e-05
  1.019089e-01    6.803485e-05
  1.022078e-01    6.770925e-05
  1.025067e-01    6.740849e-05
  1.028057e-01    6.739977e-05
  1.031046e-01    6.737843e-05
  1.034035e-01    6.750080e-05
  1.037024e-01    6.746392e-05
  1.040014e-01    6.717504e-05
  1.043003e-01    6.683011e-05
  1.045992e-01    6.643523e-05
  1.048982e-01    6.641971e-05
  1.051971e-01    6.633186e-05
  1.054960e-01    6.621161e-05
  1.057950e-01    6.632724e-05
  1.060939e-01    6.627694e-05
  1.063928e-01    6.616345e-05
  1.066917e-01    6.582222e-05
  1.069907e-01    6.553623e-05
  1.072896e-01    6.560650e-05
  1.075885e-01    6.556273e-05
  1.078875e-01    6.543657e-05
  1.081864e-01    6.516122e-05
  1.084853e-01    6.526751e-05
  1.087843e-01    6.519246e-05
  1.090832e-01    6.510106e-05
  1.093821e-01    6.502740e-05
  1.096810e-01    6.478541e-05
  1.099800e-01    6.448747e-05
  1.102789e-01    6.426321e-05
  1.105778e-01    6.417443e-05
  1.108768e-01    6.388676e-05
  1.111757e-01    6.363601e-05
  1.114746e-01    6.345117e-05
  1.117736e-01    6.360383e-05
  1.120725e-01    6.369775e-05
  1.123714e-01    6.321390e-05
  1.126704e-01    6.276885e-05
  1.129693e-01    6.259578e-05
  1.132682e-01    6.243045e-05
  1.135671e-01    6.212137e-05
  1.138661e-01    6.141152e-05
  1.141650e-01    6.133415e-05
  1.144639e-01    6.188418e-05
  1.147629e-01    6.183200e-05
  1.150618e-01    6.158551e-05
  1.153607e-01    6.140560e-05
  1.156597e-01    6.141052e-05
  1.159586e-01    6.148237e-05
  1.162575e-01    6.175225e-05
  1.165564e-01    6.165796e-05
  1.168554e-01    6.153645e-05
  1.171543e-01    6.139353e-05
  1.174532e-01    6.102364e-05
  1.177522e-01    6.124591e-05
  1.180511e-01    6.127956e-05
  1.183500e-01    6.107218e-05
  1.186490e-01    6.114849e-05
  1.189479e-01    6.098661e-05
  1.192468e-01    6.090700e-05
  1.195458e-01    6.086895e-05
  1.198447e-01    6.047203e-05
  1.201436e-01    6.033590e-05
  1.204425e-01    5.955252e-05
  1.207415e-01    5.930934e-05
  1.210404e-01    5.952466e-05
  1.213393e-01    0.000000e+00
  1.216383e-01    0.000000e+00
  1.219372e-01    0.000000e+00
  1.222361e-01    0.000000e+00
  1.225351e-01    0.000000e+00
  1.228340e-01    0.000000e+00
  1.231329e-01    0.000000e+00
  1.234318e-01    0.000000e+00
  1.237308e-01    0.000000e+00
  1.240297e-01    0.000000e+00
  1.243286e-01    0.000000e+00
  1.246276e-01    0.000000e+00
  1.249265e-01    0.000000e+00
  1.252254e-01    0.000000e+00
  1.255244e-01    0.000000e+00
  1.258233e-01    0.000000e+00
  1.261222e-01    0.000000e+00
  1.264212e-01    0.000000e+00
  1.267201e-01    0.000000e+00
  1.270190e-01    0.000000e+00
  1.273179e-01    0.000000e+00
  1.276169e-01    0.000000e+00
  1.279158e-01    0.000000e+00
  1.282147e-01    0.000000e+00
  1.285137e-01    0.000000e+00
  1.288126e-01    0.000000e+00
  1.291115e-01    0.000000e+00
  1.294105e-01    0.000000e+00
  1.297094e-01    0.000000e+00
  1.300083e-01    0.000000e+00
  1.303072e-01    0.000000e+00
  1.306062e-01    0.000000e+00
  1.309051e-01    0.000000e+00
  1.312040e-01    0.000000e+00
  1.315030e-01    0.000000e+00
  1.318019e-01    0.000000e+00
  1.321008e-01    0.000000e+00
  1.323998e-01    0.000000e+00
  1.326987e-01    0.000000e+00
  1.329976e-01    0.000000e+00
  1.332965e-01    0.000000e+00
  1.335955e-01    0.000000e+00
  1.338944e-01    0.000000e+00
  1.341933e-01    0.000000e+00
  1.344923e-01    0.000000e+00
  1.347912e-01    0.000000e+00
  1.350901e-01    0.000000e+00
  1.353891e-01    0.000000e+00
  1.356880e-01    0.000000e+00
  1.359869e-01    0.000000e+00
  1.362859e-01    0.000000e+00
  1.365848e-01    0.000000e+00
  1.368837e-01    0.000000e+00
  1.371826e-01    0.000000e+00
  1.374816e-01    0.000000e+00
  1.377805e-01    0.000000e+00
  1.380794e-01    0.000000e+00
  1.383784e-01    0.000000e+00
  1.386773e-01    0.000000e+00
  1.389762e-01    0.000000e+00
  1.392752e-01    0.000000e+00
  1.395741e-01    0.000000e+00
  1.398730e-01    0.000000e+00
  1.401719e-01    0.000000e+00
  1.404709e-01    0.000000e+00
  1.407698e-01    0.000000e+00
  1.410687e-01    0.000000e+00
  1.413677e-01    0.000000e+00
  1.416666e-01    0.000000e+00
  1.419655e-01    0.000000e+00
  1.422645e-01    0.000000e+00
  1.425634e-01    0.000000e+00
  1.428623e-01    0.000000e+00
  1.431613e-01    0.000000e+00
  1.434602e-01    0.000000e+00
  1.437591e-01    0.000000e+00
  1.440580e-01    0.000000e+00
  1.443570e-01    0.000000e+00
  1.446559e-01    0.000000e+00
  1.449548e-01    0.000000e+00
  1.452538e-01    0.000000e+00
  1.455527e-01    0.000000e+00
  1.458516e-01    0.000000e+00
  1.461506e-01    0.000000e+00
  1.464495e-01    0.000000e+00
  1.467484e-01    0.000000e+00
  1.470473e-01    0.000000e+00
  1.473463e-01    0.000000e+00
  1.476452e-01    0.000000e+00
  1.479441e-01    0.000000e+00
  1.482431e-01    0.000000e+00
  1.485420e-01    0.000000e+00
  1.488409e-01    0.000000e+00
  1.491399e-01    0.000000e+00
  1.494388e-01    0.000000e+00
  1.497377e-01    0.000000e+00
  1.500367e-01    0.000000e+00
  1.503356e-01    0.000000e+00
  1.506345e-01    0.000000e+00
  1.509334e-01    0.000000e+00
  1.512324e-01    0.000000e+00
  1.515313e-01    0.000000e+00
  1.518302e-01    0.000000e+00
  1.521292e-01    0.000000e+00
  1.524281e-01    0.000000e+00
  1.527270e-01    0.000000e+00
  1.530260e-01    0.000000e+00
  1.533249e-01    0.000000e+00
  1.536238e-01    0.000000e+00
