# == pyFAI calibration ==
# Distance Sample to Detector: 2.266 m
# PONI: 5.659e-02, 4.293e-02 m
# Rotations: 0.000000 0.000000 0.000000 rad
# 
# == Fit2d calibration ==
# Distance Sample-beamCenter: 2266.000 mm
# Center: x=249.594, y=329.012 pix
# Tilt: 0.000 deg  TiltPlanRot: 0.000 deg
# 
# Detector Pilatus 300k	 PixelSize= 1.720e-04, 1.720e-04 m
#    Detector has a mask: True 
#    Detector has a dark current: False 
#    detector has a flat field: False 
# 
# Wavelength: 1.27818e-10 m
# Mask applied: user provided
# Dark current applied: False
# Flat field applied: False
# Polarization factor: None
# Normalization factor: 8703682.8
# --> MT-AL_F127_220301_b00677f9-7a45-434a-84fd-8baf9d70ad60_2_r1d.csv
#        q_A^-1             I 
  4.457554e-03    1.994967e-03
  4.756484e-03    1.542329e-03
  5.055415e-03    1.074349e-03
  5.354345e-03    7.381120e-04
  5.653276e-03    5.606820e-04
  5.952206e-03    8.843369e-04
  6.251136e-03    8.096638e-04
  6.550067e-03    7.049976e-04
  6.848997e-03    6.003724e-04
  7.147927e-03    5.083666e-04
  7.446858e-03    4.349744e-04
  7.745788e-03    3.728528e-04
  8.044719e-03    3.208824e-04
  8.343649e-03    2.791421e-04
  8.642579e-03    2.437193e-04
  8.941510e-03    2.150827e-04
  9.240440e-03    1.908706e-04
  9.539371e-03    1.696481e-04
  9.838301e-03    1.509809e-04
  1.013723e-02    1.351046e-04
  1.043616e-02    1.213400e-04
  1.073509e-02    1.089593e-04
  1.103402e-02    9.884990e-05
  1.133295e-02    8.970115e-05
  1.163188e-02    8.154828e-05
  1.193081e-02    7.477921e-05
  1.222974e-02    6.879920e-05
  1.252867e-02    6.302098e-05
  1.282760e-02    5.815135e-05
  1.312654e-02    5.381709e-05
  1.342547e-02    4.972055e-05
  1.372440e-02    4.611179e-05
  1.402333e-02    4.296426e-05
  1.432226e-02    3.992873e-05
  1.462119e-02    3.708857e-05
  1.492012e-02    3.489763e-05
  1.521905e-02    3.280084e-05
  1.551798e-02    3.070571e-05
  1.581691e-02    2.877775e-05
  1.611584e-02    2.719018e-05
  1.641477e-02    2.561003e-05
  1.671370e-02    2.420802e-05
  1.701263e-02    2.296958e-05
  1.731156e-02    2.184875e-05
  1.761049e-02    2.071139e-05
  1.790942e-02    1.978148e-05
  1.820835e-02    1.885143e-05
  1.850728e-02    1.801611e-05
  1.880621e-02    1.725607e-05
  1.910514e-02    1.646957e-05
  1.940407e-02    1.583908e-05
  1.970300e-02    1.518174e-05
  2.000193e-02    1.465452e-05
  2.030086e-02    1.413321e-05
  2.059979e-02    1.354553e-05
  2.089873e-02    1.310659e-05
  2.119766e-02    1.281313e-05
  2.149659e-02    1.242287e-05
  2.179552e-02    1.203651e-05
  2.209445e-02    1.170128e-05
  2.239338e-02    1.132378e-05
  2.269231e-02    1.103886e-05
  2.299124e-02    1.071634e-05
  2.329017e-02    1.039250e-05
  2.358910e-02    1.014418e-05
  2.388803e-02    9.917781e-06
  2.418696e-02    9.694809e-06
  2.448589e-02    9.518297e-06
  2.478482e-02    9.319537e-06
  2.508375e-02    9.134382e-06
  2.538268e-02    8.953783e-06
  2.568161e-02    8.816792e-06
  2.598054e-02    8.662628e-06
  2.627947e-02    8.541765e-06
  2.657840e-02    8.413175e-06
  2.687733e-02    8.327187e-06
  2.717626e-02    8.226545e-06
  2.747519e-02    8.060469e-06
  2.777412e-02    7.876407e-06
  2.807305e-02    7.845796e-06
  2.837198e-02    7.763942e-06
  2.867092e-02    7.687761e-06
  2.896985e-02    7.609979e-06
  2.926878e-02    7.479915e-06
  2.956771e-02    7.375703e-06
  2.986664e-02    7.308516e-06
  3.016557e-02    7.219719e-06
  3.046450e-02    7.153536e-06
  3.076343e-02    7.080496e-06
  3.106236e-02    6.997759e-06
  3.136129e-02    6.962769e-06
  3.166022e-02    6.933380e-06
  3.195915e-02    6.852315e-06
  3.225808e-02    6.757656e-06
  3.255701e-02    6.669343e-06
  3.285594e-02    6.604841e-06
  3.315487e-02    6.563644e-06
  3.345380e-02    6.481092e-06
  3.375273e-02    6.431331e-06
  3.405166e-02    6.393685e-06
  3.435059e-02    6.322783e-06
  3.464952e-02    6.256611e-06
  3.494845e-02    6.224454e-06
  3.524738e-02    6.161760e-06
  3.554631e-02    6.127472e-06
  3.584524e-02    6.082219e-06
  3.614417e-02    6.001103e-06
  3.644310e-02    5.906956e-06
  3.674204e-02    5.887725e-06
  3.704097e-02    5.849017e-06
  3.733990e-02    5.850281e-06
  3.763883e-02    5.768924e-06
  3.793776e-02    5.711745e-06
  3.823669e-02    5.649651e-06
  3.853562e-02    5.595633e-06
  3.883455e-02    5.559767e-06
  3.913348e-02    5.572482e-06
  3.943241e-02    5.538282e-06
  3.973134e-02    5.502617e-06
  4.003027e-02    5.454958e-06
  4.032920e-02    5.421697e-06
  4.062813e-02    5.421085e-06
  4.092706e-02    5.377070e-06
  4.122599e-02    5.320921e-06
  4.152492e-02    5.285749e-06
  4.182385e-02    5.314721e-06
  4.212278e-02    5.299483e-06
  4.242171e-02    5.281993e-06
  4.272064e-02    5.249251e-06
  4.301957e-02    5.195234e-06
  4.331850e-02    5.184551e-06
  4.361743e-02    5.197602e-06
  4.391636e-02    5.184006e-06
  4.421529e-02    5.145561e-06
  4.451423e-02    5.137873e-06
  4.481316e-02    5.151616e-06
  4.511209e-02    5.108239e-06
  4.541102e-02    5.082211e-06
  4.570995e-02    5.110250e-06
  4.600888e-02    5.121105e-06
  4.630781e-02    5.084190e-06
  4.660674e-02    5.098796e-06
  4.690567e-02    5.092372e-06
  4.720460e-02    5.085697e-06
  4.750353e-02    5.116364e-06
  4.780246e-02    5.092043e-06
  4.810139e-02    5.080344e-06
  4.840032e-02    5.064295e-06
  4.869925e-02    5.050603e-06
  4.899818e-02    5.049547e-06
  4.929711e-02    5.050150e-06
  4.959604e-02    5.022187e-06
  4.989497e-02    5.042618e-06
  5.019390e-02    5.064062e-06
  5.049283e-02    5.057388e-06
  5.079176e-02    5.055480e-06
  5.109069e-02    5.074453e-06
  5.138962e-02    5.128405e-06
  5.168855e-02    5.228515e-06
  5.198748e-02    5.292812e-06
  5.228642e-02    5.255271e-06
  5.258535e-02    5.132038e-06
  5.288428e-02    5.035434e-06
  5.318321e-02    5.000079e-06
  5.348214e-02    5.003672e-06
  5.378107e-02    4.986707e-06
  5.408000e-02    4.971781e-06
  5.437893e-02    5.003780e-06
  5.467786e-02    5.045702e-06
  5.497679e-02    5.058360e-06
  5.527572e-02    5.037346e-06
  5.557465e-02    5.041007e-06
  5.587358e-02    5.061148e-06
  5.617251e-02    5.066077e-06
  5.647144e-02    5.059303e-06
  5.677037e-02    5.055884e-06
  5.706930e-02    5.035011e-06
  5.736823e-02    5.026945e-06
  5.766716e-02    5.040656e-06
  5.796609e-02    5.061056e-06
  5.826502e-02    5.053632e-06
  5.856395e-02    5.027372e-06
  5.886288e-02    5.071083e-06
  5.916181e-02    5.058148e-06
  5.946074e-02    5.068317e-06
  5.975967e-02    5.090626e-06
  6.005861e-02    5.098091e-06
  6.035754e-02    5.126662e-06
  6.065647e-02    5.135432e-06
  6.095540e-02    5.181751e-06
  6.125433e-02    5.243623e-06
  6.155326e-02    5.278664e-06
  6.185219e-02    5.192368e-06
  6.215112e-02    5.164096e-06
  6.245005e-02    5.133791e-06
  6.274898e-02    5.152591e-06
  6.304791e-02    5.159616e-06
  6.334684e-02    5.166775e-06
  6.364577e-02    5.143161e-06
  6.394470e-02    5.149261e-06
  6.424363e-02    5.176153e-06
  6.454256e-02    5.195181e-06
  6.484149e-02    5.201228e-06
  6.514042e-02    5.202860e-06
  6.543935e-02    5.191650e-06
  6.573828e-02    5.192032e-06
  6.603721e-02    5.209572e-06
  6.633614e-02    5.208460e-06
  6.663507e-02    5.223465e-06
  6.693400e-02    5.226409e-06
  6.723293e-02    5.234890e-06
  6.753186e-02    5.263009e-06
  6.783080e-02    5.285532e-06
  6.812973e-02    5.292200e-06
  6.842866e-02    5.288760e-06
  6.872759e-02    5.242463e-06
  6.902652e-02    5.290418e-06
  6.932545e-02    5.303037e-06
  6.962438e-02    5.298342e-06
  6.992331e-02    5.286034e-06
  7.022224e-02    5.302284e-06
  7.052117e-02    5.334039e-06
  7.082010e-02    5.379500e-06
  7.111903e-02    5.356778e-06
  7.141796e-02    5.338903e-06
  7.171689e-02    5.348364e-06
  7.201582e-02    5.358245e-06
  7.231475e-02    5.380102e-06
  7.261368e-02    5.377235e-06
  7.291261e-02    5.388100e-06
  7.321154e-02    5.371328e-06
  7.351047e-02    5.379775e-06
  7.380940e-02    5.412511e-06
  7.410833e-02    5.430479e-06
  7.440726e-02    5.402893e-06
  7.470619e-02    5.382945e-06
  7.500512e-02    5.400319e-06
  7.530405e-02    5.387123e-06
  7.560299e-02    5.396736e-06
  7.590192e-02    5.419227e-06
  7.620085e-02    5.417931e-06
  7.649978e-02    5.403916e-06
  7.679871e-02    5.446554e-06
  7.709764e-02    5.442612e-06
  7.739657e-02    5.408677e-06
  7.769550e-02    5.393158e-06
  7.799443e-02    5.421236e-06
  7.829336e-02    5.418799e-06
  7.859229e-02    5.414728e-06
  7.889122e-02    5.394898e-06
  7.919015e-02    5.419124e-06
  7.948908e-02    5.420184e-06
  7.978801e-02    5.387742e-06
  8.008694e-02    5.361472e-06
  8.038587e-02    5.380111e-06
  8.068480e-02    5.367775e-06
  8.098373e-02    5.375943e-06
  8.128266e-02    5.359827e-06
  8.158159e-02    5.349716e-06
  8.188052e-02    5.319577e-06
  8.217945e-02    5.347659e-06
  8.247838e-02    5.342921e-06
  8.277731e-02    5.308235e-06
  8.307624e-02    5.294658e-06
  8.337518e-02    5.315901e-06
  8.367411e-02    5.313446e-06
  8.397304e-02    5.311004e-06
  8.427197e-02    5.312042e-06
  8.457090e-02    5.324970e-06
  8.486983e-02    5.290154e-06
  8.516876e-02    5.278880e-06
  8.546769e-02    5.289533e-06
  8.576662e-02    5.266274e-06
  8.606555e-02    5.264766e-06
  8.636448e-02    5.258988e-06
  8.666341e-02    5.236293e-06
  8.696234e-02    5.222787e-06
  8.726127e-02    5.226338e-06
  8.756020e-02    5.191476e-06
  8.785913e-02    5.184950e-06
  8.815806e-02    5.183306e-06
  8.845699e-02    5.185251e-06
  8.875592e-02    5.184243e-06
  8.905485e-02    5.182151e-06
  8.935378e-02    5.137209e-06
  8.965271e-02    5.115543e-06
  8.995164e-02    5.108084e-06
  9.025057e-02    5.094082e-06
  9.054950e-02    5.114161e-06
  9.084843e-02    5.111412e-06
  9.114737e-02    5.092540e-06
  9.144630e-02    5.079522e-06
  9.174523e-02    5.051562e-06
  9.204416e-02    5.064833e-06
  9.234309e-02    5.062922e-06
  9.264202e-02    5.021556e-06
  9.294095e-02    5.020975e-06
  9.323988e-02    5.008315e-06
  9.353881e-02    5.022914e-06
  9.383774e-02    5.043793e-06
  9.413667e-02    5.012883e-06
  9.443560e-02    4.991779e-06
  9.473453e-02    4.970181e-06
  9.503346e-02    4.960260e-06
  9.533239e-02    4.973784e-06
  9.563132e-02    4.978171e-06
  9.593025e-02    4.991224e-06
  9.622918e-02    4.987919e-06
  9.652811e-02    4.988221e-06
  9.682704e-02    4.969293e-06
  9.712597e-02    4.982474e-06
  9.742490e-02    4.973213e-06
  9.772383e-02    4.944295e-06
  9.802276e-02    4.890306e-06
  9.832169e-02    4.852988e-06
  9.862062e-02    4.867293e-06
  9.891956e-02    4.863089e-06
  9.921849e-02    4.857326e-06
  9.951742e-02    4.857332e-06
  9.981635e-02    4.824994e-06
  1.001153e-01    4.824288e-06
  1.004142e-01    4.834888e-06
  1.007131e-01    4.807878e-06
  1.010121e-01    4.781376e-06
  1.013110e-01    4.776885e-06
  1.016099e-01    4.756288e-06
  1.019089e-01    4.761883e-06
  1.022078e-01    4.741727e-06
  1.025067e-01    4.709147e-06
  1.028057e-01    4.728210e-06
  1.031046e-01    4.722807e-06
  1.034035e-01    4.697356e-06
  1.037024e-01    4.682777e-06
  1.040014e-01    4.698020e-06
  1.043003e-01    4.701642e-06
  1.045992e-01    4.689721e-06
  1.048982e-01    4.684377e-06
  1.051971e-01    4.661747e-06
  1.054960e-01    4.633187e-06
  1.057950e-01    4.630861e-06
  1.060939e-01    4.638106e-06
  1.063928e-01    4.646745e-06
  1.066917e-01    4.627090e-06
  1.069907e-01    4.602874e-06
  1.072896e-01    4.581121e-06
  1.075885e-01    4.568811e-06
  1.078875e-01    4.563201e-06
  1.081864e-01    4.555885e-06
  1.084853e-01    4.568427e-06
  1.087843e-01    4.581331e-06
  1.090832e-01    4.573148e-06
  1.093821e-01    4.527683e-06
  1.096810e-01    4.508478e-06
  1.099800e-01    4.470019e-06
  1.102789e-01    4.437943e-06
  1.105778e-01    4.451567e-06
  1.108768e-01    4.471711e-06
  1.111757e-01    4.475909e-06
  1.114746e-01    4.440058e-06
  1.117736e-01    4.445544e-06
  1.120725e-01    4.455690e-06
  1.123714e-01    4.433477e-06
  1.126704e-01    4.425064e-06
  1.129693e-01    4.384714e-06
  1.132682e-01    4.319800e-06
  1.135671e-01    4.264046e-06
  1.138661e-01    4.266843e-06
  1.141650e-01    4.334462e-06
  1.144639e-01    4.342235e-06
  1.147629e-01    4.363962e-06
  1.150618e-01    4.388979e-06
  1.153607e-01    4.360811e-06
  1.156597e-01    4.313247e-06
  1.159586e-01    4.298315e-06
  1.162575e-01    4.319003e-06
  1.165564e-01    4.233324e-06
  1.168554e-01    4.266335e-06
  1.171543e-01    4.334465e-06
  1.174532e-01    4.286857e-06
  1.177522e-01    4.303488e-06
  1.180511e-01    4.294151e-06
  1.183500e-01    4.293956e-06
  1.186490e-01    4.284536e-06
  1.189479e-01    4.285722e-06
  1.192468e-01    4.240548e-06
  1.195458e-01    4.200435e-06
  1.198447e-01    4.223910e-06
  1.201436e-01    4.205240e-06
  1.204425e-01    4.158200e-06
  1.207415e-01    4.205455e-06
  1.210404e-01    4.484921e-06
  1.213393e-01    0.000000e+00
  1.216383e-01    0.000000e+00
  1.219372e-01    0.000000e+00
  1.222361e-01    0.000000e+00
  1.225351e-01    0.000000e+00
  1.228340e-01    0.000000e+00
  1.231329e-01    0.000000e+00
  1.234318e-01    0.000000e+00
  1.237308e-01    0.000000e+00
  1.240297e-01    0.000000e+00
  1.243286e-01    0.000000e+00
  1.246276e-01    0.000000e+00
  1.249265e-01    0.000000e+00
  1.252254e-01    0.000000e+00
  1.255244e-01    0.000000e+00
  1.258233e-01    0.000000e+00
  1.261222e-01    0.000000e+00
  1.264212e-01    0.000000e+00
  1.267201e-01    0.000000e+00
  1.270190e-01    0.000000e+00
  1.273179e-01    0.000000e+00
  1.276169e-01    0.000000e+00
  1.279158e-01    0.000000e+00
  1.282147e-01    0.000000e+00
  1.285137e-01    0.000000e+00
  1.288126e-01    0.000000e+00
  1.291115e-01    0.000000e+00
  1.294105e-01    0.000000e+00
  1.297094e-01    0.000000e+00
  1.300083e-01    0.000000e+00
  1.303072e-01    0.000000e+00
  1.306062e-01    0.000000e+00
  1.309051e-01    0.000000e+00
  1.312040e-01    0.000000e+00
  1.315030e-01    0.000000e+00
  1.318019e-01    0.000000e+00
  1.321008e-01    0.000000e+00
  1.323998e-01    0.000000e+00
  1.326987e-01    0.000000e+00
  1.329976e-01    0.000000e+00
  1.332965e-01    0.000000e+00
  1.335955e-01    0.000000e+00
  1.338944e-01    0.000000e+00
  1.341933e-01    0.000000e+00
  1.344923e-01    0.000000e+00
  1.347912e-01    0.000000e+00
  1.350901e-01    0.000000e+00
  1.353891e-01    0.000000e+00
  1.356880e-01    0.000000e+00
  1.359869e-01    0.000000e+00
  1.362859e-01    0.000000e+00
  1.365848e-01    0.000000e+00
  1.368837e-01    0.000000e+00
  1.371826e-01    0.000000e+00
  1.374816e-01    0.000000e+00
  1.377805e-01    0.000000e+00
  1.380794e-01    0.000000e+00
  1.383784e-01    0.000000e+00
  1.386773e-01    0.000000e+00
  1.389762e-01    0.000000e+00
  1.392752e-01    0.000000e+00
  1.395741e-01    0.000000e+00
  1.398730e-01    0.000000e+00
  1.401719e-01    0.000000e+00
  1.404709e-01    0.000000e+00
  1.407698e-01    0.000000e+00
  1.410687e-01    0.000000e+00
  1.413677e-01    0.000000e+00
  1.416666e-01    0.000000e+00
  1.419655e-01    0.000000e+00
  1.422645e-01    0.000000e+00
  1.425634e-01    0.000000e+00
  1.428623e-01    0.000000e+00
  1.431613e-01    0.000000e+00
  1.434602e-01    0.000000e+00
  1.437591e-01    0.000000e+00
  1.440580e-01    0.000000e+00
  1.443570e-01    0.000000e+00
  1.446559e-01    0.000000e+00
  1.449548e-01    0.000000e+00
  1.452538e-01    0.000000e+00
  1.455527e-01    0.000000e+00
  1.458516e-01    0.000000e+00
  1.461506e-01    0.000000e+00
  1.464495e-01    0.000000e+00
  1.467484e-01    0.000000e+00
  1.470473e-01    0.000000e+00
  1.473463e-01    0.000000e+00
  1.476452e-01    0.000000e+00
  1.479441e-01    0.000000e+00
  1.482431e-01    0.000000e+00
  1.485420e-01    0.000000e+00
  1.488409e-01    0.000000e+00
  1.491399e-01    0.000000e+00
  1.494388e-01    0.000000e+00
  1.497377e-01    0.000000e+00
  1.500367e-01    0.000000e+00
  1.503356e-01    0.000000e+00
  1.506345e-01    0.000000e+00
  1.509334e-01    0.000000e+00
  1.512324e-01    0.000000e+00
  1.515313e-01    0.000000e+00
  1.518302e-01    0.000000e+00
  1.521292e-01    0.000000e+00
  1.524281e-01    0.000000e+00
  1.527270e-01    0.000000e+00
  1.530260e-01    0.000000e+00
  1.533249e-01    0.000000e+00
  1.536238e-01    0.000000e+00
