# == pyFAI calibration ==
# Distance Sample to Detector: 2.266 m
# PONI: 5.659e-02, 4.293e-02 m
# Rotations: 0.000000 0.000000 0.000000 rad
# 
# == Fit2d calibration ==
# Distance Sample-beamCenter: 2266.000 mm
# Center: x=249.594, y=329.012 pix
# Tilt: 0.000 deg  TiltPlanRot: 0.000 deg
# 
# Detector Pilatus 300k	 PixelSize= 1.720e-04, 1.720e-04 m
#    Detector has a mask: True 
#    Detector has a dark current: False 
#    detector has a flat field: False 
# 
# Wavelength: 1.27818e-10 m
# Mask applied: user provided
# Dark current applied: False
# Flat field applied: False
# Polarization factor: None
# Normalization factor: 31597.63
# --> MT-AL_DowExpt1_220227_f812d7ae-8ab3-4c3e-97ae-00e83f761321_2_r1d.csv
#        q_A^-1             I 
  4.457554e-03    5.250908e-02
  4.756484e-03    4.282195e-02
  5.055415e-03    3.139829e-02
  5.354345e-03    2.286354e-02
  5.653276e-03    1.841226e-02
  5.952206e-03    3.206565e-02
  6.251136e-03    2.954377e-02
  6.550067e-03    2.579828e-02
  6.848997e-03    2.194821e-02
  7.147927e-03    1.844849e-02
  7.446858e-03    1.568316e-02
  7.745788e-03    1.337355e-02
  8.044719e-03    1.146041e-02
  8.343649e-03    9.931310e-03
  8.642579e-03    8.658716e-03
  8.941510e-03    7.553188e-03
  9.240440e-03    6.628359e-03
  9.539371e-03    5.853599e-03
  9.838301e-03    5.243074e-03
  1.013723e-02    4.648748e-03
  1.043616e-02    4.148731e-03
  1.073509e-02    3.722687e-03
  1.103402e-02    3.362661e-03
  1.133295e-02    3.060825e-03
  1.163188e-02    2.749091e-03
  1.193081e-02    2.472552e-03
  1.222974e-02    2.272798e-03
  1.252867e-02    2.094894e-03
  1.282760e-02    1.909346e-03
  1.312654e-02    1.754585e-03
  1.342547e-02    1.600995e-03
  1.372440e-02    1.493402e-03
  1.402333e-02    1.396056e-03
  1.432226e-02    1.283643e-03
  1.462119e-02    1.186979e-03
  1.492012e-02    1.099717e-03
  1.521905e-02    1.021366e-03
  1.551798e-02    9.570499e-04
  1.581691e-02    8.855365e-04
  1.611584e-02    8.299990e-04
  1.641477e-02    7.878880e-04
  1.671370e-02    7.432477e-04
  1.701263e-02    6.963580e-04
  1.731156e-02    6.543416e-04
  1.761049e-02    6.174959e-04
  1.790942e-02    5.877435e-04
  1.820835e-02    5.527965e-04
  1.850728e-02    5.217560e-04
  1.880621e-02    4.979736e-04
  1.910514e-02    4.697333e-04
  1.940407e-02    4.420935e-04
  1.970300e-02    4.201645e-04
  2.000193e-02    4.004311e-04
  2.030086e-02    3.916995e-04
  2.059979e-02    3.696950e-04
  2.089873e-02    3.592526e-04
  2.119766e-02    3.415534e-04
  2.149659e-02    3.287653e-04
  2.179552e-02    3.094603e-04
  2.209445e-02    3.012278e-04
  2.239338e-02    2.906028e-04
  2.269231e-02    2.796941e-04
  2.299124e-02    2.708540e-04
  2.329017e-02    2.671706e-04
  2.358910e-02    2.566538e-04
  2.388803e-02    2.487074e-04
  2.418696e-02    2.461045e-04
  2.448589e-02    2.394404e-04
  2.478482e-02    2.303279e-04
  2.508375e-02    2.229185e-04
  2.538268e-02    2.220742e-04
  2.568161e-02    2.129082e-04
  2.598054e-02    2.058035e-04
  2.627947e-02    2.027096e-04
  2.657840e-02    1.959313e-04
  2.687733e-02    1.909040e-04
  2.717626e-02    1.869265e-04
  2.747519e-02    1.861800e-04
  2.777412e-02    1.862081e-04
  2.807305e-02    1.777740e-04
  2.837198e-02    1.740074e-04
  2.867092e-02    1.699598e-04
  2.896985e-02    1.712550e-04
  2.926878e-02    1.700010e-04
  2.956771e-02    1.651920e-04
  2.986664e-02    1.641206e-04
  3.016557e-02    1.650208e-04
  3.046450e-02    1.597850e-04
  3.076343e-02    1.556892e-04
  3.106236e-02    1.509315e-04
  3.136129e-02    1.467127e-04
  3.166022e-02    1.478289e-04
  3.195915e-02    1.476272e-04
  3.225808e-02    1.472836e-04
  3.255701e-02    1.426142e-04
  3.285594e-02    1.381099e-04
  3.315487e-02    1.375921e-04
  3.345380e-02    1.432187e-04
  3.375273e-02    1.377547e-04
  3.405166e-02    1.302514e-04
  3.435059e-02    1.325613e-04
  3.464952e-02    1.299946e-04
  3.494845e-02    1.276019e-04
  3.524738e-02    1.290147e-04
  3.554631e-02    1.287564e-04
  3.584524e-02    1.280916e-04
  3.614417e-02    1.236414e-04
  3.644310e-02    1.227217e-04
  3.674204e-02    1.208110e-04
  3.704097e-02    1.210731e-04
  3.733990e-02    1.204052e-04
  3.763883e-02    1.201957e-04
  3.793776e-02    1.230096e-04
  3.823669e-02    1.198575e-04
  3.853562e-02    1.182746e-04
  3.883455e-02    1.166270e-04
  3.913348e-02    1.135199e-04
  3.943241e-02    1.115067e-04
  3.973134e-02    1.119888e-04
  4.003027e-02    1.143622e-04
  4.032920e-02    1.153337e-04
  4.062813e-02    1.123348e-04
  4.092706e-02    1.091774e-04
  4.122599e-02    1.104382e-04
  4.152492e-02    1.098963e-04
  4.182385e-02    1.078617e-04
  4.212278e-02    1.080719e-04
  4.242171e-02    1.076831e-04
  4.272064e-02    1.090422e-04
  4.301957e-02    1.069227e-04
  4.331850e-02    1.055494e-04
  4.361743e-02    1.053723e-04
  4.391636e-02    1.046051e-04
  4.421529e-02    1.051003e-04
  4.451423e-02    1.066994e-04
  4.481316e-02    1.059750e-04
  4.511209e-02    1.066300e-04
  4.541102e-02    1.030042e-04
  4.570995e-02    1.034421e-04
  4.600888e-02    1.051842e-04
  4.630781e-02    1.076292e-04
  4.660674e-02    1.063208e-04
  4.690567e-02    1.049904e-04
  4.720460e-02    1.027259e-04
  4.750353e-02    1.046890e-04
  4.780246e-02    1.075357e-04
  4.810139e-02    1.064306e-04
  4.840032e-02    1.029429e-04
  4.869925e-02    1.037224e-04
  4.899818e-02    1.034353e-04
  4.929711e-02    1.021610e-04
  4.959604e-02    1.010380e-04
  4.989497e-02    1.015567e-04
  5.019390e-02    1.045167e-04
  5.049283e-02    1.065469e-04
  5.079176e-02    1.033043e-04
  5.109069e-02    1.015618e-04
  5.138962e-02    1.021376e-04
  5.168855e-02    1.069635e-04
  5.198748e-02    1.071216e-04
  5.228642e-02    1.054969e-04
  5.258535e-02    1.031909e-04
  5.288428e-02    1.021545e-04
  5.318321e-02    1.033942e-04
  5.348214e-02    1.029301e-04
  5.378107e-02    1.021183e-04
  5.408000e-02    1.028445e-04
  5.437893e-02    1.035541e-04
  5.467786e-02    1.041279e-04
  5.497679e-02    1.038232e-04
  5.527572e-02    1.022407e-04
  5.557465e-02    1.015850e-04
  5.587358e-02    1.030765e-04
  5.617251e-02    1.010339e-04
  5.647144e-02    1.012770e-04
  5.677037e-02    1.038178e-04
  5.706930e-02    1.024548e-04
  5.736823e-02    1.020515e-04
  5.766716e-02    1.031762e-04
  5.796609e-02    1.026321e-04
  5.826502e-02    1.007430e-04
  5.856395e-02    1.001602e-04
  5.886288e-02    1.002413e-04
  5.916181e-02    1.037152e-04
  5.946074e-02    1.043483e-04
  5.975967e-02    1.022545e-04
  6.005861e-02    1.029656e-04
  6.035754e-02    1.024745e-04
  6.065647e-02    1.076933e-04
  6.095540e-02    1.079526e-04
  6.125433e-02    1.069209e-04
  6.155326e-02    1.052655e-04
  6.185219e-02    1.046613e-04
  6.215112e-02    1.030027e-04
  6.245005e-02    1.025459e-04
  6.274898e-02    1.049972e-04
  6.304791e-02    1.066464e-04
  6.334684e-02    1.063107e-04
  6.364577e-02    1.059545e-04
  6.394470e-02    1.080262e-04
  6.424363e-02    1.051763e-04
  6.454256e-02    1.043623e-04
  6.484149e-02    1.057051e-04
  6.514042e-02    1.054655e-04
  6.543935e-02    1.061322e-04
  6.573828e-02    1.085372e-04
  6.603721e-02    1.100339e-04
  6.633614e-02    1.087065e-04
  6.663507e-02    1.070091e-04
  6.693400e-02    1.059234e-04
  6.723293e-02    1.081514e-04
  6.753186e-02    1.102872e-04
  6.783080e-02    1.088096e-04
  6.812973e-02    1.068900e-04
  6.842866e-02    1.071873e-04
  6.872759e-02    1.079272e-04
  6.902652e-02    1.074703e-04
  6.932545e-02    1.068733e-04
  6.962438e-02    1.087842e-04
  6.992331e-02    1.107654e-04
  7.022224e-02    1.090902e-04
  7.052117e-02    1.072785e-04
  7.082010e-02    1.087092e-04
  7.111903e-02    1.083722e-04
  7.141796e-02    1.078387e-04
  7.171689e-02    1.083112e-04
  7.201582e-02    1.096459e-04
  7.231475e-02    1.098793e-04
  7.261368e-02    1.074891e-04
  7.291261e-02    1.071521e-04
  7.321154e-02    1.107302e-04
  7.351047e-02    1.115130e-04
  7.380940e-02    1.122520e-04
  7.410833e-02    1.130453e-04
  7.440726e-02    1.111661e-04
  7.470619e-02    1.075863e-04
  7.500512e-02    1.082219e-04
  7.530405e-02    1.089534e-04
  7.560299e-02    1.110906e-04
  7.590192e-02    1.110795e-04
  7.620085e-02    1.091199e-04
  7.649978e-02    1.093292e-04
  7.679871e-02    1.082825e-04
  7.709764e-02    1.094452e-04
  7.739657e-02    1.098018e-04
  7.769550e-02    1.094266e-04
  7.799443e-02    1.075690e-04
  7.829336e-02    1.085094e-04
  7.859229e-02    1.076616e-04
  7.889122e-02    1.078178e-04
  7.919015e-02    1.083041e-04
  7.948908e-02    1.101073e-04
  7.978801e-02    1.096038e-04
  8.008694e-02    1.096230e-04
  8.038587e-02    1.068844e-04
  8.068480e-02    1.046750e-04
  8.098373e-02    1.050501e-04
  8.128266e-02    1.075769e-04
  8.158159e-02    1.076419e-04
  8.188052e-02    1.044265e-04
  8.217945e-02    1.069682e-04
  8.247838e-02    1.107766e-04
  8.277731e-02    1.113351e-04
  8.307624e-02    1.096223e-04
  8.337518e-02    1.076685e-04
  8.367411e-02    1.053320e-04
  8.397304e-02    1.046233e-04
  8.427197e-02    1.057020e-04
  8.457090e-02    1.049503e-04
  8.486983e-02    1.048734e-04
  8.516876e-02    1.056854e-04
  8.546769e-02    1.066734e-04
  8.576662e-02    1.068042e-04
  8.606555e-02    1.067112e-04
  8.636448e-02    1.043363e-04
  8.666341e-02    1.045235e-04
  8.696234e-02    1.062949e-04
  8.726127e-02    1.062458e-04
  8.756020e-02    1.082126e-04
  8.785913e-02    1.058250e-04
  8.815806e-02    1.033861e-04
  8.845699e-02    1.023471e-04
  8.875592e-02    1.033138e-04
  8.905485e-02    1.033197e-04
  8.935378e-02    1.025575e-04
  8.965271e-02    1.044515e-04
  8.995164e-02    1.025160e-04
  9.025057e-02    1.015284e-04
  9.054950e-02    1.016528e-04
  9.084843e-02    1.033720e-04
  9.114737e-02    1.020655e-04
  9.144630e-02    9.811394e-05
  9.174523e-02    9.952548e-05
  9.204416e-02    1.016220e-04
  9.234309e-02    1.026157e-04
  9.264202e-02    1.047979e-04
  9.294095e-02    1.008314e-04
  9.323988e-02    9.971108e-05
  9.353881e-02    1.000059e-04
  9.383774e-02    9.964056e-05
  9.413667e-02    9.959962e-05
  9.443560e-02    9.847448e-05
  9.473453e-02    9.711537e-05
  9.503346e-02    9.920923e-05
  9.533239e-02    1.013133e-04
  9.563132e-02    1.009207e-04
  9.593025e-02    1.000618e-04
  9.622918e-02    9.951993e-05
  9.652811e-02    9.841435e-05
  9.682704e-02    1.000749e-04
  9.712597e-02    1.001056e-04
  9.742490e-02    9.971049e-05
  9.772383e-02    9.783883e-05
  9.802276e-02    9.631187e-05
  9.832169e-02    9.731800e-05
  9.862062e-02    9.923683e-05
  9.891956e-02    1.000350e-04
  9.921849e-02    9.767933e-05
  9.951742e-02    9.687095e-05
  9.981635e-02    9.857965e-05
  1.001153e-01    9.802831e-05
  1.004142e-01    9.726323e-05
  1.007131e-01    9.476393e-05
  1.010121e-01    9.513061e-05
  1.013110e-01    9.542576e-05
  1.016099e-01    9.534448e-05
  1.019089e-01    9.308684e-05
  1.022078e-01    9.346879e-05
  1.025067e-01    9.328860e-05
  1.028057e-01    9.448068e-05
  1.031046e-01    9.474577e-05
  1.034035e-01    9.494110e-05
  1.037024e-01    9.599476e-05
  1.040014e-01    9.601788e-05
  1.043003e-01    9.304197e-05
  1.045992e-01    9.252602e-05
  1.048982e-01    9.278153e-05
  1.051971e-01    9.267565e-05
  1.054960e-01    9.396282e-05
  1.057950e-01    9.492187e-05
  1.060939e-01    9.557917e-05
  1.063928e-01    9.413535e-05
  1.066917e-01    9.242434e-05
  1.069907e-01    9.275122e-05
  1.072896e-01    8.825043e-05
  1.075885e-01    9.047143e-05
  1.078875e-01    9.322164e-05
  1.081864e-01    9.144057e-05
  1.084853e-01    9.087541e-05
  1.087843e-01    9.047135e-05
  1.090832e-01    9.095571e-05
  1.093821e-01    9.145089e-05
  1.096810e-01    9.087159e-05
  1.099800e-01    8.914556e-05
  1.102789e-01    9.063087e-05
  1.105778e-01    8.910407e-05
  1.108768e-01    8.646009e-05
  1.111757e-01    8.756826e-05
  1.114746e-01    8.785258e-05
  1.117736e-01    8.788735e-05
  1.120725e-01    8.967480e-05
  1.123714e-01    8.934661e-05
  1.126704e-01    8.899412e-05
  1.129693e-01    8.837358e-05
  1.132682e-01    8.615395e-05
  1.135671e-01    8.589216e-05
  1.138661e-01    8.531677e-05
  1.141650e-01    8.487027e-05
  1.144639e-01    8.678890e-05
  1.147629e-01    9.029166e-05
  1.150618e-01    8.796842e-05
  1.153607e-01    8.786877e-05
  1.156597e-01    8.919077e-05
  1.159586e-01    9.006561e-05
  1.162575e-01    8.680952e-05
  1.165564e-01    8.310474e-05
  1.168554e-01    8.468598e-05
  1.171543e-01    8.321305e-05
  1.174532e-01    8.139015e-05
  1.177522e-01    8.006861e-05
  1.180511e-01    8.103772e-05
  1.183500e-01    8.087533e-05
  1.186490e-01    8.205805e-05
  1.189479e-01    8.278747e-05
  1.192468e-01    7.759619e-05
  1.195458e-01    7.432621e-05
  1.198447e-01    8.003719e-05
  1.201436e-01    7.699969e-05
  1.204425e-01    7.358343e-05
  1.207415e-01    1.030498e-04
  1.210404e-01    1.900597e-04
  1.213393e-01    0.000000e+00
  1.216383e-01    0.000000e+00
  1.219372e-01    0.000000e+00
  1.222361e-01    0.000000e+00
  1.225351e-01    0.000000e+00
  1.228340e-01    0.000000e+00
  1.231329e-01    0.000000e+00
  1.234318e-01    0.000000e+00
  1.237308e-01    0.000000e+00
  1.240297e-01    0.000000e+00
  1.243286e-01    0.000000e+00
  1.246276e-01    0.000000e+00
  1.249265e-01    0.000000e+00
  1.252254e-01    0.000000e+00
  1.255244e-01    0.000000e+00
  1.258233e-01    0.000000e+00
  1.261222e-01    0.000000e+00
  1.264212e-01    0.000000e+00
  1.267201e-01    0.000000e+00
  1.270190e-01    0.000000e+00
  1.273179e-01    0.000000e+00
  1.276169e-01    0.000000e+00
  1.279158e-01    0.000000e+00
  1.282147e-01    0.000000e+00
  1.285137e-01    0.000000e+00
  1.288126e-01    0.000000e+00
  1.291115e-01    0.000000e+00
  1.294105e-01    0.000000e+00
  1.297094e-01    0.000000e+00
  1.300083e-01    0.000000e+00
  1.303072e-01    0.000000e+00
  1.306062e-01    0.000000e+00
  1.309051e-01    0.000000e+00
  1.312040e-01    0.000000e+00
  1.315030e-01    0.000000e+00
  1.318019e-01    0.000000e+00
  1.321008e-01    0.000000e+00
  1.323998e-01    0.000000e+00
  1.326987e-01    0.000000e+00
  1.329976e-01    0.000000e+00
  1.332965e-01    0.000000e+00
  1.335955e-01    0.000000e+00
  1.338944e-01    0.000000e+00
  1.341933e-01    0.000000e+00
  1.344923e-01    0.000000e+00
  1.347912e-01    0.000000e+00
  1.350901e-01    0.000000e+00
  1.353891e-01    0.000000e+00
  1.356880e-01    0.000000e+00
  1.359869e-01    0.000000e+00
  1.362859e-01    0.000000e+00
  1.365848e-01    0.000000e+00
  1.368837e-01    0.000000e+00
  1.371826e-01    0.000000e+00
  1.374816e-01    0.000000e+00
  1.377805e-01    0.000000e+00
  1.380794e-01    0.000000e+00
  1.383784e-01    0.000000e+00
  1.386773e-01    0.000000e+00
  1.389762e-01    0.000000e+00
  1.392752e-01    0.000000e+00
  1.395741e-01    0.000000e+00
  1.398730e-01    0.000000e+00
  1.401719e-01    0.000000e+00
  1.404709e-01    0.000000e+00
  1.407698e-01    0.000000e+00
  1.410687e-01    0.000000e+00
  1.413677e-01    0.000000e+00
  1.416666e-01    0.000000e+00
  1.419655e-01    0.000000e+00
  1.422645e-01    0.000000e+00
  1.425634e-01    0.000000e+00
  1.428623e-01    0.000000e+00
  1.431613e-01    0.000000e+00
  1.434602e-01    0.000000e+00
  1.437591e-01    0.000000e+00
  1.440580e-01    0.000000e+00
  1.443570e-01    0.000000e+00
  1.446559e-01    0.000000e+00
  1.449548e-01    0.000000e+00
  1.452538e-01    0.000000e+00
  1.455527e-01    0.000000e+00
  1.458516e-01    0.000000e+00
  1.461506e-01    0.000000e+00
  1.464495e-01    0.000000e+00
  1.467484e-01    0.000000e+00
  1.470473e-01    0.000000e+00
  1.473463e-01    0.000000e+00
  1.476452e-01    0.000000e+00
  1.479441e-01    0.000000e+00
  1.482431e-01    0.000000e+00
  1.485420e-01    0.000000e+00
  1.488409e-01    0.000000e+00
  1.491399e-01    0.000000e+00
  1.494388e-01    0.000000e+00
  1.497377e-01    0.000000e+00
  1.500367e-01    0.000000e+00
  1.503356e-01    0.000000e+00
  1.506345e-01    0.000000e+00
  1.509334e-01    0.000000e+00
  1.512324e-01    0.000000e+00
  1.515313e-01    0.000000e+00
  1.518302e-01    0.000000e+00
  1.521292e-01    0.000000e+00
  1.524281e-01    0.000000e+00
  1.527270e-01    0.000000e+00
  1.530260e-01    0.000000e+00
  1.533249e-01    0.000000e+00
  1.536238e-01    0.000000e+00
