# == pyFAI calibration ==
# Distance Sample to Detector: 2.266 m
# PONI: 5.659e-02, 4.293e-02 m
# Rotations: 0.000000 0.000000 0.000000 rad
# 
# == Fit2d calibration ==
# Distance Sample-beamCenter: 2266.000 mm
# Center: x=249.594, y=329.012 pix
# Tilt: 0.000 deg  TiltPlanRot: 0.000 deg
# 
# Detector Pilatus 300k	 PixelSize= 1.720e-04, 1.720e-04 m
#    Detector has a mask: True 
#    Detector has a dark current: False 
#    detector has a flat field: False 
# 
# Wavelength: 1.27818e-10 m
# Mask applied: user provided
# Dark current applied: False
# Flat field applied: False
# Polarization factor: None
# Normalization factor: 27449908.8
# --> MT-AL_F127_220301_19d91f89-8d36-4a06-9a4a-8378a2731e48_1_r1d.csv
#        q_A^-1             I 
  4.457554e-03    1.743320e-03
  4.756484e-03    1.380867e-03
  5.055415e-03    1.007935e-03
  5.354345e-03    7.261460e-04
  5.653276e-03    5.730331e-04
  5.952206e-03    9.224332e-04
  6.251136e-03    8.350436e-04
  6.550067e-03    7.172757e-04
  6.848997e-03    6.049176e-04
  7.147927e-03    5.105394e-04
  7.446858e-03    4.363215e-04
  7.745788e-03    3.752717e-04
  8.044719e-03    3.237505e-04
  8.343649e-03    2.826742e-04
  8.642579e-03    2.477008e-04
  8.941510e-03    2.184778e-04
  9.240440e-03    1.940576e-04
  9.539371e-03    1.722628e-04
  9.838301e-03    1.533030e-04
  1.013723e-02    1.378480e-04
  1.043616e-02    1.242242e-04
  1.073509e-02    1.117216e-04
  1.103402e-02    1.012065e-04
  1.133295e-02    9.210054e-05
  1.163188e-02    8.393631e-05
  1.193081e-02    7.677663e-05
  1.222974e-02    7.025811e-05
  1.252867e-02    6.463492e-05
  1.282760e-02    5.961665e-05
  1.312654e-02    5.486943e-05
  1.342547e-02    5.083515e-05
  1.372440e-02    4.715048e-05
  1.402333e-02    4.369424e-05
  1.432226e-02    4.071701e-05
  1.462119e-02    3.802933e-05
  1.492012e-02    3.555087e-05
  1.521905e-02    3.325102e-05
  1.551798e-02    3.122292e-05
  1.581691e-02    2.934317e-05
  1.611584e-02    2.758072e-05
  1.641477e-02    2.610863e-05
  1.671370e-02    2.462415e-05
  1.701263e-02    2.329790e-05
  1.731156e-02    2.213654e-05
  1.761049e-02    2.105602e-05
  1.790942e-02    2.008526e-05
  1.820835e-02    1.919222e-05
  1.850728e-02    1.827588e-05
  1.880621e-02    1.738399e-05
  1.910514e-02    1.663649e-05
  1.940407e-02    1.595412e-05
  1.970300e-02    1.526379e-05
  2.000193e-02    1.475900e-05
  2.030086e-02    1.420476e-05
  2.059979e-02    1.364277e-05
  2.089873e-02    1.317760e-05
  2.119766e-02    1.276195e-05
  2.149659e-02    1.235420e-05
  2.179552e-02    1.191452e-05
  2.209445e-02    1.157131e-05
  2.239338e-02    1.122094e-05
  2.269231e-02    1.087239e-05
  2.299124e-02    1.058103e-05
  2.329017e-02    1.031259e-05
  2.358910e-02    1.006830e-05
  2.388803e-02    9.821943e-06
  2.418696e-02    9.577542e-06
  2.448589e-02    9.372883e-06
  2.478482e-02    9.158865e-06
  2.508375e-02    8.997071e-06
  2.538268e-02    8.820715e-06
  2.568161e-02    8.630342e-06
  2.598054e-02    8.481854e-06
  2.627947e-02    8.330087e-06
  2.657840e-02    8.159646e-06
  2.687733e-02    8.013350e-06
  2.717626e-02    7.898072e-06
  2.747519e-02    7.769109e-06
  2.777412e-02    7.620490e-06
  2.807305e-02    7.540852e-06
  2.837198e-02    7.455148e-06
  2.867092e-02    7.334144e-06
  2.896985e-02    7.187070e-06
  2.926878e-02    7.139472e-06
  2.956771e-02    7.073320e-06
  2.986664e-02    6.998554e-06
  3.016557e-02    6.932475e-06
  3.046450e-02    6.820806e-06
  3.076343e-02    6.749322e-06
  3.106236e-02    6.688424e-06
  3.136129e-02    6.629136e-06
  3.166022e-02    6.567105e-06
  3.195915e-02    6.488272e-06
  3.225808e-02    6.417395e-06
  3.255701e-02    6.369046e-06
  3.285594e-02    6.302546e-06
  3.315487e-02    6.233154e-06
  3.345380e-02    6.183682e-06
  3.375273e-02    6.156291e-06
  3.405166e-02    6.107577e-06
  3.435059e-02    6.012369e-06
  3.464952e-02    5.944539e-06
  3.494845e-02    5.914410e-06
  3.524738e-02    5.883886e-06
  3.554631e-02    5.807222e-06
  3.584524e-02    5.756720e-06
  3.614417e-02    5.728273e-06
  3.644310e-02    5.707131e-06
  3.674204e-02    5.678553e-06
  3.704097e-02    5.632341e-06
  3.733990e-02    5.577469e-06
  3.763883e-02    5.522077e-06
  3.793776e-02    5.482957e-06
  3.823669e-02    5.460284e-06
  3.853562e-02    5.444621e-06
  3.883455e-02    5.387874e-06
  3.913348e-02    5.367842e-06
  3.943241e-02    5.355435e-06
  3.973134e-02    5.322061e-06
  4.003027e-02    5.286493e-06
  4.032920e-02    5.268701e-06
  4.062813e-02    5.238026e-06
  4.092706e-02    5.229005e-06
  4.122599e-02    5.216199e-06
  4.152492e-02    5.175046e-06
  4.182385e-02    5.161758e-06
  4.212278e-02    5.183986e-06
  4.242171e-02    5.153376e-06
  4.272064e-02    5.114282e-06
  4.301957e-02    5.112654e-06
  4.331850e-02    5.106614e-06
  4.361743e-02    5.083491e-06
  4.391636e-02    5.060411e-06
  4.421529e-02    5.041692e-06
  4.451423e-02    5.027498e-06
  4.481316e-02    5.048669e-06
  4.511209e-02    5.056565e-06
  4.541102e-02    5.047613e-06
  4.570995e-02    5.012671e-06
  4.600888e-02    4.994826e-06
  4.630781e-02    4.990549e-06
  4.660674e-02    4.976245e-06
  4.690567e-02    4.991225e-06
  4.720460e-02    4.991659e-06
  4.750353e-02    4.984542e-06
  4.780246e-02    4.984560e-06
  4.810139e-02    4.973993e-06
  4.840032e-02    4.963022e-06
  4.869925e-02    4.939882e-06
  4.899818e-02    4.941876e-06
  4.929711e-02    4.938772e-06
  4.959604e-02    4.948825e-06
  4.989497e-02    4.957186e-06
  5.019390e-02    4.954346e-06
  5.049283e-02    4.952786e-06
  5.079176e-02    4.958510e-06
  5.109069e-02    4.968753e-06
  5.138962e-02    4.989543e-06
  5.168855e-02    5.047650e-06
  5.198748e-02    5.110510e-06
  5.228642e-02    5.082540e-06
  5.258535e-02    4.984302e-06
  5.288428e-02    4.934549e-06
  5.318321e-02    4.959109e-06
  5.348214e-02    4.962519e-06
  5.378107e-02    4.950300e-06
  5.408000e-02    4.946590e-06
  5.437893e-02    4.954111e-06
  5.467786e-02    4.958413e-06
  5.497679e-02    4.957595e-06
  5.527572e-02    4.964697e-06
  5.557465e-02    4.966965e-06
  5.587358e-02    4.987173e-06
  5.617251e-02    4.994341e-06
  5.647144e-02    5.007524e-06
  5.677037e-02    4.990245e-06
  5.706930e-02    4.978599e-06
  5.736823e-02    5.003168e-06
  5.766716e-02    5.021531e-06
  5.796609e-02    5.022705e-06
  5.826502e-02    5.031690e-06
  5.856395e-02    5.025554e-06
  5.886288e-02    5.034771e-06
  5.916181e-02    5.036718e-06
  5.946074e-02    5.047158e-06
  5.975967e-02    5.045782e-06
  6.005861e-02    5.059463e-06
  6.035754e-02    5.077831e-06
  6.065647e-02    5.092199e-06
  6.095540e-02    5.120113e-06
  6.125433e-02    5.175196e-06
  6.155326e-02    5.190289e-06
  6.185219e-02    5.154307e-06
  6.215112e-02    5.133279e-06
  6.245005e-02    5.127654e-06
  6.274898e-02    5.133823e-06
  6.304791e-02    5.138178e-06
  6.334684e-02    5.136128e-06
  6.364577e-02    5.130742e-06
  6.394470e-02    5.145701e-06
  6.424363e-02    5.139490e-06
  6.454256e-02    5.156587e-06
  6.484149e-02    5.181177e-06
  6.514042e-02    5.176160e-06
  6.543935e-02    5.201924e-06
  6.573828e-02    5.213335e-06
  6.603721e-02    5.223027e-06
  6.633614e-02    5.223889e-06
  6.663507e-02    5.214443e-06
  6.693400e-02    5.221199e-06
  6.723293e-02    5.240426e-06
  6.753186e-02    5.249504e-06
  6.783080e-02    5.266973e-06
  6.812973e-02    5.271342e-06
  6.842866e-02    5.270549e-06
  6.872759e-02    5.281767e-06
  6.902652e-02    5.283948e-06
  6.932545e-02    5.302862e-06
  6.962438e-02    5.312356e-06
  6.992331e-02    5.309360e-06
  7.022224e-02    5.320313e-06
  7.052117e-02    5.317904e-06
  7.082010e-02    5.329378e-06
  7.111903e-02    5.337956e-06
  7.141796e-02    5.329292e-06
  7.171689e-02    5.342159e-06
  7.201582e-02    5.371348e-06
  7.231475e-02    5.366619e-06
  7.261368e-02    5.364469e-06
  7.291261e-02    5.380999e-06
  7.321154e-02    5.379984e-06
  7.351047e-02    5.388854e-06
  7.380940e-02    5.388278e-06
  7.410833e-02    5.387700e-06
  7.440726e-02    5.378121e-06
  7.470619e-02    5.371424e-06
  7.500512e-02    5.386681e-06
  7.530405e-02    5.397528e-06
  7.560299e-02    5.395544e-06
  7.590192e-02    5.393602e-06
  7.620085e-02    5.403324e-06
  7.649978e-02    5.412474e-06
  7.679871e-02    5.415903e-06
  7.709764e-02    5.414181e-06
  7.739657e-02    5.403728e-06
  7.769550e-02    5.388725e-06
  7.799443e-02    5.390638e-06
  7.829336e-02    5.400115e-06
  7.859229e-02    5.403214e-06
  7.889122e-02    5.393138e-06
  7.919015e-02    5.385796e-06
  7.948908e-02    5.396830e-06
  7.978801e-02    5.388916e-06
  8.008694e-02    5.377056e-06
  8.038587e-02    5.361030e-06
  8.068480e-02    5.359376e-06
  8.098373e-02    5.376051e-06
  8.128266e-02    5.387510e-06
  8.158159e-02    5.373918e-06
  8.188052e-02    5.378291e-06
  8.217945e-02    5.371669e-06
  8.247838e-02    5.352392e-06
  8.277731e-02    5.349338e-06
  8.307624e-02    5.359711e-06
  8.337518e-02    5.357126e-06
  8.367411e-02    5.349035e-06
  8.397304e-02    5.342556e-06
  8.427197e-02    5.316125e-06
  8.457090e-02    5.309231e-06
  8.486983e-02    5.315665e-06
  8.516876e-02    5.305978e-06
  8.546769e-02    5.298695e-06
  8.576662e-02    5.299198e-06
  8.606555e-02    5.293907e-06
  8.636448e-02    5.286209e-06
  8.666341e-02    5.256087e-06
  8.696234e-02    5.242179e-06
  8.726127e-02    5.251860e-06
  8.756020e-02    5.244806e-06
  8.785913e-02    5.254322e-06
  8.815806e-02    5.255966e-06
  8.845699e-02    5.229156e-06
  8.875592e-02    5.226078e-06
  8.905485e-02    5.221673e-06
  8.935378e-02    5.204577e-06
  8.965271e-02    5.180814e-06
  8.995164e-02    5.171749e-06
  9.025057e-02    5.177879e-06
  9.054950e-02    5.171957e-06
  9.084843e-02    5.159340e-06
  9.114737e-02    5.144059e-06
  9.144630e-02    5.121433e-06
  9.174523e-02    5.131421e-06
  9.204416e-02    5.125769e-06
  9.234309e-02    5.104659e-06
  9.264202e-02    5.087063e-06
  9.294095e-02    5.078641e-06
  9.323988e-02    5.076683e-06
  9.353881e-02    5.077119e-06
  9.383774e-02    5.066578e-06
  9.413667e-02    5.062833e-06
  9.443560e-02    5.050504e-06
  9.473453e-02    5.033207e-06
  9.503346e-02    5.020234e-06
  9.533239e-02    5.022974e-06
  9.563132e-02    5.016635e-06
  9.593025e-02    5.007516e-06
  9.622918e-02    4.997144e-06
  9.652811e-02    4.997779e-06
  9.682704e-02    5.023271e-06
  9.712597e-02    5.016980e-06
  9.742490e-02    5.007694e-06
  9.772383e-02    4.977554e-06
  9.802276e-02    4.955567e-06
  9.832169e-02    4.931330e-06
  9.862062e-02    4.909708e-06
  9.891956e-02    4.908678e-06
  9.921849e-02    4.892164e-06
  9.951742e-02    4.896649e-06
  9.981635e-02    4.884149e-06
  1.001153e-01    4.884672e-06
  1.004142e-01    4.869688e-06
  1.007131e-01    4.851561e-06
  1.010121e-01    4.846430e-06
  1.013110e-01    4.839411e-06
  1.016099e-01    4.824034e-06
  1.019089e-01    4.810715e-06
  1.022078e-01    4.802167e-06
  1.025067e-01    4.793827e-06
  1.028057e-01    4.793267e-06
  1.031046e-01    4.771242e-06
  1.034035e-01    4.745548e-06
  1.037024e-01    4.728581e-06
  1.040014e-01    4.737284e-06
  1.043003e-01    4.756556e-06
  1.045992e-01    4.754118e-06
  1.048982e-01    4.742268e-06
  1.051971e-01    4.716037e-06
  1.054960e-01    4.690197e-06
  1.057950e-01    4.676464e-06
  1.060939e-01    4.665137e-06
  1.063928e-01    4.661926e-06
  1.066917e-01    4.663243e-06
  1.069907e-01    4.653079e-06
  1.072896e-01    4.637096e-06
  1.075885e-01    4.622108e-06
  1.078875e-01    4.625480e-06
  1.081864e-01    4.614188e-06
  1.084853e-01    4.611280e-06
  1.087843e-01    4.605613e-06
  1.090832e-01    4.586280e-06
  1.093821e-01    4.574795e-06
  1.096810e-01    4.562603e-06
  1.099800e-01    4.553836e-06
  1.102789e-01    4.531842e-06
  1.105778e-01    4.521482e-06
  1.108768e-01    4.512205e-06
  1.111757e-01    4.497035e-06
  1.114746e-01    4.493022e-06
  1.117736e-01    4.488663e-06
  1.120725e-01    4.466859e-06
  1.123714e-01    4.455790e-06
  1.126704e-01    4.432554e-06
  1.129693e-01    4.401535e-06
  1.132682e-01    4.404187e-06
  1.135671e-01    4.414849e-06
  1.138661e-01    4.385327e-06
  1.141650e-01    4.365103e-06
  1.144639e-01    4.388503e-06
  1.147629e-01    4.414907e-06
  1.150618e-01    4.379529e-06
  1.153607e-01    4.358589e-06
  1.156597e-01    4.359601e-06
  1.159586e-01    4.345412e-06
  1.162575e-01    4.334854e-06
  1.165564e-01    4.340935e-06
  1.168554e-01    4.347083e-06
  1.171543e-01    4.368619e-06
  1.174532e-01    4.333740e-06
  1.177522e-01    4.300838e-06
  1.180511e-01    4.309365e-06
  1.183500e-01    4.335108e-06
  1.186490e-01    4.347117e-06
  1.189479e-01    4.332693e-06
  1.192468e-01    4.284870e-06
  1.195458e-01    4.290868e-06
  1.198447e-01    4.308149e-06
  1.201436e-01    4.298656e-06
  1.204425e-01    4.170668e-06
  1.207415e-01    3.896342e-06
  1.210404e-01    3.755689e-06
  1.213393e-01    0.000000e+00
  1.216383e-01    0.000000e+00
  1.219372e-01    0.000000e+00
  1.222361e-01    0.000000e+00
  1.225351e-01    0.000000e+00
  1.228340e-01    0.000000e+00
  1.231329e-01    0.000000e+00
  1.234318e-01    0.000000e+00
  1.237308e-01    0.000000e+00
  1.240297e-01    0.000000e+00
  1.243286e-01    0.000000e+00
  1.246276e-01    0.000000e+00
  1.249265e-01    0.000000e+00
  1.252254e-01    0.000000e+00
  1.255244e-01    0.000000e+00
  1.258233e-01    0.000000e+00
  1.261222e-01    0.000000e+00
  1.264212e-01    0.000000e+00
  1.267201e-01    0.000000e+00
  1.270190e-01    0.000000e+00
  1.273179e-01    0.000000e+00
  1.276169e-01    0.000000e+00
  1.279158e-01    0.000000e+00
  1.282147e-01    0.000000e+00
  1.285137e-01    0.000000e+00
  1.288126e-01    0.000000e+00
  1.291115e-01    0.000000e+00
  1.294105e-01    0.000000e+00
  1.297094e-01    0.000000e+00
  1.300083e-01    0.000000e+00
  1.303072e-01    0.000000e+00
  1.306062e-01    0.000000e+00
  1.309051e-01    0.000000e+00
  1.312040e-01    0.000000e+00
  1.315030e-01    0.000000e+00
  1.318019e-01    0.000000e+00
  1.321008e-01    0.000000e+00
  1.323998e-01    0.000000e+00
  1.326987e-01    0.000000e+00
  1.329976e-01    0.000000e+00
  1.332965e-01    0.000000e+00
  1.335955e-01    0.000000e+00
  1.338944e-01    0.000000e+00
  1.341933e-01    0.000000e+00
  1.344923e-01    0.000000e+00
  1.347912e-01    0.000000e+00
  1.350901e-01    0.000000e+00
  1.353891e-01    0.000000e+00
  1.356880e-01    0.000000e+00
  1.359869e-01    0.000000e+00
  1.362859e-01    0.000000e+00
  1.365848e-01    0.000000e+00
  1.368837e-01    0.000000e+00
  1.371826e-01    0.000000e+00
  1.374816e-01    0.000000e+00
  1.377805e-01    0.000000e+00
  1.380794e-01    0.000000e+00
  1.383784e-01    0.000000e+00
  1.386773e-01    0.000000e+00
  1.389762e-01    0.000000e+00
  1.392752e-01    0.000000e+00
  1.395741e-01    0.000000e+00
  1.398730e-01    0.000000e+00
  1.401719e-01    0.000000e+00
  1.404709e-01    0.000000e+00
  1.407698e-01    0.000000e+00
  1.410687e-01    0.000000e+00
  1.413677e-01    0.000000e+00
  1.416666e-01    0.000000e+00
  1.419655e-01    0.000000e+00
  1.422645e-01    0.000000e+00
  1.425634e-01    0.000000e+00
  1.428623e-01    0.000000e+00
  1.431613e-01    0.000000e+00
  1.434602e-01    0.000000e+00
  1.437591e-01    0.000000e+00
  1.440580e-01    0.000000e+00
  1.443570e-01    0.000000e+00
  1.446559e-01    0.000000e+00
  1.449548e-01    0.000000e+00
  1.452538e-01    0.000000e+00
  1.455527e-01    0.000000e+00
  1.458516e-01    0.000000e+00
  1.461506e-01    0.000000e+00
  1.464495e-01    0.000000e+00
  1.467484e-01    0.000000e+00
  1.470473e-01    0.000000e+00
  1.473463e-01    0.000000e+00
  1.476452e-01    0.000000e+00
  1.479441e-01    0.000000e+00
  1.482431e-01    0.000000e+00
  1.485420e-01    0.000000e+00
  1.488409e-01    0.000000e+00
  1.491399e-01    0.000000e+00
  1.494388e-01    0.000000e+00
  1.497377e-01    0.000000e+00
  1.500367e-01    0.000000e+00
  1.503356e-01    0.000000e+00
  1.506345e-01    0.000000e+00
  1.509334e-01    0.000000e+00
  1.512324e-01    0.000000e+00
  1.515313e-01    0.000000e+00
  1.518302e-01    0.000000e+00
  1.521292e-01    0.000000e+00
  1.524281e-01    0.000000e+00
  1.527270e-01    0.000000e+00
  1.530260e-01    0.000000e+00
  1.533249e-01    0.000000e+00
  1.536238e-01    0.000000e+00
