# == pyFAI calibration ==
# Distance Sample to Detector: 2.266 m
# PONI: 5.659e-02, 4.293e-02 m
# Rotations: 0.000000 0.000000 0.000000 rad
# 
# == Fit2d calibration ==
# Distance Sample-beamCenter: 2266.000 mm
# Center: x=249.594, y=329.012 pix
# Tilt: 0.000 deg  TiltPlanRot: 0.000 deg
# 
# Detector Pilatus 300k	 PixelSize= 1.720e-04, 1.720e-04 m
#    Detector has a mask: True 
#    Detector has a dark current: False 
#    detector has a flat field: False 
# 
# Wavelength: 1.27818e-10 m
# Mask applied: user provided
# Dark current applied: False
# Flat field applied: False
# Polarization factor: None
# Normalization factor: 4404265.8
# --> MT-AL_F127_220228_fa7a130c-fa58-4363-a1ae-726fba990db8_1_r1d.csv
#        q_A^-1             I 
  4.457554e-03    2.105476e-03
  4.756484e-03    1.645550e-03
  5.055415e-03    1.148636e-03
  5.354345e-03    7.881760e-04
  5.653276e-03    5.924226e-04
  5.952206e-03    9.317692e-04
  6.251136e-03    8.487581e-04
  6.550067e-03    7.408336e-04
  6.848997e-03    6.339839e-04
  7.147927e-03    5.366885e-04
  7.446858e-03    4.585060e-04
  7.745788e-03    3.920190e-04
  8.044719e-03    3.383040e-04
  8.343649e-03    2.961270e-04
  8.642579e-03    2.596408e-04
  8.941510e-03    2.279812e-04
  9.240440e-03    2.017435e-04
  9.539371e-03    1.799212e-04
  9.838301e-03    1.606091e-04
  1.013723e-02    1.434996e-04
  1.043616e-02    1.295416e-04
  1.073509e-02    1.160376e-04
  1.103402e-02    1.046563e-04
  1.133295e-02    9.500467e-05
  1.163188e-02    8.675923e-05
  1.193081e-02    7.925661e-05
  1.222974e-02    7.249160e-05
  1.252867e-02    6.683594e-05
  1.282760e-02    6.150141e-05
  1.312654e-02    5.641792e-05
  1.342547e-02    5.216159e-05
  1.372440e-02    4.860018e-05
  1.402333e-02    4.525012e-05
  1.432226e-02    4.201848e-05
  1.462119e-02    3.917929e-05
  1.492012e-02    3.653726e-05
  1.521905e-02    3.413966e-05
  1.551798e-02    3.226887e-05
  1.581691e-02    3.030382e-05
  1.611584e-02    2.844016e-05
  1.641477e-02    2.696114e-05
  1.671370e-02    2.556064e-05
  1.701263e-02    2.392185e-05
  1.731156e-02    2.271149e-05
  1.761049e-02    2.155241e-05
  1.790942e-02    2.050141e-05
  1.820835e-02    1.960431e-05
  1.850728e-02    1.867420e-05
  1.880621e-02    1.795401e-05
  1.910514e-02    1.723686e-05
  1.940407e-02    1.646860e-05
  1.970300e-02    1.581817e-05
  2.000193e-02    1.530499e-05
  2.030086e-02    1.465772e-05
  2.059979e-02    1.408875e-05
  2.089873e-02    1.369477e-05
  2.119766e-02    1.311090e-05
  2.149659e-02    1.263267e-05
  2.179552e-02    1.239387e-05
  2.209445e-02    1.202211e-05
  2.239338e-02    1.164388e-05
  2.269231e-02    1.142382e-05
  2.299124e-02    1.122962e-05
  2.329017e-02    1.082791e-05
  2.358910e-02    1.061756e-05
  2.388803e-02    1.034121e-05
  2.418696e-02    1.005991e-05
  2.448589e-02    9.817701e-06
  2.478482e-02    9.613938e-06
  2.508375e-02    9.441423e-06
  2.538268e-02    9.313275e-06
  2.568161e-02    9.096031e-06
  2.598054e-02    8.947984e-06
  2.627947e-02    8.869282e-06
  2.657840e-02    8.712214e-06
  2.687733e-02    8.491120e-06
  2.717626e-02    8.428245e-06
  2.747519e-02    8.283669e-06
  2.777412e-02    8.118996e-06
  2.807305e-02    8.102512e-06
  2.837198e-02    8.097983e-06
  2.867092e-02    7.997783e-06
  2.896985e-02    7.765016e-06
  2.926878e-02    7.627920e-06
  2.956771e-02    7.657281e-06
  2.986664e-02    7.617246e-06
  3.016557e-02    7.504918e-06
  3.046450e-02    7.459295e-06
  3.076343e-02    7.219585e-06
  3.106236e-02    7.182640e-06
  3.136129e-02    7.116171e-06
  3.166022e-02    7.021998e-06
  3.195915e-02    6.995204e-06
  3.225808e-02    6.947360e-06
  3.255701e-02    6.893442e-06
  3.285594e-02    6.774962e-06
  3.315487e-02    6.755009e-06
  3.345380e-02    6.664960e-06
  3.375273e-02    6.606870e-06
  3.405166e-02    6.609744e-06
  3.435059e-02    6.534875e-06
  3.464952e-02    6.433528e-06
  3.494845e-02    6.365900e-06
  3.524738e-02    6.286119e-06
  3.554631e-02    6.267652e-06
  3.584524e-02    6.159150e-06
  3.614417e-02    6.050561e-06
  3.644310e-02    6.027689e-06
  3.674204e-02    5.976096e-06
  3.704097e-02    5.940185e-06
  3.733990e-02    5.900415e-06
  3.763883e-02    5.861106e-06
  3.793776e-02    5.751259e-06
  3.823669e-02    5.685529e-06
  3.853562e-02    5.706691e-06
  3.883455e-02    5.639893e-06
  3.913348e-02    5.613615e-06
  3.943241e-02    5.598126e-06
  3.973134e-02    5.534895e-06
  4.003027e-02    5.515119e-06
  4.032920e-02    5.469705e-06
  4.062813e-02    5.451078e-06
  4.092706e-02    5.426914e-06
  4.122599e-02    5.396010e-06
  4.152492e-02    5.368423e-06
  4.182385e-02    5.273783e-06
  4.212278e-02    5.263790e-06
  4.242171e-02    5.257274e-06
  4.272064e-02    5.263751e-06
  4.301957e-02    5.274866e-06
  4.331850e-02    5.214430e-06
  4.361743e-02    5.218633e-06
  4.391636e-02    5.206530e-06
  4.421529e-02    5.148767e-06
  4.451423e-02    5.166808e-06
  4.481316e-02    5.092490e-06
  4.511209e-02    5.106197e-06
  4.541102e-02    5.153754e-06
  4.570995e-02    5.127548e-06
  4.600888e-02    5.108538e-06
  4.630781e-02    5.132821e-06
  4.660674e-02    5.112135e-06
  4.690567e-02    5.107167e-06
  4.720460e-02    5.139119e-06
  4.750353e-02    5.113505e-06
  4.780246e-02    5.107129e-06
  4.810139e-02    5.105640e-06
  4.840032e-02    5.084662e-06
  4.869925e-02    5.021070e-06
  4.899818e-02    4.996395e-06
  4.929711e-02    5.021022e-06
  4.959604e-02    5.041508e-06
  4.989497e-02    5.070119e-06
  5.019390e-02    5.012780e-06
  5.049283e-02    4.987417e-06
  5.079176e-02    5.078872e-06
  5.109069e-02    5.065571e-06
  5.138962e-02    5.054329e-06
  5.168855e-02    5.210171e-06
  5.198748e-02    5.366184e-06
  5.228642e-02    5.301373e-06
  5.258535e-02    5.066096e-06
  5.288428e-02    4.990934e-06
  5.318321e-02    4.970515e-06
  5.348214e-02    4.970692e-06
  5.378107e-02    4.927757e-06
  5.408000e-02    4.966894e-06
  5.437893e-02    4.993798e-06
  5.467786e-02    4.989421e-06
  5.497679e-02    4.955114e-06
  5.527572e-02    4.965708e-06
  5.557465e-02    4.985538e-06
  5.587358e-02    4.981167e-06
  5.617251e-02    5.031129e-06
  5.647144e-02    4.967980e-06
  5.677037e-02    4.934182e-06
  5.706930e-02    4.985593e-06
  5.736823e-02    5.017258e-06
  5.766716e-02    5.008469e-06
  5.796609e-02    5.013162e-06
  5.826502e-02    4.968239e-06
  5.856395e-02    4.942373e-06
  5.886288e-02    4.951856e-06
  5.916181e-02    4.966211e-06
  5.946074e-02    5.001334e-06
  5.975967e-02    5.014147e-06
  6.005861e-02    5.025209e-06
  6.035754e-02    5.050749e-06
  6.065647e-02    5.072483e-06
  6.095540e-02    5.104138e-06
  6.125433e-02    5.224117e-06
  6.155326e-02    5.270316e-06
  6.185219e-02    5.158570e-06
  6.215112e-02    5.078356e-06
  6.245005e-02    5.091235e-06
  6.274898e-02    5.060715e-06
  6.304791e-02    5.051475e-06
  6.334684e-02    5.068832e-06
  6.364577e-02    5.087759e-06
  6.394470e-02    5.120256e-06
  6.424363e-02    5.178097e-06
  6.454256e-02    5.153122e-06
  6.484149e-02    5.111532e-06
  6.514042e-02    5.111413e-06
  6.543935e-02    5.148629e-06
  6.573828e-02    5.132767e-06
  6.603721e-02    5.122542e-06
  6.633614e-02    5.126013e-06
  6.663507e-02    5.146413e-06
  6.693400e-02    5.183821e-06
  6.723293e-02    5.202574e-06
  6.753186e-02    5.176742e-06
  6.783080e-02    5.193694e-06
  6.812973e-02    5.149216e-06
  6.842866e-02    5.106081e-06
  6.872759e-02    5.155643e-06
  6.902652e-02    5.188783e-06
  6.932545e-02    5.233652e-06
  6.962438e-02    5.231082e-06
  6.992331e-02    5.208806e-06
  7.022224e-02    5.209312e-06
  7.052117e-02    5.229096e-06
  7.082010e-02    5.217236e-06
  7.111903e-02    5.215355e-06
  7.141796e-02    5.268493e-06
  7.171689e-02    5.306310e-06
  7.201582e-02    5.282553e-06
  7.231475e-02    5.292654e-06
  7.261368e-02    5.291018e-06
  7.291261e-02    5.285749e-06
  7.321154e-02    5.252899e-06
  7.351047e-02    5.244663e-06
  7.380940e-02    5.244236e-06
  7.410833e-02    5.260577e-06
  7.440726e-02    5.256779e-06
  7.470619e-02    5.216783e-06
  7.500512e-02    5.217643e-06
  7.530405e-02    5.255451e-06
  7.560299e-02    5.277230e-06
  7.590192e-02    5.274981e-06
  7.620085e-02    5.250758e-06
  7.649978e-02    5.248819e-06
  7.679871e-02    5.253800e-06
  7.709764e-02    5.261824e-06
  7.739657e-02    5.246028e-06
  7.769550e-02    5.281389e-06
  7.799443e-02    5.305492e-06
  7.829336e-02    5.273473e-06
  7.859229e-02    5.245223e-06
  7.889122e-02    5.227307e-06
  7.919015e-02    5.254024e-06
  7.948908e-02    5.246766e-06
  7.978801e-02    5.247008e-06
  8.008694e-02    5.256801e-06
  8.038587e-02    5.267707e-06
  8.068480e-02    5.248732e-06
  8.098373e-02    5.275388e-06
  8.128266e-02    5.259857e-06
  8.158159e-02    5.162186e-06
  8.188052e-02    5.151591e-06
  8.217945e-02    5.194501e-06
  8.247838e-02    5.186511e-06
  8.277731e-02    5.175863e-06
  8.307624e-02    5.135435e-06
  8.337518e-02    5.148587e-06
  8.367411e-02    5.157795e-06
  8.397304e-02    5.131291e-06
  8.427197e-02    5.140562e-06
  8.457090e-02    5.124481e-06
  8.486983e-02    5.108774e-06
  8.516876e-02    5.071876e-06
  8.546769e-02    5.038879e-06
  8.576662e-02    5.064742e-06
  8.606555e-02    5.102565e-06
  8.636448e-02    5.099261e-06
  8.666341e-02    5.079616e-06
  8.696234e-02    5.070858e-06
  8.726127e-02    5.051892e-06
  8.756020e-02    5.081122e-06
  8.785913e-02    5.096580e-06
  8.815806e-02    5.041165e-06
  8.845699e-02    5.016275e-06
  8.875592e-02    5.039633e-06
  8.905485e-02    5.000678e-06
  8.935378e-02    4.970191e-06
  8.965271e-02    5.005456e-06
  8.995164e-02    4.994713e-06
  9.025057e-02    4.957710e-06
  9.054950e-02    4.959913e-06
  9.084843e-02    4.918331e-06
  9.114737e-02    4.912803e-06
  9.144630e-02    4.906340e-06
  9.174523e-02    4.921135e-06
  9.204416e-02    4.919505e-06
  9.234309e-02    4.874586e-06
  9.264202e-02    4.878011e-06
  9.294095e-02    4.877976e-06
  9.323988e-02    4.852737e-06
  9.353881e-02    4.832077e-06
  9.383774e-02    4.824850e-06
  9.413667e-02    4.817173e-06
  9.443560e-02    4.819237e-06
  9.473453e-02    4.788702e-06
  9.503346e-02    4.799235e-06
  9.533239e-02    4.828529e-06
  9.563132e-02    4.832555e-06
  9.593025e-02    4.849351e-06
  9.622918e-02    4.822502e-06
  9.652811e-02    4.808098e-06
  9.682704e-02    4.855874e-06
  9.712597e-02    4.880359e-06
  9.742490e-02    4.825561e-06
  9.772383e-02    4.806015e-06
  9.802276e-02    4.784195e-06
  9.832169e-02    4.747271e-06
  9.862062e-02    4.747422e-06
  9.891956e-02    4.727978e-06
  9.921849e-02    4.677017e-06
  9.951742e-02    4.660320e-06
  9.981635e-02    4.670785e-06
  1.001153e-01    4.672028e-06
  1.004142e-01    4.651351e-06
  1.007131e-01    4.656745e-06
  1.010121e-01    4.627153e-06
  1.013110e-01    4.641913e-06
  1.016099e-01    4.644786e-06
  1.019089e-01    4.587349e-06
  1.022078e-01    4.556851e-06
  1.025067e-01    4.582634e-06
  1.028057e-01    4.568976e-06
  1.031046e-01    4.574975e-06
  1.034035e-01    4.545404e-06
  1.037024e-01    4.549581e-06
  1.040014e-01    4.540978e-06
  1.043003e-01    4.515621e-06
  1.045992e-01    4.477261e-06
  1.048982e-01    4.498839e-06
  1.051971e-01    4.525798e-06
  1.054960e-01    4.502857e-06
  1.057950e-01    4.502607e-06
  1.060939e-01    4.530525e-06
  1.063928e-01    4.490369e-06
  1.066917e-01    4.435498e-06
  1.069907e-01    4.485356e-06
  1.072896e-01    4.501582e-06
  1.075885e-01    4.465497e-06
  1.078875e-01    4.431531e-06
  1.081864e-01    4.421044e-06
  1.084853e-01    4.466354e-06
  1.087843e-01    4.481229e-06
  1.090832e-01    4.438198e-06
  1.093821e-01    4.452253e-06
  1.096810e-01    4.422704e-06
  1.099800e-01    4.359041e-06
  1.102789e-01    4.356848e-06
  1.105778e-01    4.374656e-06
  1.108768e-01    4.372660e-06
  1.111757e-01    4.314213e-06
  1.114746e-01    4.310505e-06
  1.117736e-01    4.346857e-06
  1.120725e-01    4.339458e-06
  1.123714e-01    4.309897e-06
  1.126704e-01    4.301650e-06
  1.129693e-01    4.294422e-06
  1.132682e-01    4.265717e-06
  1.135671e-01    4.143481e-06
  1.138661e-01    4.189488e-06
  1.141650e-01    4.275466e-06
  1.144639e-01    4.231941e-06
  1.147629e-01    4.243029e-06
  1.150618e-01    4.195081e-06
  1.153607e-01    4.103713e-06
  1.156597e-01    4.092202e-06
  1.159586e-01    4.108522e-06
  1.162575e-01    4.191547e-06
  1.165564e-01    4.181619e-06
  1.168554e-01    4.180362e-06
  1.171543e-01    4.236002e-06
  1.174532e-01    4.141249e-06
  1.177522e-01    4.060831e-06
  1.180511e-01    4.127414e-06
  1.183500e-01    4.238648e-06
  1.186490e-01    4.309004e-06
  1.189479e-01    4.250232e-06
  1.192468e-01    4.146586e-06
  1.195458e-01    4.084294e-06
  1.198447e-01    4.034914e-06
  1.201436e-01    4.094332e-06
  1.204425e-01    4.231066e-06
  1.207415e-01    4.456268e-06
  1.210404e-01    5.226940e-06
  1.213393e-01    0.000000e+00
  1.216383e-01    0.000000e+00
  1.219372e-01    0.000000e+00
  1.222361e-01    0.000000e+00
  1.225351e-01    0.000000e+00
  1.228340e-01    0.000000e+00
  1.231329e-01    0.000000e+00
  1.234318e-01    0.000000e+00
  1.237308e-01    0.000000e+00
  1.240297e-01    0.000000e+00
  1.243286e-01    0.000000e+00
  1.246276e-01    0.000000e+00
  1.249265e-01    0.000000e+00
  1.252254e-01    0.000000e+00
  1.255244e-01    0.000000e+00
  1.258233e-01    0.000000e+00
  1.261222e-01    0.000000e+00
  1.264212e-01    0.000000e+00
  1.267201e-01    0.000000e+00
  1.270190e-01    0.000000e+00
  1.273179e-01    0.000000e+00
  1.276169e-01    0.000000e+00
  1.279158e-01    0.000000e+00
  1.282147e-01    0.000000e+00
  1.285137e-01    0.000000e+00
  1.288126e-01    0.000000e+00
  1.291115e-01    0.000000e+00
  1.294105e-01    0.000000e+00
  1.297094e-01    0.000000e+00
  1.300083e-01    0.000000e+00
  1.303072e-01    0.000000e+00
  1.306062e-01    0.000000e+00
  1.309051e-01    0.000000e+00
  1.312040e-01    0.000000e+00
  1.315030e-01    0.000000e+00
  1.318019e-01    0.000000e+00
  1.321008e-01    0.000000e+00
  1.323998e-01    0.000000e+00
  1.326987e-01    0.000000e+00
  1.329976e-01    0.000000e+00
  1.332965e-01    0.000000e+00
  1.335955e-01    0.000000e+00
  1.338944e-01    0.000000e+00
  1.341933e-01    0.000000e+00
  1.344923e-01    0.000000e+00
  1.347912e-01    0.000000e+00
  1.350901e-01    0.000000e+00
  1.353891e-01    0.000000e+00
  1.356880e-01    0.000000e+00
  1.359869e-01    0.000000e+00
  1.362859e-01    0.000000e+00
  1.365848e-01    0.000000e+00
  1.368837e-01    0.000000e+00
  1.371826e-01    0.000000e+00
  1.374816e-01    0.000000e+00
  1.377805e-01    0.000000e+00
  1.380794e-01    0.000000e+00
  1.383784e-01    0.000000e+00
  1.386773e-01    0.000000e+00
  1.389762e-01    0.000000e+00
  1.392752e-01    0.000000e+00
  1.395741e-01    0.000000e+00
  1.398730e-01    0.000000e+00
  1.401719e-01    0.000000e+00
  1.404709e-01    0.000000e+00
  1.407698e-01    0.000000e+00
  1.410687e-01    0.000000e+00
  1.413677e-01    0.000000e+00
  1.416666e-01    0.000000e+00
  1.419655e-01    0.000000e+00
  1.422645e-01    0.000000e+00
  1.425634e-01    0.000000e+00
  1.428623e-01    0.000000e+00
  1.431613e-01    0.000000e+00
  1.434602e-01    0.000000e+00
  1.437591e-01    0.000000e+00
  1.440580e-01    0.000000e+00
  1.443570e-01    0.000000e+00
  1.446559e-01    0.000000e+00
  1.449548e-01    0.000000e+00
  1.452538e-01    0.000000e+00
  1.455527e-01    0.000000e+00
  1.458516e-01    0.000000e+00
  1.461506e-01    0.000000e+00
  1.464495e-01    0.000000e+00
  1.467484e-01    0.000000e+00
  1.470473e-01    0.000000e+00
  1.473463e-01    0.000000e+00
  1.476452e-01    0.000000e+00
  1.479441e-01    0.000000e+00
  1.482431e-01    0.000000e+00
  1.485420e-01    0.000000e+00
  1.488409e-01    0.000000e+00
  1.491399e-01    0.000000e+00
  1.494388e-01    0.000000e+00
  1.497377e-01    0.000000e+00
  1.500367e-01    0.000000e+00
  1.503356e-01    0.000000e+00
  1.506345e-01    0.000000e+00
  1.509334e-01    0.000000e+00
  1.512324e-01    0.000000e+00
  1.515313e-01    0.000000e+00
  1.518302e-01    0.000000e+00
  1.521292e-01    0.000000e+00
  1.524281e-01    0.000000e+00
  1.527270e-01    0.000000e+00
  1.530260e-01    0.000000e+00
  1.533249e-01    0.000000e+00
  1.536238e-01    0.000000e+00
