# == pyFAI calibration ==
# Distance Sample to Detector: 2.266 m
# PONI: 5.659e-02, 4.293e-02 m
# Rotations: 0.000000 0.000000 0.000000 rad
# 
# == Fit2d calibration ==
# Distance Sample-beamCenter: 2266.000 mm
# Center: x=249.594, y=329.012 pix
# Tilt: 0.000 deg  TiltPlanRot: 0.000 deg
# 
# Detector Pilatus 300k	 PixelSize= 1.720e-04, 1.720e-04 m
#    Detector has a mask: True 
#    Detector has a dark current: False 
#    detector has a flat field: False 
# 
# Wavelength: 1.27818e-10 m
# Mask applied: user provided
# Dark current applied: False
# Flat field applied: False
# Polarization factor: None
# Normalization factor: 60023.41
# --> MT-AL_DowExpt1_220227_09b7223b-bd6e-4a1e-91ba-6007efd211f0_2_r1d.csv
#        q_A^-1             I 
  4.457554e-03    4.879084e-02
  4.756484e-03    4.006430e-02
  5.055415e-03    3.051522e-02
  5.354345e-03    2.281351e-02
  5.653276e-03    1.857409e-02
  5.952206e-03    3.113001e-02
  6.251136e-03    2.861018e-02
  6.550067e-03    2.492878e-02
  6.848997e-03    2.114365e-02
  7.147927e-03    1.788074e-02
  7.446858e-03    1.527944e-02
  7.745788e-03    1.305759e-02
  8.044719e-03    1.118548e-02
  8.343649e-03    9.747229e-03
  8.642579e-03    8.551127e-03
  8.941510e-03    7.492514e-03
  9.240440e-03    6.610825e-03
  9.539371e-03    5.868794e-03
  9.838301e-03    5.195042e-03
  1.013723e-02    4.629056e-03
  1.043616e-02    4.151454e-03
  1.073509e-02    3.724037e-03
  1.103402e-02    3.373085e-03
  1.133295e-02    3.026339e-03
  1.163188e-02    2.744454e-03
  1.193081e-02    2.495492e-03
  1.222974e-02    2.282150e-03
  1.252867e-02    2.084266e-03
  1.282760e-02    1.929925e-03
  1.312654e-02    1.774922e-03
  1.342547e-02    1.625903e-03
  1.372440e-02    1.498895e-03
  1.402333e-02    1.400356e-03
  1.432226e-02    1.300242e-03
  1.462119e-02    1.207592e-03
  1.492012e-02    1.120329e-03
  1.521905e-02    1.036491e-03
  1.551798e-02    9.640948e-04
  1.581691e-02    8.992653e-04
  1.611584e-02    8.427724e-04
  1.641477e-02    7.934707e-04
  1.671370e-02    7.397736e-04
  1.701263e-02    7.044209e-04
  1.731156e-02    6.667283e-04
  1.761049e-02    6.200218e-04
  1.790942e-02    5.922568e-04
  1.820835e-02    5.576779e-04
  1.850728e-02    5.311050e-04
  1.880621e-02    5.069239e-04
  1.910514e-02    4.799250e-04
  1.940407e-02    4.514662e-04
  1.970300e-02    4.315890e-04
  2.000193e-02    4.098465e-04
  2.030086e-02    3.905623e-04
  2.059979e-02    3.742400e-04
  2.089873e-02    3.611081e-04
  2.119766e-02    3.467331e-04
  2.149659e-02    3.317326e-04
  2.179552e-02    3.199824e-04
  2.209445e-02    3.108196e-04
  2.239338e-02    2.976583e-04
  2.269231e-02    2.847140e-04
  2.299124e-02    2.762667e-04
  2.329017e-02    2.679133e-04
  2.358910e-02    2.579680e-04
  2.388803e-02    2.504265e-04
  2.418696e-02    2.421339e-04
  2.448589e-02    2.372909e-04
  2.478482e-02    2.304681e-04
  2.508375e-02    2.261535e-04
  2.538268e-02    2.217760e-04
  2.568161e-02    2.129408e-04
  2.598054e-02    2.062647e-04
  2.627947e-02    1.995621e-04
  2.657840e-02    1.972511e-04
  2.687733e-02    1.923611e-04
  2.717626e-02    1.874420e-04
  2.747519e-02    1.822625e-04
  2.777412e-02    1.787385e-04
  2.807305e-02    1.789038e-04
  2.837198e-02    1.782998e-04
  2.867092e-02    1.728488e-04
  2.896985e-02    1.675809e-04
  2.926878e-02    1.634073e-04
  2.956771e-02    1.623387e-04
  2.986664e-02    1.609891e-04
  3.016557e-02    1.574604e-04
  3.046450e-02    1.573186e-04
  3.076343e-02    1.576043e-04
  3.106236e-02    1.500850e-04
  3.136129e-02    1.463961e-04
  3.166022e-02    1.460229e-04
  3.195915e-02    1.471416e-04
  3.225808e-02    1.453682e-04
  3.255701e-02    1.435637e-04
  3.285594e-02    1.404670e-04
  3.315487e-02    1.399296e-04
  3.345380e-02    1.359379e-04
  3.375273e-02    1.342802e-04
  3.405166e-02    1.333125e-04
  3.435059e-02    1.328473e-04
  3.464952e-02    1.299037e-04
  3.494845e-02    1.273303e-04
  3.524738e-02    1.252636e-04
  3.554631e-02    1.250950e-04
  3.584524e-02    1.238812e-04
  3.614417e-02    1.206967e-04
  3.644310e-02    1.234006e-04
  3.674204e-02    1.223460e-04
  3.704097e-02    1.213402e-04
  3.733990e-02    1.193926e-04
  3.763883e-02    1.165729e-04
  3.793776e-02    1.157693e-04
  3.823669e-02    1.155752e-04
  3.853562e-02    1.162649e-04
  3.883455e-02    1.162020e-04
  3.913348e-02    1.130257e-04
  3.943241e-02    1.121840e-04
  3.973134e-02    1.130458e-04
  4.003027e-02    1.126834e-04
  4.032920e-02    1.110985e-04
  4.062813e-02    1.089943e-04
  4.092706e-02    1.075313e-04
  4.122599e-02    1.076847e-04
  4.152492e-02    1.118524e-04
  4.182385e-02    1.080005e-04
  4.212278e-02    1.064017e-04
  4.242171e-02    1.070571e-04
  4.272064e-02    1.063669e-04
  4.301957e-02    1.060731e-04
  4.331850e-02    1.069214e-04
  4.361743e-02    1.049516e-04
  4.391636e-02    1.029304e-04
  4.421529e-02    1.050003e-04
  4.451423e-02    1.061264e-04
  4.481316e-02    1.040572e-04
  4.511209e-02    1.042138e-04
  4.541102e-02    1.034017e-04
  4.570995e-02    1.038964e-04
  4.600888e-02    1.036470e-04
  4.630781e-02    1.028908e-04
  4.660674e-02    1.022541e-04
  4.690567e-02    1.031055e-04
  4.720460e-02    1.041382e-04
  4.750353e-02    1.032690e-04
  4.780246e-02    1.024264e-04
  4.810139e-02    1.024736e-04
  4.840032e-02    1.014052e-04
  4.869925e-02    1.023520e-04
  4.899818e-02    1.018573e-04
  4.929711e-02    1.019457e-04
  4.959604e-02    1.036027e-04
  4.989497e-02    1.033181e-04
  5.019390e-02    1.023361e-04
  5.049283e-02    1.023697e-04
  5.079176e-02    1.022040e-04
  5.109069e-02    1.002095e-04
  5.138962e-02    1.036344e-04
  5.168855e-02    1.049635e-04
  5.198748e-02    1.043830e-04
  5.228642e-02    1.030253e-04
  5.258535e-02    1.022589e-04
  5.288428e-02    9.981841e-05
  5.318321e-02    1.009687e-04
  5.348214e-02    1.010907e-04
  5.378107e-02    1.023496e-04
  5.408000e-02    1.020458e-04
  5.437893e-02    1.042970e-04
  5.467786e-02    1.032374e-04
  5.497679e-02    1.005821e-04
  5.527572e-02    1.030500e-04
  5.557465e-02    1.032458e-04
  5.587358e-02    1.029219e-04
  5.617251e-02    1.028560e-04
  5.647144e-02    1.042409e-04
  5.677037e-02    1.040011e-04
  5.706930e-02    1.037507e-04
  5.736823e-02    1.020712e-04
  5.766716e-02    1.032402e-04
  5.796609e-02    1.038289e-04
  5.826502e-02    1.037709e-04
  5.856395e-02    1.031929e-04
  5.886288e-02    1.027482e-04
  5.916181e-02    1.024090e-04
  5.946074e-02    1.029150e-04
  5.975967e-02    1.033093e-04
  6.005861e-02    1.049489e-04
  6.035754e-02    1.065032e-04
  6.065647e-02    1.063184e-04
  6.095540e-02    1.053672e-04
  6.125433e-02    1.054698e-04
  6.155326e-02    1.050075e-04
  6.185219e-02    1.040585e-04
  6.215112e-02    1.044653e-04
  6.245005e-02    1.050505e-04
  6.274898e-02    1.054800e-04
  6.304791e-02    1.050190e-04
  6.334684e-02    1.059611e-04
  6.364577e-02    1.048447e-04
  6.394470e-02    1.045924e-04
  6.424363e-02    1.047156e-04
  6.454256e-02    1.058249e-04
  6.484149e-02    1.059640e-04
  6.514042e-02    1.040820e-04
  6.543935e-02    1.056880e-04
  6.573828e-02    1.068302e-04
  6.603721e-02    1.069732e-04
  6.633614e-02    1.071095e-04
  6.663507e-02    1.087233e-04
  6.693400e-02    1.086781e-04
  6.723293e-02    1.081485e-04
  6.753186e-02    1.082193e-04
  6.783080e-02    1.079672e-04
  6.812973e-02    1.089692e-04
  6.842866e-02    1.076922e-04
  6.872759e-02    1.067459e-04
  6.902652e-02    1.076694e-04
  6.932545e-02    1.101059e-04
  6.962438e-02    1.104568e-04
  6.992331e-02    1.097483e-04
  7.022224e-02    1.097829e-04
  7.052117e-02    1.090324e-04
  7.082010e-02    1.094407e-04
  7.111903e-02    1.108793e-04
  7.141796e-02    1.101579e-04
  7.171689e-02    1.086210e-04
  7.201582e-02    1.088809e-04
  7.231475e-02    1.101986e-04
  7.261368e-02    1.100431e-04
  7.291261e-02    1.095975e-04
  7.321154e-02    1.102056e-04
  7.351047e-02    1.098583e-04
  7.380940e-02    1.093715e-04
  7.410833e-02    1.092904e-04
  7.440726e-02    1.087809e-04
  7.470619e-02    1.094903e-04
  7.500512e-02    1.109583e-04
  7.530405e-02    1.115241e-04
  7.560299e-02    1.101695e-04
  7.590192e-02    1.080102e-04
  7.620085e-02    1.075411e-04
  7.649978e-02    1.098836e-04
  7.679871e-02    1.104956e-04
  7.709764e-02    1.102642e-04
  7.739657e-02    1.083450e-04
  7.769550e-02    1.093522e-04
  7.799443e-02    1.097490e-04
  7.829336e-02    1.097701e-04
  7.859229e-02    1.116145e-04
  7.889122e-02    1.106870e-04
  7.919015e-02    1.085370e-04
  7.948908e-02    1.092588e-04
  7.978801e-02    1.094258e-04
  8.008694e-02    1.101094e-04
  8.038587e-02    1.077541e-04
  8.068480e-02    1.065595e-04
  8.098373e-02    1.087412e-04
  8.128266e-02    1.087157e-04
  8.158159e-02    1.087474e-04
  8.188052e-02    1.091009e-04
  8.217945e-02    1.085866e-04
  8.247838e-02    1.076897e-04
  8.277731e-02    1.059063e-04
  8.307624e-02    1.061415e-04
  8.337518e-02    1.069611e-04
  8.367411e-02    1.067431e-04
  8.397304e-02    1.070891e-04
  8.427197e-02    1.069413e-04
  8.457090e-02    1.076227e-04
  8.486983e-02    1.075506e-04
  8.516876e-02    1.066584e-04
  8.546769e-02    1.067227e-04
  8.576662e-02    1.068912e-04
  8.606555e-02    1.070479e-04
  8.636448e-02    1.058639e-04
  8.666341e-02    1.065485e-04
  8.696234e-02    1.068541e-04
  8.726127e-02    1.069966e-04
  8.756020e-02    1.062187e-04
  8.785913e-02    1.061596e-04
  8.815806e-02    1.060406e-04
  8.845699e-02    1.044369e-04
  8.875592e-02    1.036123e-04
  8.905485e-02    1.038395e-04
  8.935378e-02    1.050803e-04
  8.965271e-02    1.042507e-04
  8.995164e-02    1.027779e-04
  9.025057e-02    1.034395e-04
  9.054950e-02    1.036876e-04
  9.084843e-02    1.025787e-04
  9.114737e-02    1.039242e-04
  9.144630e-02    1.040053e-04
  9.174523e-02    1.029464e-04
  9.204416e-02    1.019151e-04
  9.234309e-02    1.002093e-04
  9.264202e-02    1.008139e-04
  9.294095e-02    1.031648e-04
  9.323988e-02    1.038560e-04
  9.353881e-02    1.021784e-04
  9.383774e-02    1.012790e-04
  9.413667e-02    1.024824e-04
  9.443560e-02    1.019389e-04
  9.473453e-02    1.006486e-04
  9.503346e-02    9.900475e-05
  9.533239e-02    9.975996e-05
  9.563132e-02    1.004590e-04
  9.593025e-02    1.000058e-04
  9.622918e-02    9.958907e-05
  9.652811e-02    9.973336e-05
  9.682704e-02    9.939821e-05
  9.712597e-02    9.932707e-05
  9.742490e-02    9.883591e-05
  9.772383e-02    9.941503e-05
  9.802276e-02    9.807324e-05
  9.832169e-02    9.794896e-05
  9.862062e-02    9.852440e-05
  9.891956e-02    9.820086e-05
  9.921849e-02    9.912773e-05
  9.951742e-02    9.886721e-05
  9.981635e-02    9.717453e-05
  1.001153e-01    9.706914e-05
  1.004142e-01    9.774221e-05
  1.007131e-01    9.674233e-05
  1.010121e-01    9.607613e-05
  1.013110e-01    9.642351e-05
  1.016099e-01    9.702827e-05
  1.019089e-01    9.710834e-05
  1.022078e-01    9.616956e-05
  1.025067e-01    9.660489e-05
  1.028057e-01    9.690608e-05
  1.031046e-01    9.503216e-05
  1.034035e-01    9.509193e-05
  1.037024e-01    9.491288e-05
  1.040014e-01    9.437020e-05
  1.043003e-01    9.463811e-05
  1.045992e-01    9.561948e-05
  1.048982e-01    9.507591e-05
  1.051971e-01    9.552047e-05
  1.054960e-01    9.457016e-05
  1.057950e-01    9.355725e-05
  1.060939e-01    9.410820e-05
  1.063928e-01    9.374483e-05
  1.066917e-01    9.377173e-05
  1.069907e-01    9.368214e-05
  1.072896e-01    9.319418e-05
  1.075885e-01    9.264536e-05
  1.078875e-01    9.260125e-05
  1.081864e-01    9.239911e-05
  1.084853e-01    9.191474e-05
  1.087843e-01    9.151537e-05
  1.090832e-01    9.141910e-05
  1.093821e-01    9.223093e-05
  1.096810e-01    9.204791e-05
  1.099800e-01    9.118338e-05
  1.102789e-01    8.965730e-05
  1.105778e-01    9.071369e-05
  1.108768e-01    9.132618e-05
  1.111757e-01    9.090955e-05
  1.114746e-01    9.063080e-05
  1.117736e-01    8.999667e-05
  1.120725e-01    8.857029e-05
  1.123714e-01    8.756369e-05
  1.126704e-01    8.931863e-05
  1.129693e-01    8.957035e-05
  1.132682e-01    8.842064e-05
  1.135671e-01    8.714187e-05
  1.138661e-01    8.888076e-05
  1.141650e-01    9.082768e-05
  1.144639e-01    8.962309e-05
  1.147629e-01    8.912324e-05
  1.150618e-01    8.746367e-05
  1.153607e-01    8.884694e-05
  1.156597e-01    9.153341e-05
  1.159586e-01    8.932379e-05
  1.162575e-01    8.595170e-05
  1.165564e-01    8.432640e-05
  1.168554e-01    8.496351e-05
  1.171543e-01    8.555071e-05
  1.174532e-01    8.890188e-05
  1.177522e-01    9.006564e-05
  1.180511e-01    8.824737e-05
  1.183500e-01    8.437943e-05
  1.186490e-01    7.965909e-05
  1.189479e-01    8.001343e-05
  1.192468e-01    8.373215e-05
  1.195458e-01    8.460660e-05
  1.198447e-01    8.275085e-05
  1.201436e-01    8.153214e-05
  1.204425e-01    7.969186e-05
  1.207415e-01    8.014351e-05
  1.210404e-01    8.337629e-05
  1.213393e-01    0.000000e+00
  1.216383e-01    0.000000e+00
  1.219372e-01    0.000000e+00
  1.222361e-01    0.000000e+00
  1.225351e-01    0.000000e+00
  1.228340e-01    0.000000e+00
  1.231329e-01    0.000000e+00
  1.234318e-01    0.000000e+00
  1.237308e-01    0.000000e+00
  1.240297e-01    0.000000e+00
  1.243286e-01    0.000000e+00
  1.246276e-01    0.000000e+00
  1.249265e-01    0.000000e+00
  1.252254e-01    0.000000e+00
  1.255244e-01    0.000000e+00
  1.258233e-01    0.000000e+00
  1.261222e-01    0.000000e+00
  1.264212e-01    0.000000e+00
  1.267201e-01    0.000000e+00
  1.270190e-01    0.000000e+00
  1.273179e-01    0.000000e+00
  1.276169e-01    0.000000e+00
  1.279158e-01    0.000000e+00
  1.282147e-01    0.000000e+00
  1.285137e-01    0.000000e+00
  1.288126e-01    0.000000e+00
  1.291115e-01    0.000000e+00
  1.294105e-01    0.000000e+00
  1.297094e-01    0.000000e+00
  1.300083e-01    0.000000e+00
  1.303072e-01    0.000000e+00
  1.306062e-01    0.000000e+00
  1.309051e-01    0.000000e+00
  1.312040e-01    0.000000e+00
  1.315030e-01    0.000000e+00
  1.318019e-01    0.000000e+00
  1.321008e-01    0.000000e+00
  1.323998e-01    0.000000e+00
  1.326987e-01    0.000000e+00
  1.329976e-01    0.000000e+00
  1.332965e-01    0.000000e+00
  1.335955e-01    0.000000e+00
  1.338944e-01    0.000000e+00
  1.341933e-01    0.000000e+00
  1.344923e-01    0.000000e+00
  1.347912e-01    0.000000e+00
  1.350901e-01    0.000000e+00
  1.353891e-01    0.000000e+00
  1.356880e-01    0.000000e+00
  1.359869e-01    0.000000e+00
  1.362859e-01    0.000000e+00
  1.365848e-01    0.000000e+00
  1.368837e-01    0.000000e+00
  1.371826e-01    0.000000e+00
  1.374816e-01    0.000000e+00
  1.377805e-01    0.000000e+00
  1.380794e-01    0.000000e+00
  1.383784e-01    0.000000e+00
  1.386773e-01    0.000000e+00
  1.389762e-01    0.000000e+00
  1.392752e-01    0.000000e+00
  1.395741e-01    0.000000e+00
  1.398730e-01    0.000000e+00
  1.401719e-01    0.000000e+00
  1.404709e-01    0.000000e+00
  1.407698e-01    0.000000e+00
  1.410687e-01    0.000000e+00
  1.413677e-01    0.000000e+00
  1.416666e-01    0.000000e+00
  1.419655e-01    0.000000e+00
  1.422645e-01    0.000000e+00
  1.425634e-01    0.000000e+00
  1.428623e-01    0.000000e+00
  1.431613e-01    0.000000e+00
  1.434602e-01    0.000000e+00
  1.437591e-01    0.000000e+00
  1.440580e-01    0.000000e+00
  1.443570e-01    0.000000e+00
  1.446559e-01    0.000000e+00
  1.449548e-01    0.000000e+00
  1.452538e-01    0.000000e+00
  1.455527e-01    0.000000e+00
  1.458516e-01    0.000000e+00
  1.461506e-01    0.000000e+00
  1.464495e-01    0.000000e+00
  1.467484e-01    0.000000e+00
  1.470473e-01    0.000000e+00
  1.473463e-01    0.000000e+00
  1.476452e-01    0.000000e+00
  1.479441e-01    0.000000e+00
  1.482431e-01    0.000000e+00
  1.485420e-01    0.000000e+00
  1.488409e-01    0.000000e+00
  1.491399e-01    0.000000e+00
  1.494388e-01    0.000000e+00
  1.497377e-01    0.000000e+00
  1.500367e-01    0.000000e+00
  1.503356e-01    0.000000e+00
  1.506345e-01    0.000000e+00
  1.509334e-01    0.000000e+00
  1.512324e-01    0.000000e+00
  1.515313e-01    0.000000e+00
  1.518302e-01    0.000000e+00
  1.521292e-01    0.000000e+00
  1.524281e-01    0.000000e+00
  1.527270e-01    0.000000e+00
  1.530260e-01    0.000000e+00
  1.533249e-01    0.000000e+00
  1.536238e-01    0.000000e+00
