# == pyFAI calibration ==
# Distance Sample to Detector: 2.266 m
# PONI: 5.659e-02, 4.293e-02 m
# Rotations: 0.000000 0.000000 0.000000 rad
# 
# == Fit2d calibration ==
# Distance Sample-beamCenter: 2266.000 mm
# Center: x=249.594, y=329.012 pix
# Tilt: 0.000 deg  TiltPlanRot: 0.000 deg
# 
# Detector Pilatus 300k	 PixelSize= 1.720e-04, 1.720e-04 m
#    Detector has a mask: True 
#    Detector has a dark current: False 
#    detector has a flat field: False 
# 
# Wavelength: 1.27818e-10 m
# Mask applied: user provided
# Dark current applied: False
# Flat field applied: False
# Polarization factor: None
# Normalization factor: 6073456.8
# --> MT-AL_F127_220301_ecbc2c36-173d-427d-8625-2ff89e238e0f_0_r1d.csv
#        q_A^-1             I 
  4.457554e-03    8.344281e-03
  4.756484e-03    6.654237e-03
  5.055415e-03    4.908476e-03
  5.354345e-03    3.597784e-03
  5.653276e-03    2.881972e-03
  5.952206e-03    4.712382e-03
  6.251136e-03    4.251138e-03
  6.550067e-03    3.632660e-03
  6.848997e-03    3.040556e-03
  7.147927e-03    2.555286e-03
  7.446858e-03    2.182425e-03
  7.745788e-03    1.875246e-03
  8.044719e-03    1.619387e-03
  8.343649e-03    1.417280e-03
  8.642579e-03    1.240643e-03
  8.941510e-03    1.094177e-03
  9.240440e-03    9.716281e-04
  9.539371e-03    8.637022e-04
  9.838301e-03    7.692327e-04
  1.013723e-02    6.920919e-04
  1.043616e-02    6.238606e-04
  1.073509e-02    5.611631e-04
  1.103402e-02    5.086541e-04
  1.133295e-02    4.618877e-04
  1.163188e-02    4.211714e-04
  1.193081e-02    3.858026e-04
  1.222974e-02    3.529858e-04
  1.252867e-02    3.241626e-04
  1.282760e-02    2.989443e-04
  1.312654e-02    2.758136e-04
  1.342547e-02    2.556254e-04
  1.372440e-02    2.371046e-04
  1.402333e-02    2.200409e-04
  1.432226e-02    2.043419e-04
  1.462119e-02    1.907748e-04
  1.492012e-02    1.786144e-04
  1.521905e-02    1.673170e-04
  1.551798e-02    1.570436e-04
  1.581691e-02    1.477281e-04
  1.611584e-02    1.390761e-04
  1.641477e-02    1.314255e-04
  1.671370e-02    1.242417e-04
  1.701263e-02    1.176016e-04
  1.731156e-02    1.118374e-04
  1.761049e-02    1.062158e-04
  1.790942e-02    1.009800e-04
  1.820835e-02    9.630805e-05
  1.850728e-02    9.171431e-05
  1.880621e-02    8.778473e-05
  1.910514e-02    8.402133e-05
  1.940407e-02    8.043661e-05
  1.970300e-02    7.745229e-05
  2.000193e-02    7.465879e-05
  2.030086e-02    7.193850e-05
  2.059979e-02    6.918636e-05
  2.089873e-02    6.672088e-05
  2.119766e-02    6.460175e-05
  2.149659e-02    6.250096e-05
  2.179552e-02    6.034192e-05
  2.209445e-02    5.854150e-05
  2.239338e-02    5.702730e-05
  2.269231e-02    5.543422e-05
  2.299124e-02    5.410317e-05
  2.329017e-02    5.238568e-05
  2.358910e-02    5.086973e-05
  2.388803e-02    4.975521e-05
  2.418696e-02    4.866247e-05
  2.448589e-02    4.777019e-05
  2.478482e-02    4.663906e-05
  2.508375e-02    4.553040e-05
  2.538268e-02    4.452610e-05
  2.568161e-02    4.375441e-05
  2.598054e-02    4.300166e-05
  2.627947e-02    4.216092e-05
  2.657840e-02    4.141930e-05
  2.687733e-02    4.069007e-05
  2.717626e-02    3.996212e-05
  2.747519e-02    3.934467e-05
  2.777412e-02    3.888576e-05
  2.807305e-02    3.842127e-05
  2.837198e-02    3.793385e-05
  2.867092e-02    3.729986e-05
  2.896985e-02    3.671561e-05
  2.926878e-02    3.635022e-05
  2.956771e-02    3.579929e-05
  2.986664e-02    3.523433e-05
  3.016557e-02    3.498883e-05
  3.046450e-02    3.472915e-05
  3.076343e-02    3.430750e-05
  3.106236e-02    3.395084e-05
  3.136129e-02    3.356249e-05
  3.166022e-02    3.313557e-05
  3.195915e-02    3.286493e-05
  3.225808e-02    3.249970e-05
  3.255701e-02    3.215101e-05
  3.285594e-02    3.189751e-05
  3.315487e-02    3.168769e-05
  3.345380e-02    3.137684e-05
  3.375273e-02    3.115891e-05
  3.405166e-02    3.089337e-05
  3.435059e-02    3.056873e-05
  3.464952e-02    3.030306e-05
  3.494845e-02    3.016600e-05
  3.524738e-02    2.988730e-05
  3.554631e-02    2.962465e-05
  3.584524e-02    2.940900e-05
  3.614417e-02    2.919319e-05
  3.644310e-02    2.907060e-05
  3.674204e-02    2.883663e-05
  3.704097e-02    2.848725e-05
  3.733990e-02    2.836579e-05
  3.763883e-02    2.826903e-05
  3.793776e-02    2.818288e-05
  3.823669e-02    2.798663e-05
  3.853562e-02    2.774877e-05
  3.883455e-02    2.757498e-05
  3.913348e-02    2.748990e-05
  3.943241e-02    2.739385e-05
  3.973134e-02    2.718428e-05
  4.003027e-02    2.699100e-05
  4.032920e-02    2.688473e-05
  4.062813e-02    2.685750e-05
  4.092706e-02    2.673504e-05
  4.122599e-02    2.664470e-05
  4.152492e-02    2.643887e-05
  4.182385e-02    2.637980e-05
  4.212278e-02    2.632189e-05
  4.242171e-02    2.627586e-05
  4.272064e-02    2.617305e-05
  4.301957e-02    2.606096e-05
  4.331850e-02    2.599325e-05
  4.361743e-02    2.595017e-05
  4.391636e-02    2.600233e-05
  4.421529e-02    2.593137e-05
  4.451423e-02    2.591120e-05
  4.481316e-02    2.581080e-05
  4.511209e-02    2.571853e-05
  4.541102e-02    2.566478e-05
  4.570995e-02    2.565030e-05
  4.600888e-02    2.562924e-05
  4.630781e-02    2.559167e-05
  4.660674e-02    2.558095e-05
  4.690567e-02    2.557689e-05
  4.720460e-02    2.554507e-05
  4.750353e-02    2.553003e-05
  4.780246e-02    2.549662e-05
  4.810139e-02    2.552161e-05
  4.840032e-02    2.552788e-05
  4.869925e-02    2.542273e-05
  4.899818e-02    2.539890e-05
  4.929711e-02    2.542329e-05
  4.959604e-02    2.546653e-05
  4.989497e-02    2.546554e-05
  5.019390e-02    2.549841e-05
  5.049283e-02    2.552493e-05
  5.079176e-02    2.542638e-05
  5.109069e-02    2.543637e-05
  5.138962e-02    2.561510e-05
  5.168855e-02    2.588964e-05
  5.198748e-02    2.614873e-05
  5.228642e-02    2.598507e-05
  5.258535e-02    2.555361e-05
  5.288428e-02    2.543865e-05
  5.318321e-02    2.544575e-05
  5.348214e-02    2.544328e-05
  5.378107e-02    2.549134e-05
  5.408000e-02    2.547329e-05
  5.437893e-02    2.551060e-05
  5.467786e-02    2.548519e-05
  5.497679e-02    2.552254e-05
  5.527572e-02    2.552681e-05
  5.557465e-02    2.555357e-05
  5.587358e-02    2.553932e-05
  5.617251e-02    2.556640e-05
  5.647144e-02    2.559433e-05
  5.677037e-02    2.552302e-05
  5.706930e-02    2.561409e-05
  5.736823e-02    2.573986e-05
  5.766716e-02    2.576573e-05
  5.796609e-02    2.568297e-05
  5.826502e-02    2.569195e-05
  5.856395e-02    2.584405e-05
  5.886288e-02    2.592438e-05
  5.916181e-02    2.594427e-05
  5.946074e-02    2.595800e-05
  5.975967e-02    2.594988e-05
  6.005861e-02    2.601837e-05
  6.035754e-02    2.600355e-05
  6.065647e-02    2.607542e-05
  6.095540e-02    2.633600e-05
  6.125433e-02    2.650729e-05
  6.155326e-02    2.662701e-05
  6.185219e-02    2.645193e-05
  6.215112e-02    2.632333e-05
  6.245005e-02    2.629546e-05
  6.274898e-02    2.634518e-05
  6.304791e-02    2.633703e-05
  6.334684e-02    2.644860e-05
  6.364577e-02    2.637372e-05
  6.394470e-02    2.632527e-05
  6.424363e-02    2.646314e-05
  6.454256e-02    2.658619e-05
  6.484149e-02    2.663091e-05
  6.514042e-02    2.668477e-05
  6.543935e-02    2.667554e-05
  6.573828e-02    2.671273e-05
  6.603721e-02    2.672787e-05
  6.633614e-02    2.683639e-05
  6.663507e-02    2.689243e-05
  6.693400e-02    2.687215e-05
  6.723293e-02    2.691048e-05
  6.753186e-02    2.692422e-05
  6.783080e-02    2.696727e-05
  6.812973e-02    2.699019e-05
  6.842866e-02    2.702934e-05
  6.872759e-02    2.721042e-05
  6.902652e-02    2.719004e-05
  6.932545e-02    2.711575e-05
  6.962438e-02    2.722045e-05
  6.992331e-02    2.735582e-05
  7.022224e-02    2.731676e-05
  7.052117e-02    2.731685e-05
  7.082010e-02    2.739825e-05
  7.111903e-02    2.741927e-05
  7.141796e-02    2.746559e-05
  7.171689e-02    2.750346e-05
  7.201582e-02    2.752730e-05
  7.231475e-02    2.757609e-05
  7.261368e-02    2.763601e-05
  7.291261e-02    2.763156e-05
  7.321154e-02    2.757039e-05
  7.351047e-02    2.753562e-05
  7.380940e-02    2.764269e-05
  7.410833e-02    2.761447e-05
  7.440726e-02    2.759248e-05
  7.470619e-02    2.763113e-05
  7.500512e-02    2.771397e-05
  7.530405e-02    2.772958e-05
  7.560299e-02    2.765647e-05
  7.590192e-02    2.764999e-05
  7.620085e-02    2.764587e-05
  7.649978e-02    2.761704e-05
  7.679871e-02    2.760242e-05
  7.709764e-02    2.772847e-05
  7.739657e-02    2.780732e-05
  7.769550e-02    2.780798e-05
  7.799443e-02    2.774997e-05
  7.829336e-02    2.773092e-05
  7.859229e-02    2.772159e-05
  7.889122e-02    2.776824e-05
  7.919015e-02    2.773768e-05
  7.948908e-02    2.765388e-05
  7.978801e-02    2.764507e-05
  8.008694e-02    2.768900e-05
  8.038587e-02    2.762273e-05
  8.068480e-02    2.756796e-05
  8.098373e-02    2.761892e-05
  8.128266e-02    2.768896e-05
  8.158159e-02    2.756788e-05
  8.188052e-02    2.744088e-05
  8.217945e-02    2.752700e-05
  8.247838e-02    2.758169e-05
  8.277731e-02    2.747357e-05
  8.307624e-02    2.746331e-05
  8.337518e-02    2.750769e-05
  8.367411e-02    2.741623e-05
  8.397304e-02    2.738759e-05
  8.427197e-02    2.737963e-05
  8.457090e-02    2.728891e-05
  8.486983e-02    2.723536e-05
  8.516876e-02    2.728977e-05
  8.546769e-02    2.728345e-05
  8.576662e-02    2.721193e-05
  8.606555e-02    2.708765e-05
  8.636448e-02    2.705309e-05
  8.666341e-02    2.702237e-05
  8.696234e-02    2.704621e-05
  8.726127e-02    2.704415e-05
  8.756020e-02    2.702895e-05
  8.785913e-02    2.693130e-05
  8.815806e-02    2.686890e-05
  8.845699e-02    2.680193e-05
  8.875592e-02    2.675014e-05
  8.905485e-02    2.665482e-05
  8.935378e-02    2.669219e-05
  8.965271e-02    2.667257e-05
  8.995164e-02    2.656311e-05
  9.025057e-02    2.650373e-05
  9.054950e-02    2.652422e-05
  9.084843e-02    2.651495e-05
  9.114737e-02    2.644121e-05
  9.144630e-02    2.635006e-05
  9.174523e-02    2.637332e-05
  9.204416e-02    2.633612e-05
  9.234309e-02    2.626841e-05
  9.264202e-02    2.625619e-05
  9.294095e-02    2.620485e-05
  9.323988e-02    2.614329e-05
  9.353881e-02    2.604756e-05
  9.383774e-02    2.605977e-05
  9.413667e-02    2.598158e-05
  9.443560e-02    2.592191e-05
  9.473453e-02    2.586130e-05
  9.503346e-02    2.582552e-05
  9.533239e-02    2.587011e-05
  9.563132e-02    2.586040e-05
  9.593025e-02    2.579501e-05
  9.622918e-02    2.579575e-05
  9.652811e-02    2.588229e-05
  9.682704e-02    2.590981e-05
  9.712597e-02    2.581858e-05
  9.742490e-02    2.567319e-05
  9.772383e-02    2.562686e-05
  9.802276e-02    2.552144e-05
  9.832169e-02    2.536348e-05
  9.862062e-02    2.530170e-05
  9.891956e-02    2.533088e-05
  9.921849e-02    2.528384e-05
  9.951742e-02    2.520534e-05
  9.981635e-02    2.516474e-05
  1.001153e-01    2.514268e-05
  1.004142e-01    2.506837e-05
  1.007131e-01    2.497922e-05
  1.010121e-01    2.491577e-05
  1.013110e-01    2.495916e-05
  1.016099e-01    2.485990e-05
  1.019089e-01    2.473234e-05
  1.022078e-01    2.473594e-05
  1.025067e-01    2.467638e-05
  1.028057e-01    2.465587e-05
  1.031046e-01    2.464317e-05
  1.034035e-01    2.452896e-05
  1.037024e-01    2.445913e-05
  1.040014e-01    2.445253e-05
  1.043003e-01    2.437505e-05
  1.045992e-01    2.438081e-05
  1.048982e-01    2.442723e-05
  1.051971e-01    2.439715e-05
  1.054960e-01    2.434229e-05
  1.057950e-01    2.414216e-05
  1.060939e-01    2.408845e-05
  1.063928e-01    2.417777e-05
  1.066917e-01    2.399755e-05
  1.069907e-01    2.388754e-05
  1.072896e-01    2.388246e-05
  1.075885e-01    2.384914e-05
  1.078875e-01    2.380672e-05
  1.081864e-01    2.380255e-05
  1.084853e-01    2.385232e-05
  1.087843e-01    2.372077e-05
  1.090832e-01    2.362851e-05
  1.093821e-01    2.366176e-05
  1.096810e-01    2.358996e-05
  1.099800e-01    2.353452e-05
  1.102789e-01    2.342463e-05
  1.105778e-01    2.332053e-05
  1.108768e-01    2.320793e-05
  1.111757e-01    2.309320e-05
  1.114746e-01    2.306834e-05
  1.117736e-01    2.314081e-05
  1.120725e-01    2.308374e-05
  1.123714e-01    2.307084e-05
  1.126704e-01    2.303080e-05
  1.129693e-01    2.297488e-05
  1.132682e-01    2.288283e-05
  1.135671e-01    2.283794e-05
  1.138661e-01    2.277845e-05
  1.141650e-01    2.274557e-05
  1.144639e-01    2.265933e-05
  1.147629e-01    2.261724e-05
  1.150618e-01    2.259029e-05
  1.153607e-01    2.253267e-05
  1.156597e-01    2.251698e-05
  1.159586e-01    2.252856e-05
  1.162575e-01    2.243932e-05
  1.165564e-01    2.238610e-05
  1.168554e-01    2.242511e-05
  1.171543e-01    2.230319e-05
  1.174532e-01    2.245442e-05
  1.177522e-01    2.253930e-05
  1.180511e-01    2.240687e-05
  1.183500e-01    2.226112e-05
  1.186490e-01    2.225470e-05
  1.189479e-01    2.230185e-05
  1.192468e-01    2.209515e-05
  1.195458e-01    2.180205e-05
  1.198447e-01    2.167737e-05
  1.201436e-01    2.175895e-05
  1.204425e-01    2.175501e-05
  1.207415e-01    2.153420e-05
  1.210404e-01    2.010560e-05
  1.213393e-01    0.000000e+00
  1.216383e-01    0.000000e+00
  1.219372e-01    0.000000e+00
  1.222361e-01    0.000000e+00
  1.225351e-01    0.000000e+00
  1.228340e-01    0.000000e+00
  1.231329e-01    0.000000e+00
  1.234318e-01    0.000000e+00
  1.237308e-01    0.000000e+00
  1.240297e-01    0.000000e+00
  1.243286e-01    0.000000e+00
  1.246276e-01    0.000000e+00
  1.249265e-01    0.000000e+00
  1.252254e-01    0.000000e+00
  1.255244e-01    0.000000e+00
  1.258233e-01    0.000000e+00
  1.261222e-01    0.000000e+00
  1.264212e-01    0.000000e+00
  1.267201e-01    0.000000e+00
  1.270190e-01    0.000000e+00
  1.273179e-01    0.000000e+00
  1.276169e-01    0.000000e+00
  1.279158e-01    0.000000e+00
  1.282147e-01    0.000000e+00
  1.285137e-01    0.000000e+00
  1.288126e-01    0.000000e+00
  1.291115e-01    0.000000e+00
  1.294105e-01    0.000000e+00
  1.297094e-01    0.000000e+00
  1.300083e-01    0.000000e+00
  1.303072e-01    0.000000e+00
  1.306062e-01    0.000000e+00
  1.309051e-01    0.000000e+00
  1.312040e-01    0.000000e+00
  1.315030e-01    0.000000e+00
  1.318019e-01    0.000000e+00
  1.321008e-01    0.000000e+00
  1.323998e-01    0.000000e+00
  1.326987e-01    0.000000e+00
  1.329976e-01    0.000000e+00
  1.332965e-01    0.000000e+00
  1.335955e-01    0.000000e+00
  1.338944e-01    0.000000e+00
  1.341933e-01    0.000000e+00
  1.344923e-01    0.000000e+00
  1.347912e-01    0.000000e+00
  1.350901e-01    0.000000e+00
  1.353891e-01    0.000000e+00
  1.356880e-01    0.000000e+00
  1.359869e-01    0.000000e+00
  1.362859e-01    0.000000e+00
  1.365848e-01    0.000000e+00
  1.368837e-01    0.000000e+00
  1.371826e-01    0.000000e+00
  1.374816e-01    0.000000e+00
  1.377805e-01    0.000000e+00
  1.380794e-01    0.000000e+00
  1.383784e-01    0.000000e+00
  1.386773e-01    0.000000e+00
  1.389762e-01    0.000000e+00
  1.392752e-01    0.000000e+00
  1.395741e-01    0.000000e+00
  1.398730e-01    0.000000e+00
  1.401719e-01    0.000000e+00
  1.404709e-01    0.000000e+00
  1.407698e-01    0.000000e+00
  1.410687e-01    0.000000e+00
  1.413677e-01    0.000000e+00
  1.416666e-01    0.000000e+00
  1.419655e-01    0.000000e+00
  1.422645e-01    0.000000e+00
  1.425634e-01    0.000000e+00
  1.428623e-01    0.000000e+00
  1.431613e-01    0.000000e+00
  1.434602e-01    0.000000e+00
  1.437591e-01    0.000000e+00
  1.440580e-01    0.000000e+00
  1.443570e-01    0.000000e+00
  1.446559e-01    0.000000e+00
  1.449548e-01    0.000000e+00
  1.452538e-01    0.000000e+00
  1.455527e-01    0.000000e+00
  1.458516e-01    0.000000e+00
  1.461506e-01    0.000000e+00
  1.464495e-01    0.000000e+00
  1.467484e-01    0.000000e+00
  1.470473e-01    0.000000e+00
  1.473463e-01    0.000000e+00
  1.476452e-01    0.000000e+00
  1.479441e-01    0.000000e+00
  1.482431e-01    0.000000e+00
  1.485420e-01    0.000000e+00
  1.488409e-01    0.000000e+00
  1.491399e-01    0.000000e+00
  1.494388e-01    0.000000e+00
  1.497377e-01    0.000000e+00
  1.500367e-01    0.000000e+00
  1.503356e-01    0.000000e+00
  1.506345e-01    0.000000e+00
  1.509334e-01    0.000000e+00
  1.512324e-01    0.000000e+00
  1.515313e-01    0.000000e+00
  1.518302e-01    0.000000e+00
  1.521292e-01    0.000000e+00
  1.524281e-01    0.000000e+00
  1.527270e-01    0.000000e+00
  1.530260e-01    0.000000e+00
  1.533249e-01    0.000000e+00
  1.536238e-01    0.000000e+00
