# == pyFAI calibration ==
# Distance Sample to Detector: 2.266 m
# PONI: 5.659e-02, 4.293e-02 m
# Rotations: 0.000000 0.000000 0.000000 rad
# 
# == Fit2d calibration ==
# Distance Sample-beamCenter: 2266.000 mm
# Center: x=249.594, y=329.012 pix
# Tilt: 0.000 deg  TiltPlanRot: 0.000 deg
# 
# Detector Pilatus 300k	 PixelSize= 1.720e-04, 1.720e-04 m
#    Detector has a mask: True 
#    Detector has a dark current: False 
#    detector has a flat field: False 
# 
# Wavelength: 1.27818e-10 m
# Mask applied: user provided
# Dark current applied: False
# Flat field applied: False
# Polarization factor: None
# Normalization factor: 1593619.5999999999
# --> MT-AL_F127_220301_04c3083e-c2c8-4f60-a7e5-5568979a8a1d_0_r1d.csv
#        q_A^-1             I 
  4.457554e-03    6.902403e-03
  4.756484e-03    5.351695e-03
  5.055415e-03    3.765283e-03
  5.354345e-03    2.615209e-03
  5.653276e-03    1.969050e-03
  5.952206e-03    3.068771e-03
  6.251136e-03    2.815419e-03
  6.550067e-03    2.458659e-03
  6.848997e-03    2.096473e-03
  7.147927e-03    1.772810e-03
  7.446858e-03    1.520067e-03
  7.745788e-03    1.303267e-03
  8.044719e-03    1.119772e-03
  8.343649e-03    9.775980e-04
  8.642579e-03    8.548935e-04
  8.941510e-03    7.504575e-04
  9.240440e-03    6.650061e-04
  9.539371e-03    5.925347e-04
  9.838301e-03    5.271683e-04
  1.013723e-02    4.723953e-04
  1.043616e-02    4.242584e-04
  1.073509e-02    3.806697e-04
  1.103402e-02    3.433485e-04
  1.133295e-02    3.132007e-04
  1.163188e-02    2.875661e-04
  1.193081e-02    2.617099e-04
  1.222974e-02    2.379433e-04
  1.252867e-02    2.188858e-04
  1.282760e-02    2.015922e-04
  1.312654e-02    1.865855e-04
  1.342547e-02    1.724696e-04
  1.372440e-02    1.593199e-04
  1.402333e-02    1.484738e-04
  1.432226e-02    1.384739e-04
  1.462119e-02    1.284725e-04
  1.492012e-02    1.197709e-04
  1.521905e-02    1.121428e-04
  1.551798e-02    1.055428e-04
  1.581691e-02    9.906452e-05
  1.611584e-02    9.267829e-05
  1.641477e-02    8.809339e-05
  1.671370e-02    8.307382e-05
  1.701263e-02    7.851714e-05
  1.731156e-02    7.452312e-05
  1.761049e-02    7.062057e-05
  1.790942e-02    6.726407e-05
  1.820835e-02    6.412459e-05
  1.850728e-02    6.122652e-05
  1.880621e-02    5.896549e-05
  1.910514e-02    5.652764e-05
  1.940407e-02    5.389002e-05
  1.970300e-02    5.186374e-05
  2.000193e-02    4.986989e-05
  2.030086e-02    4.815229e-05
  2.059979e-02    4.623622e-05
  2.089873e-02    4.508233e-05
  2.119766e-02    4.390828e-05
  2.149659e-02    4.228287e-05
  2.179552e-02    4.108754e-05
  2.209445e-02    3.970234e-05
  2.239338e-02    3.882734e-05
  2.269231e-02    3.788396e-05
  2.299124e-02    3.662788e-05
  2.329017e-02    3.572441e-05
  2.358910e-02    3.492262e-05
  2.388803e-02    3.386781e-05
  2.418696e-02    3.312704e-05
  2.448589e-02    3.248763e-05
  2.478482e-02    3.159893e-05
  2.508375e-02    3.112066e-05
  2.538268e-02    3.051938e-05
  2.568161e-02    3.004430e-05
  2.598054e-02    2.963366e-05
  2.627947e-02    2.901854e-05
  2.657840e-02    2.872535e-05
  2.687733e-02    2.814624e-05
  2.717626e-02    2.757701e-05
  2.747519e-02    2.734320e-05
  2.777412e-02    2.701187e-05
  2.807305e-02    2.679682e-05
  2.837198e-02    2.634799e-05
  2.867092e-02    2.580640e-05
  2.896985e-02    2.574885e-05
  2.926878e-02    2.551307e-05
  2.956771e-02    2.497984e-05
  2.986664e-02    2.468223e-05
  3.016557e-02    2.457089e-05
  3.046450e-02    2.416674e-05
  3.076343e-02    2.384614e-05
  3.106236e-02    2.375144e-05
  3.136129e-02    2.363946e-05
  3.166022e-02    2.338678e-05
  3.195915e-02    2.293163e-05
  3.225808e-02    2.295871e-05
  3.255701e-02    2.276292e-05
  3.285594e-02    2.231874e-05
  3.315487e-02    2.235598e-05
  3.345380e-02    2.222007e-05
  3.375273e-02    2.166840e-05
  3.405166e-02    2.148769e-05
  3.435059e-02    2.152811e-05
  3.464952e-02    2.115117e-05
  3.494845e-02    2.074428e-05
  3.524738e-02    2.073038e-05
  3.554631e-02    2.078538e-05
  3.584524e-02    2.046005e-05
  3.614417e-02    2.022642e-05
  3.644310e-02    2.009309e-05
  3.674204e-02    1.961498e-05
  3.704097e-02    1.943013e-05
  3.733990e-02    1.956630e-05
  3.763883e-02    1.948131e-05
  3.793776e-02    1.918633e-05
  3.823669e-02    1.899268e-05
  3.853562e-02    1.888176e-05
  3.883455e-02    1.877105e-05
  3.913348e-02    1.854336e-05
  3.943241e-02    1.848867e-05
  3.973134e-02    1.830730e-05
  4.003027e-02    1.822827e-05
  4.032920e-02    1.822951e-05
  4.062813e-02    1.805751e-05
  4.092706e-02    1.784905e-05
  4.122599e-02    1.773330e-05
  4.152492e-02    1.775233e-05
  4.182385e-02    1.746261e-05
  4.212278e-02    1.739881e-05
  4.242171e-02    1.756045e-05
  4.272064e-02    1.746487e-05
  4.301957e-02    1.743053e-05
  4.331850e-02    1.741379e-05
  4.361743e-02    1.726053e-05
  4.391636e-02    1.714163e-05
  4.421529e-02    1.718783e-05
  4.451423e-02    1.715306e-05
  4.481316e-02    1.709053e-05
  4.511209e-02    1.705805e-05
  4.541102e-02    1.712264e-05
  4.570995e-02    1.695203e-05
  4.600888e-02    1.701063e-05
  4.630781e-02    1.701480e-05
  4.660674e-02    1.683480e-05
  4.690567e-02    1.686378e-05
  4.720460e-02    1.712841e-05
  4.750353e-02    1.718332e-05
  4.780246e-02    1.691668e-05
  4.810139e-02    1.677802e-05
  4.840032e-02    1.673170e-05
  4.869925e-02    1.673881e-05
  4.899818e-02    1.666254e-05
  4.929711e-02    1.652232e-05
  4.959604e-02    1.669096e-05
  4.989497e-02    1.678455e-05
  5.019390e-02    1.679794e-05
  5.049283e-02    1.683549e-05
  5.079176e-02    1.665353e-05
  5.109069e-02    1.677749e-05
  5.138962e-02    1.704290e-05
  5.168855e-02    1.746060e-05
  5.198748e-02    1.770697e-05
  5.228642e-02    1.760015e-05
  5.258535e-02    1.691430e-05
  5.288428e-02    1.643529e-05
  5.318321e-02    1.631813e-05
  5.348214e-02    1.628786e-05
  5.378107e-02    1.643054e-05
  5.408000e-02    1.662424e-05
  5.437893e-02    1.667121e-05
  5.467786e-02    1.660347e-05
  5.497679e-02    1.653462e-05
  5.527572e-02    1.644928e-05
  5.557465e-02    1.643716e-05
  5.587358e-02    1.654240e-05
  5.617251e-02    1.645413e-05
  5.647144e-02    1.652967e-05
  5.677037e-02    1.670515e-05
  5.706930e-02    1.651225e-05
  5.736823e-02    1.650021e-05
  5.766716e-02    1.675376e-05
  5.796609e-02    1.674626e-05
  5.826502e-02    1.654675e-05
  5.856395e-02    1.656714e-05
  5.886288e-02    1.662608e-05
  5.916181e-02    1.666972e-05
  5.946074e-02    1.672326e-05
  5.975967e-02    1.665273e-05
  6.005861e-02    1.667193e-05
  6.035754e-02    1.671939e-05
  6.065647e-02    1.689534e-05
  6.095540e-02    1.702773e-05
  6.125433e-02    1.737046e-05
  6.155326e-02    1.736695e-05
  6.185219e-02    1.705503e-05
  6.215112e-02    1.677975e-05
  6.245005e-02    1.678690e-05
  6.274898e-02    1.675725e-05
  6.304791e-02    1.663483e-05
  6.334684e-02    1.675991e-05
  6.364577e-02    1.684361e-05
  6.394470e-02    1.690105e-05
  6.424363e-02    1.702717e-05
  6.454256e-02    1.709598e-05
  6.484149e-02    1.690726e-05
  6.514042e-02    1.689382e-05
  6.543935e-02    1.695681e-05
  6.573828e-02    1.700504e-05
  6.603721e-02    1.704784e-05
  6.633614e-02    1.711909e-05
  6.663507e-02    1.717185e-05
  6.693400e-02    1.710450e-05
  6.723293e-02    1.718836e-05
  6.753186e-02    1.717101e-05
  6.783080e-02    1.718486e-05
  6.812973e-02    1.716897e-05
  6.842866e-02    1.728675e-05
  6.872759e-02    1.729041e-05
  6.902652e-02    1.729826e-05
  6.932545e-02    1.725740e-05
  6.962438e-02    1.736294e-05
  6.992331e-02    1.724638e-05
  7.022224e-02    1.730123e-05
  7.052117e-02    1.743879e-05
  7.082010e-02    1.753720e-05
  7.111903e-02    1.754109e-05
  7.141796e-02    1.757783e-05
  7.171689e-02    1.763671e-05
  7.201582e-02    1.761048e-05
  7.231475e-02    1.765324e-05
  7.261368e-02    1.760922e-05
  7.291261e-02    1.764603e-05
  7.321154e-02    1.766892e-05
  7.351047e-02    1.769332e-05
  7.380940e-02    1.756992e-05
  7.410833e-02    1.752965e-05
  7.440726e-02    1.754797e-05
  7.470619e-02    1.754175e-05
  7.500512e-02    1.762245e-05
  7.530405e-02    1.762758e-05
  7.560299e-02    1.747437e-05
  7.590192e-02    1.750417e-05
  7.620085e-02    1.767705e-05
  7.649978e-02    1.768401e-05
  7.679871e-02    1.763225e-05
  7.709764e-02    1.752188e-05
  7.739657e-02    1.758042e-05
  7.769550e-02    1.763255e-05
  7.799443e-02    1.752663e-05
  7.829336e-02    1.753857e-05
  7.859229e-02    1.762648e-05
  7.889122e-02    1.755847e-05
  7.919015e-02    1.760713e-05
  7.948908e-02    1.755884e-05
  7.978801e-02    1.751264e-05
  8.008694e-02    1.768082e-05
  8.038587e-02    1.751468e-05
  8.068480e-02    1.741805e-05
  8.098373e-02    1.749127e-05
  8.128266e-02    1.749460e-05
  8.158159e-02    1.744981e-05
  8.188052e-02    1.752169e-05
  8.217945e-02    1.749665e-05
  8.247838e-02    1.733638e-05
  8.277731e-02    1.744948e-05
  8.307624e-02    1.747322e-05
  8.337518e-02    1.732196e-05
  8.367411e-02    1.725202e-05
  8.397304e-02    1.723885e-05
  8.427197e-02    1.720429e-05
  8.457090e-02    1.716082e-05
  8.486983e-02    1.713811e-05
  8.516876e-02    1.711835e-05
  8.546769e-02    1.708871e-05
  8.576662e-02    1.708895e-05
  8.606555e-02    1.700865e-05
  8.636448e-02    1.704779e-05
  8.666341e-02    1.699977e-05
  8.696234e-02    1.702706e-05
  8.726127e-02    1.697001e-05
  8.756020e-02    1.693507e-05
  8.785913e-02    1.698811e-05
  8.815806e-02    1.695846e-05
  8.845699e-02    1.689811e-05
  8.875592e-02    1.690273e-05
  8.905485e-02    1.693466e-05
  8.935378e-02    1.696865e-05
  8.965271e-02    1.683268e-05
  8.995164e-02    1.668301e-05
  9.025057e-02    1.663988e-05
  9.054950e-02    1.663190e-05
  9.084843e-02    1.659154e-05
  9.114737e-02    1.650911e-05
  9.144630e-02    1.648894e-05
  9.174523e-02    1.648457e-05
  9.204416e-02    1.650732e-05
  9.234309e-02    1.636629e-05
  9.264202e-02    1.629991e-05
  9.294095e-02    1.637288e-05
  9.323988e-02    1.636077e-05
  9.353881e-02    1.644432e-05
  9.383774e-02    1.630482e-05
  9.413667e-02    1.615150e-05
  9.443560e-02    1.616023e-05
  9.473453e-02    1.616644e-05
  9.503346e-02    1.613656e-05
  9.533239e-02    1.621252e-05
  9.563132e-02    1.624399e-05
  9.593025e-02    1.607736e-05
  9.622918e-02    1.609800e-05
  9.652811e-02    1.626583e-05
  9.682704e-02    1.639933e-05
  9.712597e-02    1.639568e-05
  9.742490e-02    1.620032e-05
  9.772383e-02    1.610400e-05
  9.802276e-02    1.605366e-05
  9.832169e-02    1.588297e-05
  9.862062e-02    1.577959e-05
  9.891956e-02    1.573912e-05
  9.921849e-02    1.569597e-05
  9.951742e-02    1.566454e-05
  9.981635e-02    1.551922e-05
  1.001153e-01    1.555053e-05
  1.004142e-01    1.569444e-05
  1.007131e-01    1.558642e-05
  1.010121e-01    1.556408e-05
  1.013110e-01    1.542838e-05
  1.016099e-01    1.541110e-05
  1.019089e-01    1.541277e-05
  1.022078e-01    1.540838e-05
  1.025067e-01    1.530258e-05
  1.028057e-01    1.529732e-05
  1.031046e-01    1.534863e-05
  1.034035e-01    1.535579e-05
  1.037024e-01    1.539092e-05
  1.040014e-01    1.524980e-05
  1.043003e-01    1.519452e-05
  1.045992e-01    1.519355e-05
  1.048982e-01    1.529053e-05
  1.051971e-01    1.530815e-05
  1.054960e-01    1.518818e-05
  1.057950e-01    1.512489e-05
  1.060939e-01    1.501695e-05
  1.063928e-01    1.497824e-05
  1.066917e-01    1.501346e-05
  1.069907e-01    1.499447e-05
  1.072896e-01    1.491832e-05
  1.075885e-01    1.488388e-05
  1.078875e-01    1.486538e-05
  1.081864e-01    1.487764e-05
  1.084853e-01    1.492317e-05
  1.087843e-01    1.496068e-05
  1.090832e-01    1.489379e-05
  1.093821e-01    1.471982e-05
  1.096810e-01    1.465600e-05
  1.099800e-01    1.477495e-05
  1.102789e-01    1.467611e-05
  1.105778e-01    1.456617e-05
  1.108768e-01    1.458444e-05
  1.111757e-01    1.462486e-05
  1.114746e-01    1.448593e-05
  1.117736e-01    1.442503e-05
  1.120725e-01    1.444721e-05
  1.123714e-01    1.458028e-05
  1.126704e-01    1.439583e-05
  1.129693e-01    1.425293e-05
  1.132682e-01    1.430519e-05
  1.135671e-01    1.423636e-05
  1.138661e-01    1.423201e-05
  1.141650e-01    1.424848e-05
  1.144639e-01    1.414901e-05
  1.147629e-01    1.401250e-05
  1.150618e-01    1.408088e-05
  1.153607e-01    1.383349e-05
  1.156597e-01    1.383137e-05
  1.159586e-01    1.395795e-05
  1.162575e-01    1.384466e-05
  1.165564e-01    1.389968e-05
  1.168554e-01    1.403418e-05
  1.171543e-01    1.416779e-05
  1.174532e-01    1.386957e-05
  1.177522e-01    1.387392e-05
  1.180511e-01    1.393313e-05
  1.183500e-01    1.387385e-05
  1.186490e-01    1.385086e-05
  1.189479e-01    1.407797e-05
  1.192468e-01    1.411923e-05
  1.195458e-01    1.404060e-05
  1.198447e-01    1.369412e-05
  1.201436e-01    1.382911e-05
  1.204425e-01    1.406079e-05
  1.207415e-01    1.292653e-05
  1.210404e-01    1.130527e-05
  1.213393e-01    0.000000e+00
  1.216383e-01    0.000000e+00
  1.219372e-01    0.000000e+00
  1.222361e-01    0.000000e+00
  1.225351e-01    0.000000e+00
  1.228340e-01    0.000000e+00
  1.231329e-01    0.000000e+00
  1.234318e-01    0.000000e+00
  1.237308e-01    0.000000e+00
  1.240297e-01    0.000000e+00
  1.243286e-01    0.000000e+00
  1.246276e-01    0.000000e+00
  1.249265e-01    0.000000e+00
  1.252254e-01    0.000000e+00
  1.255244e-01    0.000000e+00
  1.258233e-01    0.000000e+00
  1.261222e-01    0.000000e+00
  1.264212e-01    0.000000e+00
  1.267201e-01    0.000000e+00
  1.270190e-01    0.000000e+00
  1.273179e-01    0.000000e+00
  1.276169e-01    0.000000e+00
  1.279158e-01    0.000000e+00
  1.282147e-01    0.000000e+00
  1.285137e-01    0.000000e+00
  1.288126e-01    0.000000e+00
  1.291115e-01    0.000000e+00
  1.294105e-01    0.000000e+00
  1.297094e-01    0.000000e+00
  1.300083e-01    0.000000e+00
  1.303072e-01    0.000000e+00
  1.306062e-01    0.000000e+00
  1.309051e-01    0.000000e+00
  1.312040e-01    0.000000e+00
  1.315030e-01    0.000000e+00
  1.318019e-01    0.000000e+00
  1.321008e-01    0.000000e+00
  1.323998e-01    0.000000e+00
  1.326987e-01    0.000000e+00
  1.329976e-01    0.000000e+00
  1.332965e-01    0.000000e+00
  1.335955e-01    0.000000e+00
  1.338944e-01    0.000000e+00
  1.341933e-01    0.000000e+00
  1.344923e-01    0.000000e+00
  1.347912e-01    0.000000e+00
  1.350901e-01    0.000000e+00
  1.353891e-01    0.000000e+00
  1.356880e-01    0.000000e+00
  1.359869e-01    0.000000e+00
  1.362859e-01    0.000000e+00
  1.365848e-01    0.000000e+00
  1.368837e-01    0.000000e+00
  1.371826e-01    0.000000e+00
  1.374816e-01    0.000000e+00
  1.377805e-01    0.000000e+00
  1.380794e-01    0.000000e+00
  1.383784e-01    0.000000e+00
  1.386773e-01    0.000000e+00
  1.389762e-01    0.000000e+00
  1.392752e-01    0.000000e+00
  1.395741e-01    0.000000e+00
  1.398730e-01    0.000000e+00
  1.401719e-01    0.000000e+00
  1.404709e-01    0.000000e+00
  1.407698e-01    0.000000e+00
  1.410687e-01    0.000000e+00
  1.413677e-01    0.000000e+00
  1.416666e-01    0.000000e+00
  1.419655e-01    0.000000e+00
  1.422645e-01    0.000000e+00
  1.425634e-01    0.000000e+00
  1.428623e-01    0.000000e+00
  1.431613e-01    0.000000e+00
  1.434602e-01    0.000000e+00
  1.437591e-01    0.000000e+00
  1.440580e-01    0.000000e+00
  1.443570e-01    0.000000e+00
  1.446559e-01    0.000000e+00
  1.449548e-01    0.000000e+00
  1.452538e-01    0.000000e+00
  1.455527e-01    0.000000e+00
  1.458516e-01    0.000000e+00
  1.461506e-01    0.000000e+00
  1.464495e-01    0.000000e+00
  1.467484e-01    0.000000e+00
  1.470473e-01    0.000000e+00
  1.473463e-01    0.000000e+00
  1.476452e-01    0.000000e+00
  1.479441e-01    0.000000e+00
  1.482431e-01    0.000000e+00
  1.485420e-01    0.000000e+00
  1.488409e-01    0.000000e+00
  1.491399e-01    0.000000e+00
  1.494388e-01    0.000000e+00
  1.497377e-01    0.000000e+00
  1.500367e-01    0.000000e+00
  1.503356e-01    0.000000e+00
  1.506345e-01    0.000000e+00
  1.509334e-01    0.000000e+00
  1.512324e-01    0.000000e+00
  1.515313e-01    0.000000e+00
  1.518302e-01    0.000000e+00
  1.521292e-01    0.000000e+00
  1.524281e-01    0.000000e+00
  1.527270e-01    0.000000e+00
  1.530260e-01    0.000000e+00
  1.533249e-01    0.000000e+00
  1.536238e-01    0.000000e+00
