# == pyFAI calibration ==
# Distance Sample to Detector: 2.266 m
# PONI: 5.659e-02, 4.293e-02 m
# Rotations: 0.000000 0.000000 0.000000 rad
# 
# == Fit2d calibration ==
# Distance Sample-beamCenter: 2266.000 mm
# Center: x=249.594, y=329.012 pix
# Tilt: 0.000 deg  TiltPlanRot: 0.000 deg
# 
# Detector Pilatus 300k	 PixelSize= 1.720e-04, 1.720e-04 m
#    Detector has a mask: True 
#    Detector has a dark current: False 
#    detector has a flat field: False 
# 
# Wavelength: 1.27818e-10 m
# Mask applied: user provided
# Dark current applied: False
# Flat field applied: False
# Polarization factor: None
# Normalization factor: 25402671.200000003
# --> MT-AL_F127_220301_00482563-006d-4c5d-8eba-a98a032fecea_1_r1d.csv
#        q_A^-1             I 
  4.457554e-03    1.705402e-03
  4.756484e-03    1.347803e-03
  5.055415e-03    9.754549e-04
  5.354345e-03    6.964167e-04
  5.653276e-03    5.482170e-04
  5.952206e-03    8.976543e-04
  6.251136e-03    8.129690e-04
  6.550067e-03    6.995003e-04
  6.848997e-03    5.912189e-04
  7.147927e-03    4.984472e-04
  7.446858e-03    4.254045e-04
  7.745788e-03    3.655197e-04
  8.044719e-03    3.147696e-04
  8.343649e-03    2.746981e-04
  8.642579e-03    2.402030e-04
  8.941510e-03    2.113157e-04
  9.240440e-03    1.874668e-04
  9.539371e-03    1.662774e-04
  9.838301e-03    1.482286e-04
  1.013723e-02    1.330216e-04
  1.043616e-02    1.195418e-04
  1.073509e-02    1.078220e-04
  1.103402e-02    9.800572e-05
  1.133295e-02    8.880746e-05
  1.163188e-02    8.096023e-05
  1.193081e-02    7.400550e-05
  1.222974e-02    6.771863e-05
  1.252867e-02    6.235571e-05
  1.282760e-02    5.750074e-05
  1.312654e-02    5.298763e-05
  1.342547e-02    4.902705e-05
  1.372440e-02    4.543187e-05
  1.402333e-02    4.232062e-05
  1.432226e-02    3.938881e-05
  1.462119e-02    3.674558e-05
  1.492012e-02    3.437251e-05
  1.521905e-02    3.213609e-05
  1.551798e-02    3.020887e-05
  1.581691e-02    2.841405e-05
  1.611584e-02    2.668421e-05
  1.641477e-02    2.513366e-05
  1.671370e-02    2.384457e-05
  1.701263e-02    2.263721e-05
  1.731156e-02    2.149615e-05
  1.761049e-02    2.044571e-05
  1.790942e-02    1.947203e-05
  1.820835e-02    1.857403e-05
  1.850728e-02    1.774675e-05
  1.880621e-02    1.693056e-05
  1.910514e-02    1.619494e-05
  1.940407e-02    1.547847e-05
  1.970300e-02    1.491576e-05
  2.000193e-02    1.434908e-05
  2.030086e-02    1.382034e-05
  2.059979e-02    1.333213e-05
  2.089873e-02    1.283886e-05
  2.119766e-02    1.241156e-05
  2.149659e-02    1.208001e-05
  2.179552e-02    1.170766e-05
  2.209445e-02    1.133513e-05
  2.239338e-02    1.100765e-05
  2.269231e-02    1.071388e-05
  2.299124e-02    1.040631e-05
  2.329017e-02    1.010443e-05
  2.358910e-02    9.870530e-06
  2.388803e-02    9.659256e-06
  2.418696e-02    9.422562e-06
  2.448589e-02    9.202983e-06
  2.478482e-02    8.997911e-06
  2.508375e-02    8.830920e-06
  2.538268e-02    8.669520e-06
  2.568161e-02    8.495286e-06
  2.598054e-02    8.334516e-06
  2.627947e-02    8.184658e-06
  2.657840e-02    8.046854e-06
  2.687733e-02    7.933840e-06
  2.717626e-02    7.817283e-06
  2.747519e-02    7.697323e-06
  2.777412e-02    7.594224e-06
  2.807305e-02    7.468414e-06
  2.837198e-02    7.361558e-06
  2.867092e-02    7.235436e-06
  2.896985e-02    7.131118e-06
  2.926878e-02    7.049473e-06
  2.956771e-02    6.990968e-06
  2.986664e-02    6.901603e-06
  3.016557e-02    6.841847e-06
  3.046450e-02    6.757556e-06
  3.076343e-02    6.668951e-06
  3.106236e-02    6.614815e-06
  3.136129e-02    6.539991e-06
  3.166022e-02    6.496637e-06
  3.195915e-02    6.429815e-06
  3.225808e-02    6.341676e-06
  3.255701e-02    6.289170e-06
  3.285594e-02    6.268131e-06
  3.315487e-02    6.208639e-06
  3.345380e-02    6.142432e-06
  3.375273e-02    6.076129e-06
  3.405166e-02    6.032102e-06
  3.435059e-02    6.000242e-06
  3.464952e-02    5.955206e-06
  3.494845e-02    5.911450e-06
  3.524738e-02    5.858664e-06
  3.554631e-02    5.785515e-06
  3.584524e-02    5.745599e-06
  3.614417e-02    5.739711e-06
  3.644310e-02    5.700933e-06
  3.674204e-02    5.635996e-06
  3.704097e-02    5.593137e-06
  3.733990e-02    5.554837e-06
  3.763883e-02    5.497197e-06
  3.793776e-02    5.478253e-06
  3.823669e-02    5.470164e-06
  3.853562e-02    5.433455e-06
  3.883455e-02    5.403633e-06
  3.913348e-02    5.386182e-06
  3.943241e-02    5.350453e-06
  3.973134e-02    5.334419e-06
  4.003027e-02    5.283168e-06
  4.032920e-02    5.231808e-06
  4.062813e-02    5.227088e-06
  4.092706e-02    5.216275e-06
  4.122599e-02    5.195316e-06
  4.152492e-02    5.150441e-06
  4.182385e-02    5.143416e-06
  4.212278e-02    5.124509e-06
  4.242171e-02    5.102442e-06
  4.272064e-02    5.084567e-06
  4.301957e-02    5.093418e-06
  4.331850e-02    5.106274e-06
  4.361743e-02    5.063233e-06
  4.391636e-02    5.054783e-06
  4.421529e-02    5.033457e-06
  4.451423e-02    5.040322e-06
  4.481316e-02    5.024503e-06
  4.511209e-02    5.006471e-06
  4.541102e-02    5.003152e-06
  4.570995e-02    5.005375e-06
  4.600888e-02    4.990636e-06
  4.630781e-02    4.980622e-06
  4.660674e-02    4.975194e-06
  4.690567e-02    4.974812e-06
  4.720460e-02    4.999394e-06
  4.750353e-02    4.984021e-06
  4.780246e-02    4.969159e-06
  4.810139e-02    4.967345e-06
  4.840032e-02    4.970358e-06
  4.869925e-02    4.959665e-06
  4.899818e-02    4.954878e-06
  4.929711e-02    4.943341e-06
  4.959604e-02    4.959777e-06
  4.989497e-02    4.967258e-06
  5.019390e-02    4.962949e-06
  5.049283e-02    4.951462e-06
  5.079176e-02    4.956986e-06
  5.109069e-02    4.973607e-06
  5.138962e-02    5.002971e-06
  5.168855e-02    5.081827e-06
  5.198748e-02    5.131092e-06
  5.228642e-02    5.092575e-06
  5.258535e-02    5.010771e-06
  5.288428e-02    4.948916e-06
  5.318321e-02    4.945674e-06
  5.348214e-02    4.944597e-06
  5.378107e-02    4.957661e-06
  5.408000e-02    4.972575e-06
  5.437893e-02    4.951095e-06
  5.467786e-02    4.948133e-06
  5.497679e-02    4.964138e-06
  5.527572e-02    4.965070e-06
  5.557465e-02    4.968161e-06
  5.587358e-02    4.964249e-06
  5.617251e-02    4.962393e-06
  5.647144e-02    4.963314e-06
  5.677037e-02    4.975529e-06
  5.706930e-02    4.993957e-06
  5.736823e-02    4.994617e-06
  5.766716e-02    4.997179e-06
  5.796609e-02    4.996139e-06
  5.826502e-02    5.005584e-06
  5.856395e-02    5.025656e-06
  5.886288e-02    5.004287e-06
  5.916181e-02    5.025337e-06
  5.946074e-02    5.048723e-06
  5.975967e-02    5.058692e-06
  6.005861e-02    5.060964e-06
  6.035754e-02    5.065941e-06
  6.065647e-02    5.068669e-06
  6.095540e-02    5.112397e-06
  6.125433e-02    5.182771e-06
  6.155326e-02    5.210005e-06
  6.185219e-02    5.150242e-06
  6.215112e-02    5.116407e-06
  6.245005e-02    5.107438e-06
  6.274898e-02    5.122148e-06
  6.304791e-02    5.115863e-06
  6.334684e-02    5.132787e-06
  6.364577e-02    5.143409e-06
  6.394470e-02    5.147443e-06
  6.424363e-02    5.160015e-06
  6.454256e-02    5.148211e-06
  6.484149e-02    5.177789e-06
  6.514042e-02    5.197038e-06
  6.543935e-02    5.204583e-06
  6.573828e-02    5.201164e-06
  6.603721e-02    5.198535e-06
  6.633614e-02    5.195859e-06
  6.663507e-02    5.210610e-06
  6.693400e-02    5.217599e-06
  6.723293e-02    5.245770e-06
  6.753186e-02    5.252817e-06
  6.783080e-02    5.244959e-06
  6.812973e-02    5.257560e-06
  6.842866e-02    5.260120e-06
  6.872759e-02    5.264589e-06
  6.902652e-02    5.279887e-06
  6.932545e-02    5.294959e-06
  6.962438e-02    5.300920e-06
  6.992331e-02    5.312967e-06
  7.022224e-02    5.311240e-06
  7.052117e-02    5.318167e-06
  7.082010e-02    5.336752e-06
  7.111903e-02    5.335931e-06
  7.141796e-02    5.319508e-06
  7.171689e-02    5.339340e-06
  7.201582e-02    5.351335e-06
  7.231475e-02    5.345601e-06
  7.261368e-02    5.338506e-06
  7.291261e-02    5.343875e-06
  7.321154e-02    5.378403e-06
  7.351047e-02    5.378336e-06
  7.380940e-02    5.359982e-06
  7.410833e-02    5.362915e-06
  7.440726e-02    5.372714e-06
  7.470619e-02    5.388784e-06
  7.500512e-02    5.382896e-06
  7.530405e-02    5.368478e-06
  7.560299e-02    5.366583e-06
  7.590192e-02    5.377394e-06
  7.620085e-02    5.388928e-06
  7.649978e-02    5.382680e-06
  7.679871e-02    5.372087e-06
  7.709764e-02    5.375660e-06
  7.739657e-02    5.357816e-06
  7.769550e-02    5.372278e-06
  7.799443e-02    5.398733e-06
  7.829336e-02    5.389628e-06
  7.859229e-02    5.387226e-06
  7.889122e-02    5.382475e-06
  7.919015e-02    5.375151e-06
  7.948908e-02    5.370680e-06
  7.978801e-02    5.367729e-06
  8.008694e-02    5.359060e-06
  8.038587e-02    5.354668e-06
  8.068480e-02    5.340555e-06
  8.098373e-02    5.345320e-06
  8.128266e-02    5.369933e-06
  8.158159e-02    5.381898e-06
  8.188052e-02    5.356068e-06
  8.217945e-02    5.359664e-06
  8.247838e-02    5.354339e-06
  8.277731e-02    5.330985e-06
  8.307624e-02    5.313360e-06
  8.337518e-02    5.323544e-06
  8.367411e-02    5.340631e-06
  8.397304e-02    5.330065e-06
  8.427197e-02    5.321817e-06
  8.457090e-02    5.315519e-06
  8.486983e-02    5.317391e-06
  8.516876e-02    5.312712e-06
  8.546769e-02    5.290013e-06
  8.576662e-02    5.290436e-06
  8.606555e-02    5.290909e-06
  8.636448e-02    5.261517e-06
  8.666341e-02    5.269431e-06
  8.696234e-02    5.262812e-06
  8.726127e-02    5.256358e-06
  8.756020e-02    5.237748e-06
  8.785913e-02    5.231542e-06
  8.815806e-02    5.228276e-06
  8.845699e-02    5.211373e-06
  8.875592e-02    5.193273e-06
  8.905485e-02    5.174521e-06
  8.935378e-02    5.170054e-06
  8.965271e-02    5.169833e-06
  8.995164e-02    5.165202e-06
  9.025057e-02    5.143465e-06
  9.054950e-02    5.139218e-06
  9.084843e-02    5.132442e-06
  9.114737e-02    5.110356e-06
  9.144630e-02    5.107534e-06
  9.174523e-02    5.106013e-06
  9.204416e-02    5.102846e-06
  9.234309e-02    5.080179e-06
  9.264202e-02    5.065668e-06
  9.294095e-02    5.055844e-06
  9.323988e-02    5.044017e-06
  9.353881e-02    5.034305e-06
  9.383774e-02    5.028074e-06
  9.413667e-02    5.016122e-06
  9.443560e-02    5.013544e-06
  9.473453e-02    5.027787e-06
  9.503346e-02    5.029342e-06
  9.533239e-02    5.021033e-06
  9.563132e-02    5.010421e-06
  9.593025e-02    5.003194e-06
  9.622918e-02    4.994909e-06
  9.652811e-02    4.992279e-06
  9.682704e-02    4.998693e-06
  9.712597e-02    5.000531e-06
  9.742490e-02    4.973863e-06
  9.772383e-02    4.955682e-06
  9.802276e-02    4.938462e-06
  9.832169e-02    4.932886e-06
  9.862062e-02    4.904956e-06
  9.891956e-02    4.888183e-06
  9.921849e-02    4.883941e-06
  9.951742e-02    4.869288e-06
  9.981635e-02    4.875633e-06
  1.001153e-01    4.878051e-06
  1.004142e-01    4.864271e-06
  1.007131e-01    4.835594e-06
  1.010121e-01    4.823768e-06
  1.013110e-01    4.813871e-06
  1.016099e-01    4.807337e-06
  1.019089e-01    4.794009e-06
  1.022078e-01    4.785969e-06
  1.025067e-01    4.779701e-06
  1.028057e-01    4.770158e-06
  1.031046e-01    4.762166e-06
  1.034035e-01    4.749272e-06
  1.037024e-01    4.745386e-06
  1.040014e-01    4.725748e-06
  1.043003e-01    4.716069e-06
  1.045992e-01    4.722276e-06
  1.048982e-01    4.715934e-06
  1.051971e-01    4.690916e-06
  1.054960e-01    4.671782e-06
  1.057950e-01    4.656836e-06
  1.060939e-01    4.664533e-06
  1.063928e-01    4.650434e-06
  1.066917e-01    4.642660e-06
  1.069907e-01    4.630428e-06
  1.072896e-01    4.620124e-06
  1.075885e-01    4.628897e-06
  1.078875e-01    4.618284e-06
  1.081864e-01    4.623481e-06
  1.084853e-01    4.610124e-06
  1.087843e-01    4.610975e-06
  1.090832e-01    4.596752e-06
  1.093821e-01    4.573677e-06
  1.096810e-01    4.553006e-06
  1.099800e-01    4.534061e-06
  1.102789e-01    4.524755e-06
  1.105778e-01    4.530439e-06
  1.108768e-01    4.531333e-06
  1.111757e-01    4.484781e-06
  1.114746e-01    4.469099e-06
  1.117736e-01    4.477487e-06
  1.120725e-01    4.484190e-06
  1.123714e-01    4.459422e-06
  1.126704e-01    4.442078e-06
  1.129693e-01    4.431006e-06
  1.132682e-01    4.425109e-06
  1.135671e-01    4.408589e-06
  1.138661e-01    4.383031e-06
  1.141650e-01    4.380081e-06
  1.144639e-01    4.375941e-06
  1.147629e-01    4.357298e-06
  1.150618e-01    4.338634e-06
  1.153607e-01    4.343029e-06
  1.156597e-01    4.342615e-06
  1.159586e-01    4.318629e-06
  1.162575e-01    4.317643e-06
  1.165564e-01    4.287729e-06
  1.168554e-01    4.308444e-06
  1.171543e-01    4.313994e-06
  1.174532e-01    4.319450e-06
  1.177522e-01    4.330424e-06
  1.180511e-01    4.339701e-06
  1.183500e-01    4.333734e-06
  1.186490e-01    4.277058e-06
  1.189479e-01    4.279971e-06
  1.192468e-01    4.252930e-06
  1.195458e-01    4.216845e-06
  1.198447e-01    4.188882e-06
  1.201436e-01    4.207733e-06
  1.204425e-01    4.222612e-06
  1.207415e-01    4.268859e-06
  1.210404e-01    3.782553e-06
  1.213393e-01    0.000000e+00
  1.216383e-01    0.000000e+00
  1.219372e-01    0.000000e+00
  1.222361e-01    0.000000e+00
  1.225351e-01    0.000000e+00
  1.228340e-01    0.000000e+00
  1.231329e-01    0.000000e+00
  1.234318e-01    0.000000e+00
  1.237308e-01    0.000000e+00
  1.240297e-01    0.000000e+00
  1.243286e-01    0.000000e+00
  1.246276e-01    0.000000e+00
  1.249265e-01    0.000000e+00
  1.252254e-01    0.000000e+00
  1.255244e-01    0.000000e+00
  1.258233e-01    0.000000e+00
  1.261222e-01    0.000000e+00
  1.264212e-01    0.000000e+00
  1.267201e-01    0.000000e+00
  1.270190e-01    0.000000e+00
  1.273179e-01    0.000000e+00
  1.276169e-01    0.000000e+00
  1.279158e-01    0.000000e+00
  1.282147e-01    0.000000e+00
  1.285137e-01    0.000000e+00
  1.288126e-01    0.000000e+00
  1.291115e-01    0.000000e+00
  1.294105e-01    0.000000e+00
  1.297094e-01    0.000000e+00
  1.300083e-01    0.000000e+00
  1.303072e-01    0.000000e+00
  1.306062e-01    0.000000e+00
  1.309051e-01    0.000000e+00
  1.312040e-01    0.000000e+00
  1.315030e-01    0.000000e+00
  1.318019e-01    0.000000e+00
  1.321008e-01    0.000000e+00
  1.323998e-01    0.000000e+00
  1.326987e-01    0.000000e+00
  1.329976e-01    0.000000e+00
  1.332965e-01    0.000000e+00
  1.335955e-01    0.000000e+00
  1.338944e-01    0.000000e+00
  1.341933e-01    0.000000e+00
  1.344923e-01    0.000000e+00
  1.347912e-01    0.000000e+00
  1.350901e-01    0.000000e+00
  1.353891e-01    0.000000e+00
  1.356880e-01    0.000000e+00
  1.359869e-01    0.000000e+00
  1.362859e-01    0.000000e+00
  1.365848e-01    0.000000e+00
  1.368837e-01    0.000000e+00
  1.371826e-01    0.000000e+00
  1.374816e-01    0.000000e+00
  1.377805e-01    0.000000e+00
  1.380794e-01    0.000000e+00
  1.383784e-01    0.000000e+00
  1.386773e-01    0.000000e+00
  1.389762e-01    0.000000e+00
  1.392752e-01    0.000000e+00
  1.395741e-01    0.000000e+00
  1.398730e-01    0.000000e+00
  1.401719e-01    0.000000e+00
  1.404709e-01    0.000000e+00
  1.407698e-01    0.000000e+00
  1.410687e-01    0.000000e+00
  1.413677e-01    0.000000e+00
  1.416666e-01    0.000000e+00
  1.419655e-01    0.000000e+00
  1.422645e-01    0.000000e+00
  1.425634e-01    0.000000e+00
  1.428623e-01    0.000000e+00
  1.431613e-01    0.000000e+00
  1.434602e-01    0.000000e+00
  1.437591e-01    0.000000e+00
  1.440580e-01    0.000000e+00
  1.443570e-01    0.000000e+00
  1.446559e-01    0.000000e+00
  1.449548e-01    0.000000e+00
  1.452538e-01    0.000000e+00
  1.455527e-01    0.000000e+00
  1.458516e-01    0.000000e+00
  1.461506e-01    0.000000e+00
  1.464495e-01    0.000000e+00
  1.467484e-01    0.000000e+00
  1.470473e-01    0.000000e+00
  1.473463e-01    0.000000e+00
  1.476452e-01    0.000000e+00
  1.479441e-01    0.000000e+00
  1.482431e-01    0.000000e+00
  1.485420e-01    0.000000e+00
  1.488409e-01    0.000000e+00
  1.491399e-01    0.000000e+00
  1.494388e-01    0.000000e+00
  1.497377e-01    0.000000e+00
  1.500367e-01    0.000000e+00
  1.503356e-01    0.000000e+00
  1.506345e-01    0.000000e+00
  1.509334e-01    0.000000e+00
  1.512324e-01    0.000000e+00
  1.515313e-01    0.000000e+00
  1.518302e-01    0.000000e+00
  1.521292e-01    0.000000e+00
  1.524281e-01    0.000000e+00
  1.527270e-01    0.000000e+00
  1.530260e-01    0.000000e+00
  1.533249e-01    0.000000e+00
  1.536238e-01    0.000000e+00
