# == pyFAI calibration ==
# Distance Sample to Detector: 2.266 m
# PONI: 5.659e-02, 4.293e-02 m
# Rotations: 0.000000 0.000000 0.000000 rad
# 
# == Fit2d calibration ==
# Distance Sample-beamCenter: 2266.000 mm
# Center: x=249.594, y=329.012 pix
# Tilt: 0.000 deg  TiltPlanRot: 0.000 deg
# 
# Detector Pilatus 300k	 PixelSize= 1.720e-04, 1.720e-04 m
#    Detector has a mask: True 
#    Detector has a dark current: False 
#    detector has a flat field: False 
# 
# Wavelength: 1.27818e-10 m
# Mask applied: user provided
# Dark current applied: False
# Flat field applied: False
# Polarization factor: None
# Normalization factor: 4684.7
# --> MT-AL_DowExpt1_220227_0c75284c-679a-4a3f-9cf4-b2116dad6e31_0_r1d.csv
#        q_A^-1             I 
  4.457554e-03    6.289868e-01
  4.756484e-03    5.110520e-01
  5.055415e-03    3.862360e-01
  5.354345e-03    2.854754e-01
  5.653276e-03    2.269349e-01
  5.952206e-03    3.518261e-01
  6.251136e-03    3.182178e-01
  6.550067e-03    2.748748e-01
  6.848997e-03    2.321386e-01
  7.147927e-03    1.960553e-01
  7.446858e-03    1.690935e-01
  7.745788e-03    1.461119e-01
  8.044719e-03    1.261518e-01
  8.343649e-03    1.104855e-01
  8.642579e-03    9.660847e-02
  8.941510e-03    8.530811e-02
  9.240440e-03    7.598031e-02
  9.539371e-03    6.741872e-02
  9.838301e-03    6.031384e-02
  1.013723e-02    5.409415e-02
  1.043616e-02    4.859233e-02
  1.073509e-02    4.375192e-02
  1.103402e-02    3.958214e-02
  1.133295e-02    3.584059e-02
  1.163188e-02    3.262808e-02
  1.193081e-02    2.977224e-02
  1.222974e-02    2.723485e-02
  1.252867e-02    2.495931e-02
  1.282760e-02    2.288143e-02
  1.312654e-02    2.122278e-02
  1.342547e-02    1.968707e-02
  1.372440e-02    1.800716e-02
  1.402333e-02    1.685984e-02
  1.432226e-02    1.562614e-02
  1.462119e-02    1.449904e-02
  1.492012e-02    1.359101e-02
  1.521905e-02    1.256016e-02
  1.551798e-02    1.173209e-02
  1.581691e-02    1.106270e-02
  1.611584e-02    1.036384e-02
  1.641477e-02    9.783662e-03
  1.671370e-02    9.117928e-03
  1.701263e-02    8.572695e-03
  1.731156e-02    8.074027e-03
  1.761049e-02    7.776060e-03
  1.790942e-02    7.351482e-03
  1.820835e-02    6.965489e-03
  1.850728e-02    6.609536e-03
  1.880621e-02    6.297547e-03
  1.910514e-02    6.069613e-03
  1.940407e-02    5.770083e-03
  1.970300e-02    5.534769e-03
  2.000193e-02    5.251686e-03
  2.030086e-02    5.018629e-03
  2.059979e-02    4.865556e-03
  2.089873e-02    4.738110e-03
  2.119766e-02    4.526813e-03
  2.149659e-02    4.348463e-03
  2.179552e-02    4.258698e-03
  2.209445e-02    4.103045e-03
  2.239338e-02    3.963342e-03
  2.269231e-02    3.847514e-03
  2.299124e-02    3.727202e-03
  2.329017e-02    3.601158e-03
  2.358910e-02    3.592105e-03
  2.388803e-02    3.468205e-03
  2.418696e-02    3.380994e-03
  2.448589e-02    3.302763e-03
  2.478482e-02    3.199066e-03
  2.508375e-02    3.098346e-03
  2.538268e-02    3.019339e-03
  2.568161e-02    3.054285e-03
  2.598054e-02    2.978888e-03
  2.627947e-02    2.844513e-03
  2.657840e-02    2.834663e-03
  2.687733e-02    2.762457e-03
  2.717626e-02    2.659088e-03
  2.747519e-02    2.635761e-03
  2.777412e-02    2.613933e-03
  2.807305e-02    2.576556e-03
  2.837198e-02    2.531999e-03
  2.867092e-02    2.471672e-03
  2.896985e-02    2.419857e-03
  2.926878e-02    2.410007e-03
  2.956771e-02    2.396675e-03
  2.986664e-02    2.421504e-03
  3.016557e-02    2.363613e-03
  3.046450e-02    2.281944e-03
  3.076343e-02    2.258497e-03
  3.106236e-02    2.256767e-03
  3.136129e-02    2.242213e-03
  3.166022e-02    2.135153e-03
  3.195915e-02    2.150325e-03
  3.225808e-02    2.141801e-03
  3.255701e-02    2.114453e-03
  3.285594e-02    2.093899e-03
  3.315487e-02    2.099204e-03
  3.345380e-02    2.086051e-03
  3.375273e-02    2.051370e-03
  3.405166e-02    1.982061e-03
  3.435059e-02    1.941634e-03
  3.464952e-02    1.983209e-03
  3.494845e-02    1.962590e-03
  3.524738e-02    1.933843e-03
  3.554631e-02    1.937738e-03
  3.584524e-02    1.902300e-03
  3.614417e-02    1.887503e-03
  3.644310e-02    1.871519e-03
  3.674204e-02    1.878450e-03
  3.704097e-02    1.898785e-03
  3.733990e-02    1.878799e-03
  3.763883e-02    1.832864e-03
  3.793776e-02    1.853258e-03
  3.823669e-02    1.820776e-03
  3.853562e-02    1.782893e-03
  3.883455e-02    1.799592e-03
  3.913348e-02    1.784523e-03
  3.943241e-02    1.790813e-03
  3.973134e-02    1.751922e-03
  4.003027e-02    1.728262e-03
  4.032920e-02    1.747640e-03
  4.062813e-02    1.712750e-03
  4.092706e-02    1.730476e-03
  4.122599e-02    1.715173e-03
  4.152492e-02    1.708185e-03
  4.182385e-02    1.720472e-03
  4.212278e-02    1.697690e-03
  4.242171e-02    1.682426e-03
  4.272064e-02    1.670181e-03
  4.301957e-02    1.691463e-03
  4.331850e-02    1.686256e-03
  4.361743e-02    1.662604e-03
  4.391636e-02    1.654885e-03
  4.421529e-02    1.647956e-03
  4.451423e-02    1.657013e-03
  4.481316e-02    1.660728e-03
  4.511209e-02    1.662298e-03
  4.541102e-02    1.624718e-03
  4.570995e-02    1.608958e-03
  4.600888e-02    1.615871e-03
  4.630781e-02    1.629058e-03
  4.660674e-02    1.632498e-03
  4.690567e-02    1.602281e-03
  4.720460e-02    1.591100e-03
  4.750353e-02    1.607443e-03
  4.780246e-02    1.638886e-03
  4.810139e-02    1.621146e-03
  4.840032e-02    1.589486e-03
  4.869925e-02    1.607104e-03
  4.899818e-02    1.623159e-03
  4.929711e-02    1.620297e-03
  4.959604e-02    1.620407e-03
  4.989497e-02    1.616229e-03
  5.019390e-02    1.636475e-03
  5.049283e-02    1.657236e-03
  5.079176e-02    1.654269e-03
  5.109069e-02    1.637764e-03
  5.138962e-02    1.643408e-03
  5.168855e-02    1.686027e-03
  5.198748e-02    1.704047e-03
  5.228642e-02    1.689444e-03
  5.258535e-02    1.647043e-03
  5.288428e-02    1.633396e-03
  5.318321e-02    1.630004e-03
  5.348214e-02    1.629318e-03
  5.378107e-02    1.626049e-03
  5.408000e-02    1.650965e-03
  5.437893e-02    1.626934e-03
  5.467786e-02    1.618772e-03
  5.497679e-02    1.621288e-03
  5.527572e-02    1.631575e-03
  5.557465e-02    1.628564e-03
  5.587358e-02    1.622922e-03
  5.617251e-02    1.628675e-03
  5.647144e-02    1.630178e-03
  5.677037e-02    1.626765e-03
  5.706930e-02    1.637805e-03
  5.736823e-02    1.639459e-03
  5.766716e-02    1.657103e-03
  5.796609e-02    1.663135e-03
  5.826502e-02    1.643305e-03
  5.856395e-02    1.646770e-03
  5.886288e-02    1.630386e-03
  5.916181e-02    1.634526e-03
  5.946074e-02    1.662210e-03
  5.975967e-02    1.654288e-03
  6.005861e-02    1.668432e-03
  6.035754e-02    1.666852e-03
  6.065647e-02    1.672458e-03
  6.095540e-02    1.680376e-03
  6.125433e-02    1.712751e-03
  6.155326e-02    1.714313e-03
  6.185219e-02    1.698873e-03
  6.215112e-02    1.678051e-03
  6.245005e-02    1.689634e-03
  6.274898e-02    1.693936e-03
  6.304791e-02    1.685977e-03
  6.334684e-02    1.693412e-03
  6.364577e-02    1.696664e-03
  6.394470e-02    1.716813e-03
  6.424363e-02    1.718130e-03
  6.454256e-02    1.728854e-03
  6.484149e-02    1.728781e-03
  6.514042e-02    1.713730e-03
  6.543935e-02    1.700779e-03
  6.573828e-02    1.723674e-03
  6.603721e-02    1.727394e-03
  6.633614e-02    1.718110e-03
  6.663507e-02    1.705340e-03
  6.693400e-02    1.700270e-03
  6.723293e-02    1.710597e-03
  6.753186e-02    1.724710e-03
  6.783080e-02    1.726455e-03
  6.812973e-02    1.733412e-03
  6.842866e-02    1.737359e-03
  6.872759e-02    1.764455e-03
  6.902652e-02    1.748328e-03
  6.932545e-02    1.725650e-03
  6.962438e-02    1.726187e-03
  6.992331e-02    1.715903e-03
  7.022224e-02    1.724605e-03
  7.052117e-02    1.734956e-03
  7.082010e-02    1.739934e-03
  7.111903e-02    1.719729e-03
  7.141796e-02    1.723732e-03
  7.171689e-02    1.747312e-03
  7.201582e-02    1.753545e-03
  7.231475e-02    1.746385e-03
  7.261368e-02    1.741349e-03
  7.291261e-02    1.762277e-03
  7.321154e-02    1.778372e-03
  7.351047e-02    1.766648e-03
  7.380940e-02    1.738915e-03
  7.410833e-02    1.735105e-03
  7.440726e-02    1.738729e-03
  7.470619e-02    1.726458e-03
  7.500512e-02    1.747992e-03
  7.530405e-02    1.753976e-03
  7.560299e-02    1.771743e-03
  7.590192e-02    1.754396e-03
  7.620085e-02    1.746323e-03
  7.649978e-02    1.751835e-03
  7.679871e-02    1.762758e-03
  7.709764e-02    1.766258e-03
  7.739657e-02    1.775874e-03
  7.769550e-02    1.748141e-03
  7.799443e-02    1.745301e-03
  7.829336e-02    1.738683e-03
  7.859229e-02    1.738949e-03
  7.889122e-02    1.704673e-03
  7.919015e-02    1.702140e-03
  7.948908e-02    1.732180e-03
  7.978801e-02    1.736076e-03
  8.008694e-02    1.712258e-03
  8.038587e-02    1.708849e-03
  8.068480e-02    1.709690e-03
  8.098373e-02    1.720698e-03
  8.128266e-02    1.729655e-03
  8.158159e-02    1.739890e-03
  8.188052e-02    1.734421e-03
  8.217945e-02    1.729593e-03
  8.247838e-02    1.711147e-03
  8.277731e-02    1.710709e-03
  8.307624e-02    1.725359e-03
  8.337518e-02    1.728043e-03
  8.367411e-02    1.693658e-03
  8.397304e-02    1.695839e-03
  8.427197e-02    1.709449e-03
  8.457090e-02    1.699668e-03
  8.486983e-02    1.687506e-03
  8.516876e-02    1.679003e-03
  8.546769e-02    1.678905e-03
  8.576662e-02    1.694935e-03
  8.606555e-02    1.683542e-03
  8.636448e-02    1.694169e-03
  8.666341e-02    1.692566e-03
  8.696234e-02    1.667250e-03
  8.726127e-02    1.652779e-03
  8.756020e-02    1.655095e-03
  8.785913e-02    1.667996e-03
  8.815806e-02    1.672331e-03
  8.845699e-02    1.680952e-03
  8.875592e-02    1.677532e-03
  8.905485e-02    1.669321e-03
  8.935378e-02    1.662511e-03
  8.965271e-02    1.647700e-03
  8.995164e-02    1.628582e-03
  9.025057e-02    1.638247e-03
  9.054950e-02    1.642046e-03
  9.084843e-02    1.649735e-03
  9.114737e-02    1.627676e-03
  9.144630e-02    1.628045e-03
  9.174523e-02    1.629500e-03
  9.204416e-02    1.625900e-03
  9.234309e-02    1.638418e-03
  9.264202e-02    1.659506e-03
  9.294095e-02    1.633526e-03
  9.323988e-02    1.613948e-03
  9.353881e-02    1.597216e-03
  9.383774e-02    1.598148e-03
  9.413667e-02    1.599388e-03
  9.443560e-02    1.590522e-03
  9.473453e-02    1.584880e-03
  9.503346e-02    1.607039e-03
  9.533239e-02    1.623809e-03
  9.563132e-02    1.584500e-03
  9.593025e-02    1.573210e-03
  9.622918e-02    1.584055e-03
  9.652811e-02    1.583057e-03
  9.682704e-02    1.587888e-03
  9.712597e-02    1.583985e-03
  9.742490e-02    1.587036e-03
  9.772383e-02    1.590559e-03
  9.802276e-02    1.571275e-03
  9.832169e-02    1.554602e-03
  9.862062e-02    1.552503e-03
  9.891956e-02    1.536427e-03
  9.921849e-02    1.537274e-03
  9.951742e-02    1.544661e-03
  9.981635e-02    1.530284e-03
  1.001153e-01    1.520792e-03
  1.004142e-01    1.544419e-03
  1.007131e-01    1.545991e-03
  1.010121e-01    1.545582e-03
  1.013110e-01    1.541131e-03
  1.016099e-01    1.536058e-03
  1.019089e-01    1.540464e-03
  1.022078e-01    1.542477e-03
  1.025067e-01    1.527294e-03
  1.028057e-01    1.506572e-03
  1.031046e-01    1.529480e-03
  1.034035e-01    1.533226e-03
  1.037024e-01    1.513380e-03
  1.040014e-01    1.509219e-03
  1.043003e-01    1.497198e-03
  1.045992e-01    1.485068e-03
  1.048982e-01    1.501928e-03
  1.051971e-01    1.496632e-03
  1.054960e-01    1.472956e-03
  1.057950e-01    1.465864e-03
  1.060939e-01    1.480614e-03
  1.063928e-01    1.508119e-03
  1.066917e-01    1.501443e-03
  1.069907e-01    1.473918e-03
  1.072896e-01    1.466325e-03
  1.075885e-01    1.475703e-03
  1.078875e-01    1.483938e-03
  1.081864e-01    1.477203e-03
  1.084853e-01    1.478659e-03
  1.087843e-01    1.461152e-03
  1.090832e-01    1.462354e-03
  1.093821e-01    1.457537e-03
  1.096810e-01    1.464814e-03
  1.099800e-01    1.434186e-03
  1.102789e-01    1.409524e-03
  1.105778e-01    1.406452e-03
  1.108768e-01    1.398151e-03
  1.111757e-01    1.423877e-03
  1.114746e-01    1.423978e-03
  1.117736e-01    1.435947e-03
  1.120725e-01    1.450193e-03
  1.123714e-01    1.444254e-03
  1.126704e-01    1.424036e-03
  1.129693e-01    1.413021e-03
  1.132682e-01    1.415628e-03
  1.135671e-01    1.407122e-03
  1.138661e-01    1.408973e-03
  1.141650e-01    1.418956e-03
  1.144639e-01    1.424524e-03
  1.147629e-01    1.425785e-03
  1.150618e-01    1.407247e-03
  1.153607e-01    1.390834e-03
  1.156597e-01    1.393179e-03
  1.159586e-01    1.418164e-03
  1.162575e-01    1.387571e-03
  1.165564e-01    1.360199e-03
  1.168554e-01    1.361733e-03
  1.171543e-01    1.341025e-03
  1.174532e-01    1.336550e-03
  1.177522e-01    1.311602e-03
  1.180511e-01    1.308928e-03
  1.183500e-01    1.364264e-03
  1.186490e-01    1.385731e-03
  1.189479e-01    1.421317e-03
  1.192468e-01    1.359972e-03
  1.195458e-01    1.318212e-03
  1.198447e-01    1.347464e-03
  1.201436e-01    1.428234e-03
  1.204425e-01    1.489463e-03
  1.207415e-01    1.249274e-03
  1.210404e-01    8.546168e-04
  1.213393e-01    0.000000e+00
  1.216383e-01    0.000000e+00
  1.219372e-01    0.000000e+00
  1.222361e-01    0.000000e+00
  1.225351e-01    0.000000e+00
  1.228340e-01    0.000000e+00
  1.231329e-01    0.000000e+00
  1.234318e-01    0.000000e+00
  1.237308e-01    0.000000e+00
  1.240297e-01    0.000000e+00
  1.243286e-01    0.000000e+00
  1.246276e-01    0.000000e+00
  1.249265e-01    0.000000e+00
  1.252254e-01    0.000000e+00
  1.255244e-01    0.000000e+00
  1.258233e-01    0.000000e+00
  1.261222e-01    0.000000e+00
  1.264212e-01    0.000000e+00
  1.267201e-01    0.000000e+00
  1.270190e-01    0.000000e+00
  1.273179e-01    0.000000e+00
  1.276169e-01    0.000000e+00
  1.279158e-01    0.000000e+00
  1.282147e-01    0.000000e+00
  1.285137e-01    0.000000e+00
  1.288126e-01    0.000000e+00
  1.291115e-01    0.000000e+00
  1.294105e-01    0.000000e+00
  1.297094e-01    0.000000e+00
  1.300083e-01    0.000000e+00
  1.303072e-01    0.000000e+00
  1.306062e-01    0.000000e+00
  1.309051e-01    0.000000e+00
  1.312040e-01    0.000000e+00
  1.315030e-01    0.000000e+00
  1.318019e-01    0.000000e+00
  1.321008e-01    0.000000e+00
  1.323998e-01    0.000000e+00
  1.326987e-01    0.000000e+00
  1.329976e-01    0.000000e+00
  1.332965e-01    0.000000e+00
  1.335955e-01    0.000000e+00
  1.338944e-01    0.000000e+00
  1.341933e-01    0.000000e+00
  1.344923e-01    0.000000e+00
  1.347912e-01    0.000000e+00
  1.350901e-01    0.000000e+00
  1.353891e-01    0.000000e+00
  1.356880e-01    0.000000e+00
  1.359869e-01    0.000000e+00
  1.362859e-01    0.000000e+00
  1.365848e-01    0.000000e+00
  1.368837e-01    0.000000e+00
  1.371826e-01    0.000000e+00
  1.374816e-01    0.000000e+00
  1.377805e-01    0.000000e+00
  1.380794e-01    0.000000e+00
  1.383784e-01    0.000000e+00
  1.386773e-01    0.000000e+00
  1.389762e-01    0.000000e+00
  1.392752e-01    0.000000e+00
  1.395741e-01    0.000000e+00
  1.398730e-01    0.000000e+00
  1.401719e-01    0.000000e+00
  1.404709e-01    0.000000e+00
  1.407698e-01    0.000000e+00
  1.410687e-01    0.000000e+00
  1.413677e-01    0.000000e+00
  1.416666e-01    0.000000e+00
  1.419655e-01    0.000000e+00
  1.422645e-01    0.000000e+00
  1.425634e-01    0.000000e+00
  1.428623e-01    0.000000e+00
  1.431613e-01    0.000000e+00
  1.434602e-01    0.000000e+00
  1.437591e-01    0.000000e+00
  1.440580e-01    0.000000e+00
  1.443570e-01    0.000000e+00
  1.446559e-01    0.000000e+00
  1.449548e-01    0.000000e+00
  1.452538e-01    0.000000e+00
  1.455527e-01    0.000000e+00
  1.458516e-01    0.000000e+00
  1.461506e-01    0.000000e+00
  1.464495e-01    0.000000e+00
  1.467484e-01    0.000000e+00
  1.470473e-01    0.000000e+00
  1.473463e-01    0.000000e+00
  1.476452e-01    0.000000e+00
  1.479441e-01    0.000000e+00
  1.482431e-01    0.000000e+00
  1.485420e-01    0.000000e+00
  1.488409e-01    0.000000e+00
  1.491399e-01    0.000000e+00
  1.494388e-01    0.000000e+00
  1.497377e-01    0.000000e+00
  1.500367e-01    0.000000e+00
  1.503356e-01    0.000000e+00
  1.506345e-01    0.000000e+00
  1.509334e-01    0.000000e+00
  1.512324e-01    0.000000e+00
  1.515313e-01    0.000000e+00
  1.518302e-01    0.000000e+00
  1.521292e-01    0.000000e+00
  1.524281e-01    0.000000e+00
  1.527270e-01    0.000000e+00
  1.530260e-01    0.000000e+00
  1.533249e-01    0.000000e+00
  1.536238e-01    0.000000e+00
