# == pyFAI calibration ==
# Distance Sample to Detector: 2.266 m
# PONI: 5.659e-02, 4.293e-02 m
# Rotations: 0.000000 0.000000 0.000000 rad
# 
# == Fit2d calibration ==
# Distance Sample-beamCenter: 2266.000 mm
# Center: x=249.594, y=329.012 pix
# Tilt: 0.000 deg  TiltPlanRot: 0.000 deg
# 
# Detector Pilatus 300k	 PixelSize= 1.720e-04, 1.720e-04 m
#    Detector has a mask: True 
#    Detector has a dark current: False 
#    detector has a flat field: False 
# 
# Wavelength: 1.27818e-10 m
# Mask applied: user provided
# Dark current applied: False
# Flat field applied: False
# Polarization factor: None
# Normalization factor: 2079106.2000000002
# --> MT-AL_F127_220228_88367c67-a8d4-4377-95bf-b5d6f242e6df_2_r1d.csv
#        q_A^-1             I 
  4.457554e-03    2.313308e-03
  4.756484e-03    1.790298e-03
  5.055415e-03    1.254030e-03
  5.354345e-03    8.680397e-04
  5.653276e-03    6.589083e-04
  5.952206e-03    9.966169e-04
  6.251136e-03    9.173863e-04
  6.550067e-03    8.028418e-04
  6.848997e-03    6.874690e-04
  7.147927e-03    5.822132e-04
  7.446858e-03    4.986132e-04
  7.745788e-03    4.288494e-04
  8.044719e-03    3.704729e-04
  8.343649e-03    3.246049e-04
  8.642579e-03    2.833824e-04
  8.941510e-03    2.503231e-04
  9.240440e-03    2.229364e-04
  9.539371e-03    1.986583e-04
  9.838301e-03    1.781208e-04
  1.013723e-02    1.590522e-04
  1.043616e-02    1.426299e-04
  1.073509e-02    1.286637e-04
  1.103402e-02    1.163422e-04
  1.133295e-02    1.052707e-04
  1.163188e-02    9.658281e-05
  1.193081e-02    8.789905e-05
  1.222974e-02    8.013183e-05
  1.252867e-02    7.320780e-05
  1.282760e-02    6.720016e-05
  1.312654e-02    6.226938e-05
  1.342547e-02    5.769735e-05
  1.372440e-02    5.357021e-05
  1.402333e-02    5.001455e-05
  1.432226e-02    4.611400e-05
  1.462119e-02    4.256430e-05
  1.492012e-02    3.953652e-05
  1.521905e-02    3.762533e-05
  1.551798e-02    3.532576e-05
  1.581691e-02    3.295988e-05
  1.611584e-02    3.101940e-05
  1.641477e-02    2.918191e-05
  1.671370e-02    2.740714e-05
  1.701263e-02    2.598115e-05
  1.731156e-02    2.489012e-05
  1.761049e-02    2.356499e-05
  1.790942e-02    2.247734e-05
  1.820835e-02    2.138061e-05
  1.850728e-02    2.029327e-05
  1.880621e-02    1.932804e-05
  1.910514e-02    1.842672e-05
  1.940407e-02    1.782668e-05
  1.970300e-02    1.709746e-05
  2.000193e-02    1.637528e-05
  2.030086e-02    1.573241e-05
  2.059979e-02    1.518941e-05
  2.089873e-02    1.463889e-05
  2.119766e-02    1.424045e-05
  2.149659e-02    1.380784e-05
  2.179552e-02    1.336725e-05
  2.209445e-02    1.289802e-05
  2.239338e-02    1.247165e-05
  2.269231e-02    1.205800e-05
  2.299124e-02    1.175780e-05
  2.329017e-02    1.149420e-05
  2.358910e-02    1.109201e-05
  2.388803e-02    1.062264e-05
  2.418696e-02    1.048477e-05
  2.448589e-02    1.027048e-05
  2.478482e-02    1.005706e-05
  2.508375e-02    9.922660e-06
  2.538268e-02    9.987364e-06
  2.568161e-02    9.896758e-06
  2.598054e-02    9.696197e-06
  2.627947e-02    9.536817e-06
  2.657840e-02    9.316962e-06
  2.687733e-02    9.101720e-06
  2.717626e-02    8.902037e-06
  2.747519e-02    8.658400e-06
  2.777412e-02    8.572861e-06
  2.807305e-02    8.394144e-06
  2.837198e-02    8.332344e-06
  2.867092e-02    8.254880e-06
  2.896985e-02    8.285602e-06
  2.926878e-02    8.302375e-06
  2.956771e-02    8.150952e-06
  2.986664e-02    7.898893e-06
  3.016557e-02    7.839080e-06
  3.046450e-02    7.758158e-06
  3.076343e-02    7.647217e-06
  3.106236e-02    7.679857e-06
  3.136129e-02    7.598380e-06
  3.166022e-02    7.373803e-06
  3.195915e-02    7.272837e-06
  3.225808e-02    7.255076e-06
  3.255701e-02    7.257673e-06
  3.285594e-02    7.302906e-06
  3.315487e-02    7.263385e-06
  3.345380e-02    7.093246e-06
  3.375273e-02    6.955076e-06
  3.405166e-02    6.871076e-06
  3.435059e-02    6.860942e-06
  3.464952e-02    6.640114e-06
  3.494845e-02    6.583817e-06
  3.524738e-02    6.562493e-06
  3.554631e-02    6.378210e-06
  3.584524e-02    6.395882e-06
  3.614417e-02    6.471418e-06
  3.644310e-02    6.296056e-06
  3.674204e-02    6.191917e-06
  3.704097e-02    6.205789e-06
  3.733990e-02    6.067788e-06
  3.763883e-02    6.000015e-06
  3.793776e-02    5.906319e-06
  3.823669e-02    5.857734e-06
  3.853562e-02    5.749397e-06
  3.883455e-02    5.740401e-06
  3.913348e-02    5.661366e-06
  3.943241e-02    5.678816e-06
  3.973134e-02    5.756654e-06
  4.003027e-02    5.803256e-06
  4.032920e-02    5.635989e-06
  4.062813e-02    5.616539e-06
  4.092706e-02    5.626055e-06
  4.122599e-02    5.603673e-06
  4.152492e-02    5.562862e-06
  4.182385e-02    5.531795e-06
  4.212278e-02    5.468301e-06
  4.242171e-02    5.469557e-06
  4.272064e-02    5.480303e-06
  4.301957e-02    5.433707e-06
  4.331850e-02    5.416762e-06
  4.361743e-02    5.343685e-06
  4.391636e-02    5.332083e-06
  4.421529e-02    5.327129e-06
  4.451423e-02    5.300483e-06
  4.481316e-02    5.335740e-06
  4.511209e-02    5.358879e-06
  4.541102e-02    5.315630e-06
  4.570995e-02    5.248901e-06
  4.600888e-02    5.267555e-06
  4.630781e-02    5.246266e-06
  4.660674e-02    5.287703e-06
  4.690567e-02    5.243584e-06
  4.720460e-02    5.175871e-06
  4.750353e-02    5.247510e-06
  4.780246e-02    5.182817e-06
  4.810139e-02    5.109978e-06
  4.840032e-02    5.162015e-06
  4.869925e-02    5.148980e-06
  4.899818e-02    5.135490e-06
  4.929711e-02    5.147121e-06
  4.959604e-02    5.200431e-06
  4.989497e-02    5.183163e-06
  5.019390e-02    5.138956e-06
  5.049283e-02    5.156259e-06
  5.079176e-02    5.136356e-06
  5.109069e-02    5.133076e-06
  5.138962e-02    5.232380e-06
  5.168855e-02    5.412740e-06
  5.198748e-02    5.526229e-06
  5.228642e-02    5.460652e-06
  5.258535e-02    5.206100e-06
  5.288428e-02    5.111189e-06
  5.318321e-02    5.119279e-06
  5.348214e-02    5.144254e-06
  5.378107e-02    5.046620e-06
  5.408000e-02    5.068476e-06
  5.437893e-02    5.091311e-06
  5.467786e-02    5.072567e-06
  5.497679e-02    5.066342e-06
  5.527572e-02    5.026119e-06
  5.557465e-02    5.043016e-06
  5.587358e-02    5.032005e-06
  5.617251e-02    5.032082e-06
  5.647144e-02    5.019873e-06
  5.677037e-02    4.994463e-06
  5.706930e-02    5.021476e-06
  5.736823e-02    4.990734e-06
  5.766716e-02    4.977542e-06
  5.796609e-02    4.993678e-06
  5.826502e-02    5.036032e-06
  5.856395e-02    5.030418e-06
  5.886288e-02    4.982307e-06
  5.916181e-02    4.976586e-06
  5.946074e-02    4.985830e-06
  5.975967e-02    5.022402e-06
  6.005861e-02    5.076987e-06
  6.035754e-02    5.065941e-06
  6.065647e-02    5.071522e-06
  6.095540e-02    5.162644e-06
  6.125433e-02    5.316673e-06
  6.155326e-02    5.327319e-06
  6.185219e-02    5.179567e-06
  6.215112e-02    5.138226e-06
  6.245005e-02    5.154953e-06
  6.274898e-02    5.050250e-06
  6.304791e-02    5.060495e-06
  6.334684e-02    5.057617e-06
  6.364577e-02    5.071738e-06
  6.394470e-02    5.123072e-06
  6.424363e-02    5.159674e-06
  6.454256e-02    5.138232e-06
  6.484149e-02    5.151721e-06
  6.514042e-02    5.206077e-06
  6.543935e-02    5.169527e-06
  6.573828e-02    5.090152e-06
  6.603721e-02    5.129157e-06
  6.633614e-02    5.212872e-06
  6.663507e-02    5.164815e-06
  6.693400e-02    5.117307e-06
  6.723293e-02    5.125108e-06
  6.753186e-02    5.190239e-06
  6.783080e-02    5.217779e-06
  6.812973e-02    5.163745e-06
  6.842866e-02    5.154393e-06
  6.872759e-02    5.122726e-06
  6.902652e-02    5.167173e-06
  6.932545e-02    5.222963e-06
  6.962438e-02    5.264749e-06
  6.992331e-02    5.210454e-06
  7.022224e-02    5.172124e-06
  7.052117e-02    5.209109e-06
  7.082010e-02    5.250505e-06
  7.111903e-02    5.267368e-06
  7.141796e-02    5.235696e-06
  7.171689e-02    5.233858e-06
  7.201582e-02    5.240794e-06
  7.231475e-02    5.264467e-06
  7.261368e-02    5.289567e-06
  7.291261e-02    5.308927e-06
  7.321154e-02    5.256883e-06
  7.351047e-02    5.288294e-06
  7.380940e-02    5.289010e-06
  7.410833e-02    5.278782e-06
  7.440726e-02    5.280182e-06
  7.470619e-02    5.208195e-06
  7.500512e-02    5.223656e-06
  7.530405e-02    5.285709e-06
  7.560299e-02    5.324743e-06
  7.590192e-02    5.277065e-06
  7.620085e-02    5.234267e-06
  7.649978e-02    5.267084e-06
  7.679871e-02    5.294554e-06
  7.709764e-02    5.224652e-06
  7.739657e-02    5.246421e-06
  7.769550e-02    5.340141e-06
  7.799443e-02    5.355563e-06
  7.829336e-02    5.276258e-06
  7.859229e-02    5.327243e-06
  7.889122e-02    5.266093e-06
  7.919015e-02    5.293194e-06
  7.948908e-02    5.291588e-06
  7.978801e-02    5.277458e-06
  8.008694e-02    5.276360e-06
  8.038587e-02    5.216956e-06
  8.068480e-02    5.219057e-06
  8.098373e-02    5.192207e-06
  8.128266e-02    5.227650e-06
  8.158159e-02    5.267453e-06
  8.188052e-02    5.269316e-06
  8.217945e-02    5.222403e-06
  8.247838e-02    5.235590e-06
  8.277731e-02    5.158105e-06
  8.307624e-02    5.085362e-06
  8.337518e-02    5.186693e-06
  8.367411e-02    5.195422e-06
  8.397304e-02    5.185525e-06
  8.427197e-02    5.222813e-06
  8.457090e-02    5.183570e-06
  8.486983e-02    5.181400e-06
  8.516876e-02    5.112339e-06
  8.546769e-02    5.117727e-06
  8.576662e-02    5.063701e-06
  8.606555e-02    5.080389e-06
  8.636448e-02    5.116171e-06
  8.666341e-02    5.088752e-06
  8.696234e-02    5.002651e-06
  8.726127e-02    5.074511e-06
  8.756020e-02    5.061036e-06
  8.785913e-02    4.967684e-06
  8.815806e-02    4.953091e-06
  8.845699e-02    4.969046e-06
  8.875592e-02    4.985209e-06
  8.905485e-02    5.047084e-06
  8.935378e-02    5.064243e-06
  8.965271e-02    5.027709e-06
  8.995164e-02    5.006445e-06
  9.025057e-02    4.913513e-06
  9.054950e-02    4.868635e-06
  9.084843e-02    4.937263e-06
  9.114737e-02    4.914867e-06
  9.144630e-02    4.872052e-06
  9.174523e-02    4.870369e-06
  9.204416e-02    4.897963e-06
  9.234309e-02    4.883791e-06
  9.264202e-02    4.858891e-06
  9.294095e-02    4.846780e-06
  9.323988e-02    4.825981e-06
  9.353881e-02    4.838430e-06
  9.383774e-02    4.805299e-06
  9.413667e-02    4.805575e-06
  9.443560e-02    4.822155e-06
  9.473453e-02    4.784366e-06
  9.503346e-02    4.768498e-06
  9.533239e-02    4.821584e-06
  9.563132e-02    4.856711e-06
  9.593025e-02    4.749102e-06
  9.622918e-02    4.805763e-06
  9.652811e-02    4.881298e-06
  9.682704e-02    4.901558e-06
  9.712597e-02    4.921964e-06
  9.742490e-02    4.811793e-06
  9.772383e-02    4.774627e-06
  9.802276e-02    4.728033e-06
  9.832169e-02    4.754657e-06
  9.862062e-02    4.693039e-06
  9.891956e-02    4.675685e-06
  9.921849e-02    4.649006e-06
  9.951742e-02    4.651909e-06
  9.981635e-02    4.616450e-06
  1.001153e-01    4.548126e-06
  1.004142e-01    4.598410e-06
  1.007131e-01    4.591615e-06
  1.010121e-01    4.571293e-06
  1.013110e-01    4.612199e-06
  1.016099e-01    4.618729e-06
  1.019089e-01    4.587990e-06
  1.022078e-01    4.538832e-06
  1.025067e-01    4.503919e-06
  1.028057e-01    4.501760e-06
  1.031046e-01    4.493210e-06
  1.034035e-01    4.503323e-06
  1.037024e-01    4.521929e-06
  1.040014e-01    4.536552e-06
  1.043003e-01    4.564911e-06
  1.045992e-01    4.500158e-06
  1.048982e-01    4.479902e-06
  1.051971e-01    4.501196e-06
  1.054960e-01    4.458651e-06
  1.057950e-01    4.473386e-06
  1.060939e-01    4.468018e-06
  1.063928e-01    4.472795e-06
  1.066917e-01    4.435607e-06
  1.069907e-01    4.413748e-06
  1.072896e-01    4.406237e-06
  1.075885e-01    4.388831e-06
  1.078875e-01    4.399071e-06
  1.081864e-01    4.399042e-06
  1.084853e-01    4.399532e-06
  1.087843e-01    4.434415e-06
  1.090832e-01    4.382863e-06
  1.093821e-01    4.378234e-06
  1.096810e-01    4.379056e-06
  1.099800e-01    4.375845e-06
  1.102789e-01    4.378503e-06
  1.105778e-01    4.355515e-06
  1.108768e-01    4.295868e-06
  1.111757e-01    4.289358e-06
  1.114746e-01    4.327013e-06
  1.117736e-01    4.327625e-06
  1.120725e-01    4.337332e-06
  1.123714e-01    4.320464e-06
  1.126704e-01    4.333887e-06
  1.129693e-01    4.327369e-06
  1.132682e-01    4.239111e-06
  1.135671e-01    4.275514e-06
  1.138661e-01    4.315908e-06
  1.141650e-01    4.295922e-06
  1.144639e-01    4.182235e-06
  1.147629e-01    4.190681e-06
  1.150618e-01    4.263109e-06
  1.153607e-01    4.259749e-06
  1.156597e-01    4.220100e-06
  1.159586e-01    4.206546e-06
  1.162575e-01    4.219261e-06
  1.165564e-01    4.204346e-06
  1.168554e-01    4.179084e-06
  1.171543e-01    4.141026e-06
  1.174532e-01    4.162297e-06
  1.177522e-01    4.293629e-06
  1.180511e-01    4.235448e-06
  1.183500e-01    4.093656e-06
  1.186490e-01    4.147517e-06
  1.189479e-01    4.222687e-06
  1.192468e-01    4.183823e-06
  1.195458e-01    3.866477e-06
  1.198447e-01    3.911007e-06
  1.201436e-01    4.116116e-06
  1.204425e-01    3.996183e-06
  1.207415e-01    3.567211e-06
  1.210404e-01    3.851293e-06
  1.213393e-01    0.000000e+00
  1.216383e-01    0.000000e+00
  1.219372e-01    0.000000e+00
  1.222361e-01    0.000000e+00
  1.225351e-01    0.000000e+00
  1.228340e-01    0.000000e+00
  1.231329e-01    0.000000e+00
  1.234318e-01    0.000000e+00
  1.237308e-01    0.000000e+00
  1.240297e-01    0.000000e+00
  1.243286e-01    0.000000e+00
  1.246276e-01    0.000000e+00
  1.249265e-01    0.000000e+00
  1.252254e-01    0.000000e+00
  1.255244e-01    0.000000e+00
  1.258233e-01    0.000000e+00
  1.261222e-01    0.000000e+00
  1.264212e-01    0.000000e+00
  1.267201e-01    0.000000e+00
  1.270190e-01    0.000000e+00
  1.273179e-01    0.000000e+00
  1.276169e-01    0.000000e+00
  1.279158e-01    0.000000e+00
  1.282147e-01    0.000000e+00
  1.285137e-01    0.000000e+00
  1.288126e-01    0.000000e+00
  1.291115e-01    0.000000e+00
  1.294105e-01    0.000000e+00
  1.297094e-01    0.000000e+00
  1.300083e-01    0.000000e+00
  1.303072e-01    0.000000e+00
  1.306062e-01    0.000000e+00
  1.309051e-01    0.000000e+00
  1.312040e-01    0.000000e+00
  1.315030e-01    0.000000e+00
  1.318019e-01    0.000000e+00
  1.321008e-01    0.000000e+00
  1.323998e-01    0.000000e+00
  1.326987e-01    0.000000e+00
  1.329976e-01    0.000000e+00
  1.332965e-01    0.000000e+00
  1.335955e-01    0.000000e+00
  1.338944e-01    0.000000e+00
  1.341933e-01    0.000000e+00
  1.344923e-01    0.000000e+00
  1.347912e-01    0.000000e+00
  1.350901e-01    0.000000e+00
  1.353891e-01    0.000000e+00
  1.356880e-01    0.000000e+00
  1.359869e-01    0.000000e+00
  1.362859e-01    0.000000e+00
  1.365848e-01    0.000000e+00
  1.368837e-01    0.000000e+00
  1.371826e-01    0.000000e+00
  1.374816e-01    0.000000e+00
  1.377805e-01    0.000000e+00
  1.380794e-01    0.000000e+00
  1.383784e-01    0.000000e+00
  1.386773e-01    0.000000e+00
  1.389762e-01    0.000000e+00
  1.392752e-01    0.000000e+00
  1.395741e-01    0.000000e+00
  1.398730e-01    0.000000e+00
  1.401719e-01    0.000000e+00
  1.404709e-01    0.000000e+00
  1.407698e-01    0.000000e+00
  1.410687e-01    0.000000e+00
  1.413677e-01    0.000000e+00
  1.416666e-01    0.000000e+00
  1.419655e-01    0.000000e+00
  1.422645e-01    0.000000e+00
  1.425634e-01    0.000000e+00
  1.428623e-01    0.000000e+00
  1.431613e-01    0.000000e+00
  1.434602e-01    0.000000e+00
  1.437591e-01    0.000000e+00
  1.440580e-01    0.000000e+00
  1.443570e-01    0.000000e+00
  1.446559e-01    0.000000e+00
  1.449548e-01    0.000000e+00
  1.452538e-01    0.000000e+00
  1.455527e-01    0.000000e+00
  1.458516e-01    0.000000e+00
  1.461506e-01    0.000000e+00
  1.464495e-01    0.000000e+00
  1.467484e-01    0.000000e+00
  1.470473e-01    0.000000e+00
  1.473463e-01    0.000000e+00
  1.476452e-01    0.000000e+00
  1.479441e-01    0.000000e+00
  1.482431e-01    0.000000e+00
  1.485420e-01    0.000000e+00
  1.488409e-01    0.000000e+00
  1.491399e-01    0.000000e+00
  1.494388e-01    0.000000e+00
  1.497377e-01    0.000000e+00
  1.500367e-01    0.000000e+00
  1.503356e-01    0.000000e+00
  1.506345e-01    0.000000e+00
  1.509334e-01    0.000000e+00
  1.512324e-01    0.000000e+00
  1.515313e-01    0.000000e+00
  1.518302e-01    0.000000e+00
  1.521292e-01    0.000000e+00
  1.524281e-01    0.000000e+00
  1.527270e-01    0.000000e+00
  1.530260e-01    0.000000e+00
  1.533249e-01    0.000000e+00
  1.536238e-01    0.000000e+00
