# == pyFAI calibration ==
# Distance Sample to Detector: 2.266 m
# PONI: 5.659e-02, 4.293e-02 m
# Rotations: 0.000000 0.000000 0.000000 rad
# 
# == Fit2d calibration ==
# Distance Sample-beamCenter: 2266.000 mm
# Center: x=249.594, y=329.012 pix
# Tilt: 0.000 deg  TiltPlanRot: 0.000 deg
# 
# Detector Pilatus 300k	 PixelSize= 1.720e-04, 1.720e-04 m
#    Detector has a mask: True 
#    Detector has a dark current: False 
#    detector has a flat field: False 
# 
# Wavelength: 1.27818e-10 m
# Mask applied: user provided
# Dark current applied: False
# Flat field applied: False
# Polarization factor: None
# Normalization factor: 1908403.0000000005
# --> MT-AL_F127_220226_0b6680d3-cdb2-407e-88fc-ed25e455ece7_2_r1d.csv
#        q_A^-1             I 
  4.457554e-03    2.411050e-03
  4.756484e-03    1.857559e-03
  5.055415e-03    1.321141e-03
  5.354345e-03    9.416156e-04
  5.653276e-03    7.318563e-04
  5.952206e-03    1.121908e-03
  6.251136e-03    1.021089e-03
  6.550067e-03    8.918189e-04
  6.848997e-03    7.623463e-04
  7.147927e-03    6.443451e-04
  7.446858e-03    5.549896e-04
  7.745788e-03    4.776304e-04
  8.044719e-03    4.108316e-04
  8.343649e-03    3.600449e-04
  8.642579e-03    3.175373e-04
  8.941510e-03    2.789259e-04
  9.240440e-03    2.473562e-04
  9.539371e-03    2.202781e-04
  9.838301e-03    1.962404e-04
  1.013723e-02    1.761552e-04
  1.043616e-02    1.572757e-04
  1.073509e-02    1.419565e-04
  1.103402e-02    1.290566e-04
  1.133295e-02    1.163063e-04
  1.163188e-02    1.059220e-04
  1.193081e-02    9.670713e-05
  1.222974e-02    8.822840e-05
  1.252867e-02    8.129144e-05
  1.282760e-02    7.465467e-05
  1.312654e-02    6.814751e-05
  1.342547e-02    6.295300e-05
  1.372440e-02    5.821820e-05
  1.402333e-02    5.371086e-05
  1.432226e-02    5.035115e-05
  1.462119e-02    4.700828e-05
  1.492012e-02    4.361156e-05
  1.521905e-02    4.046931e-05
  1.551798e-02    3.784167e-05
  1.581691e-02    3.592444e-05
  1.611584e-02    3.362804e-05
  1.641477e-02    3.114609e-05
  1.671370e-02    2.956132e-05
  1.701263e-02    2.807855e-05
  1.731156e-02    2.649931e-05
  1.761049e-02    2.487015e-05
  1.790942e-02    2.354688e-05
  1.820835e-02    2.261662e-05
  1.850728e-02    2.160852e-05
  1.880621e-02    2.047399e-05
  1.910514e-02    1.985017e-05
  1.940407e-02    1.906899e-05
  1.970300e-02    1.813130e-05
  2.000193e-02    1.717936e-05
  2.030086e-02    1.646929e-05
  2.059979e-02    1.582355e-05
  2.089873e-02    1.501016e-05
  2.119766e-02    1.471903e-05
  2.149659e-02    1.445997e-05
  2.179552e-02    1.374234e-05
  2.209445e-02    1.331532e-05
  2.239338e-02    1.297206e-05
  2.269231e-02    1.254141e-05
  2.299124e-02    1.202881e-05
  2.329017e-02    1.171230e-05
  2.358910e-02    1.139625e-05
  2.388803e-02    1.105494e-05
  2.418696e-02    1.090487e-05
  2.448589e-02    1.053237e-05
  2.478482e-02    1.042789e-05
  2.508375e-02    1.012268e-05
  2.538268e-02    9.828239e-06
  2.568161e-02    9.753174e-06
  2.598054e-02    9.693666e-06
  2.627947e-02    9.527666e-06
  2.657840e-02    9.426695e-06
  2.687733e-02    9.258281e-06
  2.717626e-02    9.002616e-06
  2.747519e-02    8.807275e-06
  2.777412e-02    8.782396e-06
  2.807305e-02    8.739411e-06
  2.837198e-02    8.523707e-06
  2.867092e-02    8.392148e-06
  2.896985e-02    8.287459e-06
  2.926878e-02    8.210263e-06
  2.956771e-02    8.166404e-06
  2.986664e-02    7.998062e-06
  3.016557e-02    7.947720e-06
  3.046450e-02    7.858447e-06
  3.076343e-02    7.710436e-06
  3.106236e-02    7.538524e-06
  3.136129e-02    7.476885e-06
  3.166022e-02    7.443587e-06
  3.195915e-02    7.484709e-06
  3.225808e-02    7.478093e-06
  3.255701e-02    7.307072e-06
  3.285594e-02    7.168180e-06
  3.315487e-02    7.035139e-06
  3.345380e-02    7.080283e-06
  3.375273e-02    6.990542e-06
  3.405166e-02    6.869125e-06
  3.435059e-02    6.756093e-06
  3.464952e-02    6.618205e-06
  3.494845e-02    6.556023e-06
  3.524738e-02    6.518560e-06
  3.554631e-02    6.495017e-06
  3.584524e-02    6.447041e-06
  3.614417e-02    6.343676e-06
  3.644310e-02    6.305768e-06
  3.674204e-02    6.256862e-06
  3.704097e-02    6.104100e-06
  3.733990e-02    6.059907e-06
  3.763883e-02    5.924260e-06
  3.793776e-02    5.900150e-06
  3.823669e-02    5.936520e-06
  3.853562e-02    5.848629e-06
  3.883455e-02    5.816910e-06
  3.913348e-02    5.704376e-06
  3.943241e-02    5.706259e-06
  3.973134e-02    5.737940e-06
  4.003027e-02    5.637618e-06
  4.032920e-02    5.649408e-06
  4.062813e-02    5.525308e-06
  4.092706e-02    5.460179e-06
  4.122599e-02    5.445630e-06
  4.152492e-02    5.466439e-06
  4.182385e-02    5.486791e-06
  4.212278e-02    5.468021e-06
  4.242171e-02    5.422406e-06
  4.272064e-02    5.312989e-06
  4.301957e-02    5.351755e-06
  4.331850e-02    5.348640e-06
  4.361743e-02    5.306422e-06
  4.391636e-02    5.287455e-06
  4.421529e-02    5.252791e-06
  4.451423e-02    5.252413e-06
  4.481316e-02    5.256591e-06
  4.511209e-02    5.237476e-06
  4.541102e-02    5.213568e-06
  4.570995e-02    5.228216e-06
  4.600888e-02    5.152456e-06
  4.630781e-02    5.149746e-06
  4.660674e-02    5.176781e-06
  4.690567e-02    5.148750e-06
  4.720460e-02    5.104393e-06
  4.750353e-02    5.193252e-06
  4.780246e-02    5.173907e-06
  4.810139e-02    5.159562e-06
  4.840032e-02    5.107799e-06
  4.869925e-02    5.107267e-06
  4.899818e-02    5.093817e-06
  4.929711e-02    5.015932e-06
  4.959604e-02    5.010127e-06
  4.989497e-02    5.072932e-06
  5.019390e-02    5.131975e-06
  5.049283e-02    5.079481e-06
  5.079176e-02    5.071759e-06
  5.109069e-02    5.064641e-06
  5.138962e-02    5.164332e-06
  5.168855e-02    5.351032e-06
  5.198748e-02    5.530260e-06
  5.228642e-02    5.357502e-06
  5.258535e-02    5.076185e-06
  5.288428e-02    5.040300e-06
  5.318321e-02    5.006606e-06
  5.348214e-02    5.027272e-06
  5.378107e-02    4.999216e-06
  5.408000e-02    4.974772e-06
  5.437893e-02    4.963030e-06
  5.467786e-02    4.942287e-06
  5.497679e-02    4.944783e-06
  5.527572e-02    4.959042e-06
  5.557465e-02    4.948160e-06
  5.587358e-02    4.966801e-06
  5.617251e-02    4.998294e-06
  5.647144e-02    4.980421e-06
  5.677037e-02    4.985018e-06
  5.706930e-02    4.937390e-06
  5.736823e-02    4.910606e-06
  5.766716e-02    4.921950e-06
  5.796609e-02    5.008384e-06
  5.826502e-02    5.028436e-06
  5.856395e-02    5.038190e-06
  5.886288e-02    5.009509e-06
  5.916181e-02    4.953723e-06
  5.946074e-02    4.941503e-06
  5.975967e-02    5.041114e-06
  6.005861e-02    4.967238e-06
  6.035754e-02    5.018810e-06
  6.065647e-02    5.062029e-06
  6.095540e-02    5.069134e-06
  6.125433e-02    5.203766e-06
  6.155326e-02    5.307100e-06
  6.185219e-02    5.202754e-06
  6.215112e-02    5.073723e-06
  6.245005e-02    5.032355e-06
  6.274898e-02    5.084268e-06
  6.304791e-02    5.116122e-06
  6.334684e-02    5.103550e-06
  6.364577e-02    5.106038e-06
  6.394470e-02    5.107801e-06
  6.424363e-02    5.126074e-06
  6.454256e-02    5.087918e-06
  6.484149e-02    5.111444e-06
  6.514042e-02    5.129647e-06
  6.543935e-02    5.073650e-06
  6.573828e-02    5.111743e-06
  6.603721e-02    5.081566e-06
  6.633614e-02    5.092067e-06
  6.663507e-02    5.129909e-06
  6.693400e-02    5.148718e-06
  6.723293e-02    5.165692e-06
  6.753186e-02    5.119320e-06
  6.783080e-02    5.113669e-06
  6.812973e-02    5.180821e-06
  6.842866e-02    5.204740e-06
  6.872759e-02    5.219647e-06
  6.902652e-02    5.218335e-06
  6.932545e-02    5.216512e-06
  6.962438e-02    5.226261e-06
  6.992331e-02    5.235045e-06
  7.022224e-02    5.280254e-06
  7.052117e-02    5.323411e-06
  7.082010e-02    5.317348e-06
  7.111903e-02    5.208924e-06
  7.141796e-02    5.257160e-06
  7.171689e-02    5.336807e-06
  7.201582e-02    5.319164e-06
  7.231475e-02    5.345511e-06
  7.261368e-02    5.285180e-06
  7.291261e-02    5.225148e-06
  7.321154e-02    5.243793e-06
  7.351047e-02    5.287225e-06
  7.380940e-02    5.201036e-06
  7.410833e-02    5.296925e-06
  7.440726e-02    5.325806e-06
  7.470619e-02    5.314461e-06
  7.500512e-02    5.290669e-06
  7.530405e-02    5.267264e-06
  7.560299e-02    5.312806e-06
  7.590192e-02    5.309290e-06
  7.620085e-02    5.314053e-06
  7.649978e-02    5.298803e-06
  7.679871e-02    5.300966e-06
  7.709764e-02    5.330107e-06
  7.739657e-02    5.294526e-06
  7.769550e-02    5.299128e-06
  7.799443e-02    5.261684e-06
  7.829336e-02    5.255604e-06
  7.859229e-02    5.236045e-06
  7.889122e-02    5.253936e-06
  7.919015e-02    5.271177e-06
  7.948908e-02    5.247844e-06
  7.978801e-02    5.224559e-06
  8.008694e-02    5.280826e-06
  8.038587e-02    5.235661e-06
  8.068480e-02    5.191107e-06
  8.098373e-02    5.214995e-06
  8.128266e-02    5.244307e-06
  8.158159e-02    5.275215e-06
  8.188052e-02    5.280005e-06
  8.217945e-02    5.240856e-06
  8.247838e-02    5.204063e-06
  8.277731e-02    5.171304e-06
  8.307624e-02    5.158396e-06
  8.337518e-02    5.161273e-06
  8.367411e-02    5.193598e-06
  8.397304e-02    5.221771e-06
  8.427197e-02    5.169274e-06
  8.457090e-02    5.144768e-06
  8.486983e-02    5.164744e-06
  8.516876e-02    5.246382e-06
  8.546769e-02    5.184387e-06
  8.576662e-02    5.199788e-06
  8.606555e-02    5.125843e-06
  8.636448e-02    5.107656e-06
  8.666341e-02    5.158323e-06
  8.696234e-02    5.139783e-06
  8.726127e-02    5.073593e-06
  8.756020e-02    5.051923e-06
  8.785913e-02    5.020404e-06
  8.815806e-02    5.061940e-06
  8.845699e-02    5.045870e-06
  8.875592e-02    4.993798e-06
  8.905485e-02    5.013566e-06
  8.935378e-02    4.970826e-06
  8.965271e-02    4.998846e-06
  8.995164e-02    5.006949e-06
  9.025057e-02    4.940116e-06
  9.054950e-02    4.980407e-06
  9.084843e-02    5.002192e-06
  9.114737e-02    4.967359e-06
  9.144630e-02    4.900032e-06
  9.174523e-02    4.916706e-06
  9.204416e-02    4.956002e-06
  9.234309e-02    4.937908e-06
  9.264202e-02    4.915895e-06
  9.294095e-02    4.916878e-06
  9.323988e-02    4.879701e-06
  9.353881e-02    4.883939e-06
  9.383774e-02    4.894260e-06
  9.413667e-02    4.862328e-06
  9.443560e-02    4.821972e-06
  9.473453e-02    4.802833e-06
  9.503346e-02    4.778145e-06
  9.533239e-02    4.781020e-06
  9.563132e-02    4.772172e-06
  9.593025e-02    4.848359e-06
  9.622918e-02    4.870838e-06
  9.652811e-02    4.883336e-06
  9.682704e-02    4.908087e-06
  9.712597e-02    4.867669e-06
  9.742490e-02    4.843552e-06
  9.772383e-02    4.804532e-06
  9.802276e-02    4.796101e-06
  9.832169e-02    4.741927e-06
  9.862062e-02    4.653482e-06
  9.891956e-02    4.670065e-06
  9.921849e-02    4.690029e-06
  9.951742e-02    4.654540e-06
  9.981635e-02    4.657848e-06
  1.001153e-01    4.676539e-06
  1.004142e-01    4.653021e-06
  1.007131e-01    4.694607e-06
  1.010121e-01    4.687150e-06
  1.013110e-01    4.651317e-06
  1.016099e-01    4.602628e-06
  1.019089e-01    4.608625e-06
  1.022078e-01    4.625403e-06
  1.025067e-01    4.638285e-06
  1.028057e-01    4.655507e-06
  1.031046e-01    4.589316e-06
  1.034035e-01    4.527787e-06
  1.037024e-01    4.542088e-06
  1.040014e-01    4.523393e-06
  1.043003e-01    4.488462e-06
  1.045992e-01    4.491501e-06
  1.048982e-01    4.556938e-06
  1.051971e-01    4.555331e-06
  1.054960e-01    4.517421e-06
  1.057950e-01    4.470203e-06
  1.060939e-01    4.513058e-06
  1.063928e-01    4.488616e-06
  1.066917e-01    4.496161e-06
  1.069907e-01    4.484113e-06
  1.072896e-01    4.455857e-06
  1.075885e-01    4.437432e-06
  1.078875e-01    4.387191e-06
  1.081864e-01    4.398795e-06
  1.084853e-01    4.457013e-06
  1.087843e-01    4.490558e-06
  1.090832e-01    4.474934e-06
  1.093821e-01    4.437158e-06
  1.096810e-01    4.393077e-06
  1.099800e-01    4.313192e-06
  1.102789e-01    4.313479e-06
  1.105778e-01    4.303933e-06
  1.108768e-01    4.337981e-06
  1.111757e-01    4.314341e-06
  1.114746e-01    4.335399e-06
  1.117736e-01    4.306096e-06
  1.120725e-01    4.290184e-06
  1.123714e-01    4.239687e-06
  1.126704e-01    4.319423e-06
  1.129693e-01    4.337515e-06
  1.132682e-01    4.285537e-06
  1.135671e-01    4.274892e-06
  1.138661e-01    4.270888e-06
  1.141650e-01    4.186866e-06
  1.144639e-01    4.122015e-06
  1.147629e-01    4.200098e-06
  1.150618e-01    4.328797e-06
  1.153607e-01    4.265206e-06
  1.156597e-01    4.151723e-06
  1.159586e-01    4.117828e-06
  1.162575e-01    4.204359e-06
  1.165564e-01    4.168745e-06
  1.168554e-01    4.162301e-06
  1.171543e-01    4.153326e-06
  1.174532e-01    4.225644e-06
  1.177522e-01    4.096938e-06
  1.180511e-01    4.094094e-06
  1.183500e-01    4.206744e-06
  1.186490e-01    3.979882e-06
  1.189479e-01    4.089261e-06
  1.192468e-01    4.224056e-06
  1.195458e-01    4.118251e-06
  1.198447e-01    3.921045e-06
  1.201436e-01    4.301618e-06
  1.204425e-01    4.581441e-06
  1.207415e-01    3.545223e-06
  1.210404e-01    3.146838e-06
  1.213393e-01    0.000000e+00
  1.216383e-01    0.000000e+00
  1.219372e-01    0.000000e+00
  1.222361e-01    0.000000e+00
  1.225351e-01    0.000000e+00
  1.228340e-01    0.000000e+00
  1.231329e-01    0.000000e+00
  1.234318e-01    0.000000e+00
  1.237308e-01    0.000000e+00
  1.240297e-01    0.000000e+00
  1.243286e-01    0.000000e+00
  1.246276e-01    0.000000e+00
  1.249265e-01    0.000000e+00
  1.252254e-01    0.000000e+00
  1.255244e-01    0.000000e+00
  1.258233e-01    0.000000e+00
  1.261222e-01    0.000000e+00
  1.264212e-01    0.000000e+00
  1.267201e-01    0.000000e+00
  1.270190e-01    0.000000e+00
  1.273179e-01    0.000000e+00
  1.276169e-01    0.000000e+00
  1.279158e-01    0.000000e+00
  1.282147e-01    0.000000e+00
  1.285137e-01    0.000000e+00
  1.288126e-01    0.000000e+00
  1.291115e-01    0.000000e+00
  1.294105e-01    0.000000e+00
  1.297094e-01    0.000000e+00
  1.300083e-01    0.000000e+00
  1.303072e-01    0.000000e+00
  1.306062e-01    0.000000e+00
  1.309051e-01    0.000000e+00
  1.312040e-01    0.000000e+00
  1.315030e-01    0.000000e+00
  1.318019e-01    0.000000e+00
  1.321008e-01    0.000000e+00
  1.323998e-01    0.000000e+00
  1.326987e-01    0.000000e+00
  1.329976e-01    0.000000e+00
  1.332965e-01    0.000000e+00
  1.335955e-01    0.000000e+00
  1.338944e-01    0.000000e+00
  1.341933e-01    0.000000e+00
  1.344923e-01    0.000000e+00
  1.347912e-01    0.000000e+00
  1.350901e-01    0.000000e+00
  1.353891e-01    0.000000e+00
  1.356880e-01    0.000000e+00
  1.359869e-01    0.000000e+00
  1.362859e-01    0.000000e+00
  1.365848e-01    0.000000e+00
  1.368837e-01    0.000000e+00
  1.371826e-01    0.000000e+00
  1.374816e-01    0.000000e+00
  1.377805e-01    0.000000e+00
  1.380794e-01    0.000000e+00
  1.383784e-01    0.000000e+00
  1.386773e-01    0.000000e+00
  1.389762e-01    0.000000e+00
  1.392752e-01    0.000000e+00
  1.395741e-01    0.000000e+00
  1.398730e-01    0.000000e+00
  1.401719e-01    0.000000e+00
  1.404709e-01    0.000000e+00
  1.407698e-01    0.000000e+00
  1.410687e-01    0.000000e+00
  1.413677e-01    0.000000e+00
  1.416666e-01    0.000000e+00
  1.419655e-01    0.000000e+00
  1.422645e-01    0.000000e+00
  1.425634e-01    0.000000e+00
  1.428623e-01    0.000000e+00
  1.431613e-01    0.000000e+00
  1.434602e-01    0.000000e+00
  1.437591e-01    0.000000e+00
  1.440580e-01    0.000000e+00
  1.443570e-01    0.000000e+00
  1.446559e-01    0.000000e+00
  1.449548e-01    0.000000e+00
  1.452538e-01    0.000000e+00
  1.455527e-01    0.000000e+00
  1.458516e-01    0.000000e+00
  1.461506e-01    0.000000e+00
  1.464495e-01    0.000000e+00
  1.467484e-01    0.000000e+00
  1.470473e-01    0.000000e+00
  1.473463e-01    0.000000e+00
  1.476452e-01    0.000000e+00
  1.479441e-01    0.000000e+00
  1.482431e-01    0.000000e+00
  1.485420e-01    0.000000e+00
  1.488409e-01    0.000000e+00
  1.491399e-01    0.000000e+00
  1.494388e-01    0.000000e+00
  1.497377e-01    0.000000e+00
  1.500367e-01    0.000000e+00
  1.503356e-01    0.000000e+00
  1.506345e-01    0.000000e+00
  1.509334e-01    0.000000e+00
  1.512324e-01    0.000000e+00
  1.515313e-01    0.000000e+00
  1.518302e-01    0.000000e+00
  1.521292e-01    0.000000e+00
  1.524281e-01    0.000000e+00
  1.527270e-01    0.000000e+00
  1.530260e-01    0.000000e+00
  1.533249e-01    0.000000e+00
  1.536238e-01    0.000000e+00
