# == pyFAI calibration ==
# Distance Sample to Detector: 2.266 m
# PONI: 5.659e-02, 4.293e-02 m
# Rotations: 0.000000 0.000000 0.000000 rad
# 
# == Fit2d calibration ==
# Distance Sample-beamCenter: 2266.000 mm
# Center: x=249.594, y=329.012 pix
# Tilt: 0.000 deg  TiltPlanRot: 0.000 deg
# 
# Detector Pilatus 300k	 PixelSize= 1.720e-04, 1.720e-04 m
#    Detector has a mask: True 
#    Detector has a dark current: False 
#    detector has a flat field: False 
# 
# Wavelength: 1.27818e-10 m
# Mask applied: user provided
# Dark current applied: False
# Flat field applied: False
# Polarization factor: None
# Normalization factor: 11308186.4
# --> MT-AL_F127_220301_00815210-e049-459f-91d1-ff0962c3a898_2_r1d.csv
#        q_A^-1             I 
  4.457554e-03    1.882534e-03
  4.756484e-03    1.454775e-03
  5.055415e-03    1.020078e-03
  5.354345e-03    7.083877e-04
  5.653276e-03    5.355127e-04
  5.952206e-03    8.471141e-04
  6.251136e-03    7.753960e-04
  6.550067e-03    6.763530e-04
  6.848997e-03    5.758003e-04
  7.147927e-03    4.868814e-04
  7.446858e-03    4.158488e-04
  7.745788e-03    3.566718e-04
  8.044719e-03    3.072381e-04
  8.343649e-03    2.677881e-04
  8.642579e-03    2.341554e-04
  8.941510e-03    2.061022e-04
  9.240440e-03    1.831731e-04
  9.539371e-03    1.622732e-04
  9.838301e-03    1.443405e-04
  1.013723e-02    1.293422e-04
  1.043616e-02    1.163629e-04
  1.073509e-02    1.045120e-04
  1.103402e-02    9.455188e-05
  1.133295e-02    8.597813e-05
  1.163188e-02    7.827509e-05
  1.193081e-02    7.165138e-05
  1.222974e-02    6.583169e-05
  1.252867e-02    6.054419e-05
  1.282760e-02    5.593399e-05
  1.312654e-02    5.135678e-05
  1.342547e-02    4.738794e-05
  1.372440e-02    4.414649e-05
  1.402333e-02    4.113072e-05
  1.432226e-02    3.830497e-05
  1.462119e-02    3.582652e-05
  1.492012e-02    3.348421e-05
  1.521905e-02    3.139403e-05
  1.551798e-02    2.957328e-05
  1.581691e-02    2.775368e-05
  1.611584e-02    2.607643e-05
  1.641477e-02    2.460249e-05
  1.671370e-02    2.322431e-05
  1.701263e-02    2.213184e-05
  1.731156e-02    2.114735e-05
  1.761049e-02    2.007466e-05
  1.790942e-02    1.904751e-05
  1.820835e-02    1.813300e-05
  1.850728e-02    1.732089e-05
  1.880621e-02    1.652314e-05
  1.910514e-02    1.587546e-05
  1.940407e-02    1.530415e-05
  1.970300e-02    1.465173e-05
  2.000193e-02    1.402301e-05
  2.030086e-02    1.355155e-05
  2.059979e-02    1.309021e-05
  2.089873e-02    1.270208e-05
  2.119766e-02    1.223495e-05
  2.149659e-02    1.188940e-05
  2.179552e-02    1.156810e-05
  2.209445e-02    1.125067e-05
  2.239338e-02    1.095674e-05
  2.269231e-02    1.064340e-05
  2.299124e-02    1.035304e-05
  2.329017e-02    1.009476e-05
  2.358910e-02    9.802782e-06
  2.388803e-02    9.603061e-06
  2.418696e-02    9.369690e-06
  2.448589e-02    9.151948e-06
  2.478482e-02    8.985542e-06
  2.508375e-02    8.785407e-06
  2.538268e-02    8.607635e-06
  2.568161e-02    8.463581e-06
  2.598054e-02    8.377036e-06
  2.627947e-02    8.227057e-06
  2.657840e-02    8.088325e-06
  2.687733e-02    7.995370e-06
  2.717626e-02    7.869804e-06
  2.747519e-02    7.691961e-06
  2.777412e-02    7.602165e-06
  2.807305e-02    7.525671e-06
  2.837198e-02    7.438188e-06
  2.867092e-02    7.361713e-06
  2.896985e-02    7.278230e-06
  2.926878e-02    7.198505e-06
  2.956771e-02    7.129839e-06
  2.986664e-02    7.043124e-06
  3.016557e-02    6.978892e-06
  3.046450e-02    6.892577e-06
  3.076343e-02    6.780719e-06
  3.106236e-02    6.760639e-06
  3.136129e-02    6.710787e-06
  3.166022e-02    6.646640e-06
  3.195915e-02    6.612838e-06
  3.225808e-02    6.538341e-06
  3.255701e-02    6.416671e-06
  3.285594e-02    6.382717e-06
  3.315487e-02    6.367206e-06
  3.345380e-02    6.339365e-06
  3.375273e-02    6.242598e-06
  3.405166e-02    6.197172e-06
  3.435059e-02    6.089921e-06
  3.464952e-02    5.969614e-06
  3.494845e-02    5.973793e-06
  3.524738e-02    5.933606e-06
  3.554631e-02    5.878034e-06
  3.584524e-02    5.793858e-06
  3.614417e-02    5.748160e-06
  3.644310e-02    5.694385e-06
  3.674204e-02    5.645806e-06
  3.704097e-02    5.639608e-06
  3.733990e-02    5.614635e-06
  3.763883e-02    5.534982e-06
  3.793776e-02    5.490429e-06
  3.823669e-02    5.425945e-06
  3.853562e-02    5.390553e-06
  3.883455e-02    5.381031e-06
  3.913348e-02    5.348119e-06
  3.943241e-02    5.300314e-06
  3.973134e-02    5.260425e-06
  4.003027e-02    5.259292e-06
  4.032920e-02    5.228480e-06
  4.062813e-02    5.208527e-06
  4.092706e-02    5.191945e-06
  4.122599e-02    5.161403e-06
  4.152492e-02    5.126439e-06
  4.182385e-02    5.134006e-06
  4.212278e-02    5.090356e-06
  4.242171e-02    5.061405e-06
  4.272064e-02    5.044886e-06
  4.301957e-02    5.050503e-06
  4.331850e-02    5.049212e-06
  4.361743e-02    5.034344e-06
  4.391636e-02    4.995926e-06
  4.421529e-02    4.969385e-06
  4.451423e-02    4.980069e-06
  4.481316e-02    4.939480e-06
  4.511209e-02    4.950031e-06
  4.541102e-02    4.966188e-06
  4.570995e-02    4.949521e-06
  4.600888e-02    4.948314e-06
  4.630781e-02    4.945773e-06
  4.660674e-02    4.939711e-06
  4.690567e-02    4.962435e-06
  4.720460e-02    4.961665e-06
  4.750353e-02    4.938256e-06
  4.780246e-02    4.929016e-06
  4.810139e-02    4.914342e-06
  4.840032e-02    4.930929e-06
  4.869925e-02    4.912886e-06
  4.899818e-02    4.917415e-06
  4.929711e-02    4.940085e-06
  4.959604e-02    4.906693e-06
  4.989497e-02    4.890880e-06
  5.019390e-02    4.867476e-06
  5.049283e-02    4.878376e-06
  5.079176e-02    4.889552e-06
  5.109069e-02    4.913162e-06
  5.138962e-02    4.968042e-06
  5.168855e-02    5.088078e-06
  5.198748e-02    5.162839e-06
  5.228642e-02    5.107528e-06
  5.258535e-02    4.956703e-06
  5.288428e-02    4.863006e-06
  5.318321e-02    4.858808e-06
  5.348214e-02    4.850409e-06
  5.378107e-02    4.853147e-06
  5.408000e-02    4.856340e-06
  5.437893e-02    4.862467e-06
  5.467786e-02    4.872013e-06
  5.497679e-02    4.849506e-06
  5.527572e-02    4.852550e-06
  5.557465e-02    4.852055e-06
  5.587358e-02    4.899945e-06
  5.617251e-02    4.904196e-06
  5.647144e-02    4.864615e-06
  5.677037e-02    4.870938e-06
  5.706930e-02    4.862894e-06
  5.736823e-02    4.888928e-06
  5.766716e-02    4.880811e-06
  5.796609e-02    4.888198e-06
  5.826502e-02    4.883050e-06
  5.856395e-02    4.926187e-06
  5.886288e-02    4.943085e-06
  5.916181e-02    4.907601e-06
  5.946074e-02    4.903507e-06
  5.975967e-02    4.924019e-06
  6.005861e-02    4.951044e-06
  6.035754e-02    4.983510e-06
  6.065647e-02    5.032613e-06
  6.095540e-02    5.059163e-06
  6.125433e-02    5.105409e-06
  6.155326e-02    5.096292e-06
  6.185219e-02    5.030666e-06
  6.215112e-02    5.000065e-06
  6.245005e-02    4.981472e-06
  6.274898e-02    4.978016e-06
  6.304791e-02    4.949924e-06
  6.334684e-02    4.980398e-06
  6.364577e-02    5.000993e-06
  6.394470e-02    5.034865e-06
  6.424363e-02    5.035748e-06
  6.454256e-02    5.025129e-06
  6.484149e-02    5.050741e-06
  6.514042e-02    5.080863e-06
  6.543935e-02    5.071439e-06
  6.573828e-02    5.064136e-06
  6.603721e-02    5.081574e-06
  6.633614e-02    5.086360e-06
  6.663507e-02    5.096797e-06
  6.693400e-02    5.082680e-06
  6.723293e-02    5.108349e-06
  6.753186e-02    5.118243e-06
  6.783080e-02    5.118673e-06
  6.812973e-02    5.150546e-06
  6.842866e-02    5.138568e-06
  6.872759e-02    5.137671e-06
  6.902652e-02    5.145292e-06
  6.932545e-02    5.161757e-06
  6.962438e-02    5.168545e-06
  6.992331e-02    5.176967e-06
  7.022224e-02    5.193746e-06
  7.052117e-02    5.200113e-06
  7.082010e-02    5.192100e-06
  7.111903e-02    5.184538e-06
  7.141796e-02    5.194485e-06
  7.171689e-02    5.211574e-06
  7.201582e-02    5.194264e-06
  7.231475e-02    5.186473e-06
  7.261368e-02    5.220940e-06
  7.291261e-02    5.247320e-06
  7.321154e-02    5.236270e-06
  7.351047e-02    5.232993e-06
  7.380940e-02    5.225657e-06
  7.410833e-02    5.211019e-06
  7.440726e-02    5.225630e-06
  7.470619e-02    5.240848e-06
  7.500512e-02    5.256170e-06
  7.530405e-02    5.222353e-06
  7.560299e-02    5.228675e-06
  7.590192e-02    5.247879e-06
  7.620085e-02    5.265937e-06
  7.649978e-02    5.254983e-06
  7.679871e-02    5.261541e-06
  7.709764e-02    5.247585e-06
  7.739657e-02    5.217443e-06
  7.769550e-02    5.228343e-06
  7.799443e-02    5.237150e-06
  7.829336e-02    5.215860e-06
  7.859229e-02    5.265115e-06
  7.889122e-02    5.249683e-06
  7.919015e-02    5.239817e-06
  7.948908e-02    5.228121e-06
  7.978801e-02    5.234791e-06
  8.008694e-02    5.234476e-06
  8.038587e-02    5.219542e-06
  8.068480e-02    5.219101e-06
  8.098373e-02    5.206066e-06
  8.128266e-02    5.220213e-06
  8.158159e-02    5.203342e-06
  8.188052e-02    5.185213e-06
  8.217945e-02    5.178692e-06
  8.247838e-02    5.177387e-06
  8.277731e-02    5.172225e-06
  8.307624e-02    5.204235e-06
  8.337518e-02    5.184378e-06
  8.367411e-02    5.165688e-06
  8.397304e-02    5.175807e-06
  8.427197e-02    5.171857e-06
  8.457090e-02    5.142470e-06
  8.486983e-02    5.116256e-06
  8.516876e-02    5.126166e-06
  8.546769e-02    5.138273e-06
  8.576662e-02    5.131159e-06
  8.606555e-02    5.123475e-06
  8.636448e-02    5.106285e-06
  8.666341e-02    5.102020e-06
  8.696234e-02    5.098213e-06
  8.726127e-02    5.064739e-06
  8.756020e-02    5.063128e-06
  8.785913e-02    5.083872e-06
  8.815806e-02    5.067775e-06
  8.845699e-02    5.036692e-06
  8.875592e-02    5.001078e-06
  8.905485e-02    5.006194e-06
  8.935378e-02    5.012701e-06
  8.965271e-02    5.015790e-06
  8.995164e-02    5.009341e-06
  9.025057e-02    4.981204e-06
  9.054950e-02    4.975260e-06
  9.084843e-02    4.964018e-06
  9.114737e-02    4.962229e-06
  9.144630e-02    4.954802e-06
  9.174523e-02    4.947679e-06
  9.204416e-02    4.950212e-06
  9.234309e-02    4.939393e-06
  9.264202e-02    4.916842e-06
  9.294095e-02    4.911797e-06
  9.323988e-02    4.904003e-06
  9.353881e-02    4.881337e-06
  9.383774e-02    4.883621e-06
  9.413667e-02    4.865706e-06
  9.443560e-02    4.848273e-06
  9.473453e-02    4.860465e-06
  9.503346e-02    4.846388e-06
  9.533239e-02    4.814159e-06
  9.563132e-02    4.817669e-06
  9.593025e-02    4.850986e-06
  9.622918e-02    4.866215e-06
  9.652811e-02    4.856938e-06
  9.682704e-02    4.872883e-06
  9.712597e-02    4.849692e-06
  9.742490e-02    4.848930e-06
  9.772383e-02    4.844559e-06
  9.802276e-02    4.783441e-06
  9.832169e-02    4.773575e-06
  9.862062e-02    4.739786e-06
  9.891956e-02    4.720484e-06
  9.921849e-02    4.714506e-06
  9.951742e-02    4.716714e-06
  9.981635e-02    4.702473e-06
  1.001153e-01    4.714583e-06
  1.004142e-01    4.715142e-06
  1.007131e-01    4.690922e-06
  1.010121e-01    4.676362e-06
  1.013110e-01    4.641593e-06
  1.016099e-01    4.633853e-06
  1.019089e-01    4.644704e-06
  1.022078e-01    4.620493e-06
  1.025067e-01    4.597925e-06
  1.028057e-01    4.600532e-06
  1.031046e-01    4.604889e-06
  1.034035e-01    4.597467e-06
  1.037024e-01    4.579298e-06
  1.040014e-01    4.573423e-06
  1.043003e-01    4.559828e-06
  1.045992e-01    4.544011e-06
  1.048982e-01    4.524799e-06
  1.051971e-01    4.510212e-06
  1.054960e-01    4.525330e-06
  1.057950e-01    4.508526e-06
  1.060939e-01    4.487255e-06
  1.063928e-01    4.478781e-06
  1.066917e-01    4.477085e-06
  1.069907e-01    4.499020e-06
  1.072896e-01    4.496354e-06
  1.075885e-01    4.469204e-06
  1.078875e-01    4.451971e-06
  1.081864e-01    4.463655e-06
  1.084853e-01    4.460065e-06
  1.087843e-01    4.449486e-06
  1.090832e-01    4.434527e-06
  1.093821e-01    4.397571e-06
  1.096810e-01    4.387668e-06
  1.099800e-01    4.391809e-06
  1.102789e-01    4.394717e-06
  1.105778e-01    4.357842e-06
  1.108768e-01    4.347550e-06
  1.111757e-01    4.342995e-06
  1.114746e-01    4.339947e-06
  1.117736e-01    4.317809e-06
  1.120725e-01    4.277093e-06
  1.123714e-01    4.274797e-06
  1.126704e-01    4.288162e-06
  1.129693e-01    4.270930e-06
  1.132682e-01    4.241019e-06
  1.135671e-01    4.209060e-06
  1.138661e-01    4.231406e-06
  1.141650e-01    4.248280e-06
  1.144639e-01    4.245064e-06
  1.147629e-01    4.236166e-06
  1.150618e-01    4.204853e-06
  1.153607e-01    4.170173e-06
  1.156597e-01    4.185446e-06
  1.159586e-01    4.187148e-06
  1.162575e-01    4.146253e-06
  1.165564e-01    4.167078e-06
  1.168554e-01    4.218463e-06
  1.171543e-01    4.165881e-06
  1.174532e-01    4.172900e-06
  1.177522e-01    4.209915e-06
  1.180511e-01    4.214801e-06
  1.183500e-01    4.181746e-06
  1.186490e-01    4.163712e-06
  1.189479e-01    4.202079e-06
  1.192468e-01    4.157464e-06
  1.195458e-01    4.128585e-06
  1.198447e-01    4.154960e-06
  1.201436e-01    4.135448e-06
  1.204425e-01    4.131964e-06
  1.207415e-01    3.917190e-06
  1.210404e-01    3.806000e-06
  1.213393e-01    0.000000e+00
  1.216383e-01    0.000000e+00
  1.219372e-01    0.000000e+00
  1.222361e-01    0.000000e+00
  1.225351e-01    0.000000e+00
  1.228340e-01    0.000000e+00
  1.231329e-01    0.000000e+00
  1.234318e-01    0.000000e+00
  1.237308e-01    0.000000e+00
  1.240297e-01    0.000000e+00
  1.243286e-01    0.000000e+00
  1.246276e-01    0.000000e+00
  1.249265e-01    0.000000e+00
  1.252254e-01    0.000000e+00
  1.255244e-01    0.000000e+00
  1.258233e-01    0.000000e+00
  1.261222e-01    0.000000e+00
  1.264212e-01    0.000000e+00
  1.267201e-01    0.000000e+00
  1.270190e-01    0.000000e+00
  1.273179e-01    0.000000e+00
  1.276169e-01    0.000000e+00
  1.279158e-01    0.000000e+00
  1.282147e-01    0.000000e+00
  1.285137e-01    0.000000e+00
  1.288126e-01    0.000000e+00
  1.291115e-01    0.000000e+00
  1.294105e-01    0.000000e+00
  1.297094e-01    0.000000e+00
  1.300083e-01    0.000000e+00
  1.303072e-01    0.000000e+00
  1.306062e-01    0.000000e+00
  1.309051e-01    0.000000e+00
  1.312040e-01    0.000000e+00
  1.315030e-01    0.000000e+00
  1.318019e-01    0.000000e+00
  1.321008e-01    0.000000e+00
  1.323998e-01    0.000000e+00
  1.326987e-01    0.000000e+00
  1.329976e-01    0.000000e+00
  1.332965e-01    0.000000e+00
  1.335955e-01    0.000000e+00
  1.338944e-01    0.000000e+00
  1.341933e-01    0.000000e+00
  1.344923e-01    0.000000e+00
  1.347912e-01    0.000000e+00
  1.350901e-01    0.000000e+00
  1.353891e-01    0.000000e+00
  1.356880e-01    0.000000e+00
  1.359869e-01    0.000000e+00
  1.362859e-01    0.000000e+00
  1.365848e-01    0.000000e+00
  1.368837e-01    0.000000e+00
  1.371826e-01    0.000000e+00
  1.374816e-01    0.000000e+00
  1.377805e-01    0.000000e+00
  1.380794e-01    0.000000e+00
  1.383784e-01    0.000000e+00
  1.386773e-01    0.000000e+00
  1.389762e-01    0.000000e+00
  1.392752e-01    0.000000e+00
  1.395741e-01    0.000000e+00
  1.398730e-01    0.000000e+00
  1.401719e-01    0.000000e+00
  1.404709e-01    0.000000e+00
  1.407698e-01    0.000000e+00
  1.410687e-01    0.000000e+00
  1.413677e-01    0.000000e+00
  1.416666e-01    0.000000e+00
  1.419655e-01    0.000000e+00
  1.422645e-01    0.000000e+00
  1.425634e-01    0.000000e+00
  1.428623e-01    0.000000e+00
  1.431613e-01    0.000000e+00
  1.434602e-01    0.000000e+00
  1.437591e-01    0.000000e+00
  1.440580e-01    0.000000e+00
  1.443570e-01    0.000000e+00
  1.446559e-01    0.000000e+00
  1.449548e-01    0.000000e+00
  1.452538e-01    0.000000e+00
  1.455527e-01    0.000000e+00
  1.458516e-01    0.000000e+00
  1.461506e-01    0.000000e+00
  1.464495e-01    0.000000e+00
  1.467484e-01    0.000000e+00
  1.470473e-01    0.000000e+00
  1.473463e-01    0.000000e+00
  1.476452e-01    0.000000e+00
  1.479441e-01    0.000000e+00
  1.482431e-01    0.000000e+00
  1.485420e-01    0.000000e+00
  1.488409e-01    0.000000e+00
  1.491399e-01    0.000000e+00
  1.494388e-01    0.000000e+00
  1.497377e-01    0.000000e+00
  1.500367e-01    0.000000e+00
  1.503356e-01    0.000000e+00
  1.506345e-01    0.000000e+00
  1.509334e-01    0.000000e+00
  1.512324e-01    0.000000e+00
  1.515313e-01    0.000000e+00
  1.518302e-01    0.000000e+00
  1.521292e-01    0.000000e+00
  1.524281e-01    0.000000e+00
  1.527270e-01    0.000000e+00
  1.530260e-01    0.000000e+00
  1.533249e-01    0.000000e+00
  1.536238e-01    0.000000e+00
