# == pyFAI calibration ==
# Distance Sample to Detector: 2.266 m
# PONI: 5.659e-02, 4.293e-02 m
# Rotations: 0.000000 0.000000 0.000000 rad
# 
# == Fit2d calibration ==
# Distance Sample-beamCenter: 2266.000 mm
# Center: x=249.594, y=329.012 pix
# Tilt: 0.000 deg  TiltPlanRot: 0.000 deg
# 
# Detector Pilatus 300k	 PixelSize= 1.720e-04, 1.720e-04 m
#    Detector has a mask: True 
#    Detector has a dark current: False 
#    detector has a flat field: False 
# 
# Wavelength: 1.27818e-10 m
# Mask applied: user provided
# Dark current applied: False
# Flat field applied: False
# Polarization factor: None
# Normalization factor: 16851000.200000003
# --> MT-AL_F127_220228_7f9b315c-bebb-449c-bfd0-b81f87a03254_0_r1d.csv
#        q_A^-1             I 
  4.457554e-03    1.468295e-03
  4.756484e-03    1.145723e-03
  5.055415e-03    8.120630e-04
  5.354345e-03    5.649616e-04
  5.653276e-03    4.296531e-04
  5.952206e-03    6.861304e-04
  6.251136e-03    6.269588e-04
  6.550067e-03    5.447021e-04
  6.848997e-03    4.642584e-04
  7.147927e-03    3.926320e-04
  7.446858e-03    3.351643e-04
  7.745788e-03    2.871965e-04
  8.044719e-03    2.476177e-04
  8.343649e-03    2.161961e-04
  8.642579e-03    1.891868e-04
  8.941510e-03    1.662552e-04
  9.240440e-03    1.472570e-04
  9.539371e-03    1.313429e-04
  9.838301e-03    1.171447e-04
  1.013723e-02    1.048409e-04
  1.043616e-02    9.421303e-05
  1.073509e-02    8.456486e-05
  1.103402e-02    7.676165e-05
  1.133295e-02    6.973958e-05
  1.163188e-02    6.344563e-05
  1.193081e-02    5.788186e-05
  1.222974e-02    5.309254e-05
  1.252867e-02    4.872031e-05
  1.282760e-02    4.482392e-05
  1.312654e-02    4.149372e-05
  1.342547e-02    3.833959e-05
  1.372440e-02    3.557083e-05
  1.402333e-02    3.306141e-05
  1.432226e-02    3.076073e-05
  1.462119e-02    2.869058e-05
  1.492012e-02    2.685489e-05
  1.521905e-02    2.518611e-05
  1.551798e-02    2.353010e-05
  1.581691e-02    2.208684e-05
  1.611584e-02    2.087641e-05
  1.641477e-02    1.972842e-05
  1.671370e-02    1.861824e-05
  1.701263e-02    1.761384e-05
  1.731156e-02    1.666934e-05
  1.761049e-02    1.587466e-05
  1.790942e-02    1.511871e-05
  1.820835e-02    1.437588e-05
  1.850728e-02    1.370795e-05
  1.880621e-02    1.317230e-05
  1.910514e-02    1.264844e-05
  1.940407e-02    1.214119e-05
  1.970300e-02    1.169279e-05
  2.000193e-02    1.118215e-05
  2.030086e-02    1.075935e-05
  2.059979e-02    1.041816e-05
  2.089873e-02    1.006455e-05
  2.119766e-02    9.746946e-06
  2.149659e-02    9.438481e-06
  2.179552e-02    9.144840e-06
  2.209445e-02    8.823516e-06
  2.239338e-02    8.574754e-06
  2.269231e-02    8.324629e-06
  2.299124e-02    8.073352e-06
  2.329017e-02    7.903928e-06
  2.358910e-02    7.725850e-06
  2.388803e-02    7.536758e-06
  2.418696e-02    7.358045e-06
  2.448589e-02    7.199489e-06
  2.478482e-02    7.061511e-06
  2.508375e-02    6.900278e-06
  2.538268e-02    6.768169e-06
  2.568161e-02    6.660335e-06
  2.598054e-02    6.504948e-06
  2.627947e-02    6.407573e-06
  2.657840e-02    6.300369e-06
  2.687733e-02    6.190819e-06
  2.717626e-02    6.108309e-06
  2.747519e-02    6.015094e-06
  2.777412e-02    5.932925e-06
  2.807305e-02    5.854322e-06
  2.837198e-02    5.785723e-06
  2.867092e-02    5.725958e-06
  2.896985e-02    5.661781e-06
  2.926878e-02    5.585882e-06
  2.956771e-02    5.494924e-06
  2.986664e-02    5.439576e-06
  3.016557e-02    5.387820e-06
  3.046450e-02    5.289427e-06
  3.076343e-02    5.237435e-06
  3.106236e-02    5.245120e-06
  3.136129e-02    5.175477e-06
  3.166022e-02    5.115020e-06
  3.195915e-02    5.078005e-06
  3.225808e-02    4.992555e-06
  3.255701e-02    4.946181e-06
  3.285594e-02    4.941754e-06
  3.315487e-02    4.865331e-06
  3.345380e-02    4.844470e-06
  3.375273e-02    4.783305e-06
  3.405166e-02    4.729027e-06
  3.435059e-02    4.687886e-06
  3.464952e-02    4.639980e-06
  3.494845e-02    4.600990e-06
  3.524738e-02    4.563962e-06
  3.554631e-02    4.511100e-06
  3.584524e-02    4.489423e-06
  3.614417e-02    4.442932e-06
  3.644310e-02    4.386311e-06
  3.674204e-02    4.373291e-06
  3.704097e-02    4.355782e-06
  3.733990e-02    4.324399e-06
  3.763883e-02    4.281308e-06
  3.793776e-02    4.270333e-06
  3.823669e-02    4.224511e-06
  3.853562e-02    4.184534e-06
  3.883455e-02    4.156346e-06
  3.913348e-02    4.098981e-06
  3.943241e-02    4.106457e-06
  3.973134e-02    4.092631e-06
  4.003027e-02    4.025103e-06
  4.032920e-02    4.025896e-06
  4.062813e-02    4.033594e-06
  4.092706e-02    4.000203e-06
  4.122599e-02    3.989011e-06
  4.152492e-02    3.964254e-06
  4.182385e-02    3.946373e-06
  4.212278e-02    3.924489e-06
  4.242171e-02    3.874780e-06
  4.272064e-02    3.884396e-06
  4.301957e-02    3.886290e-06
  4.331850e-02    3.882910e-06
  4.361743e-02    3.873486e-06
  4.391636e-02    3.851182e-06
  4.421529e-02    3.853073e-06
  4.451423e-02    3.830597e-06
  4.481316e-02    3.837781e-06
  4.511209e-02    3.847725e-06
  4.541102e-02    3.828109e-06
  4.570995e-02    3.805187e-06
  4.600888e-02    3.785894e-06
  4.630781e-02    3.796589e-06
  4.660674e-02    3.782911e-06
  4.690567e-02    3.778467e-06
  4.720460e-02    3.778295e-06
  4.750353e-02    3.764187e-06
  4.780246e-02    3.774865e-06
  4.810139e-02    3.792414e-06
  4.840032e-02    3.786027e-06
  4.869925e-02    3.777390e-06
  4.899818e-02    3.746127e-06
  4.929711e-02    3.754454e-06
  4.959604e-02    3.775780e-06
  4.989497e-02    3.775590e-06
  5.019390e-02    3.770122e-06
  5.049283e-02    3.759063e-06
  5.079176e-02    3.775660e-06
  5.109069e-02    3.784451e-06
  5.138962e-02    3.812241e-06
  5.168855e-02    3.873925e-06
  5.198748e-02    3.940555e-06
  5.228642e-02    3.907154e-06
  5.258535e-02    3.799382e-06
  5.288428e-02    3.774165e-06
  5.318321e-02    3.742484e-06
  5.348214e-02    3.729456e-06
  5.378107e-02    3.742509e-06
  5.408000e-02    3.748604e-06
  5.437893e-02    3.748870e-06
  5.467786e-02    3.735203e-06
  5.497679e-02    3.717584e-06
  5.527572e-02    3.715165e-06
  5.557465e-02    3.710925e-06
  5.587358e-02    3.747853e-06
  5.617251e-02    3.763136e-06
  5.647144e-02    3.747732e-06
  5.677037e-02    3.771894e-06
  5.706930e-02    3.774990e-06
  5.736823e-02    3.782517e-06
  5.766716e-02    3.772276e-06
  5.796609e-02    3.771282e-06
  5.826502e-02    3.762995e-06
  5.856395e-02    3.765953e-06
  5.886288e-02    3.761055e-06
  5.916181e-02    3.781156e-06
  5.946074e-02    3.802448e-06
  5.975967e-02    3.815911e-06
  6.005861e-02    3.811581e-06
  6.035754e-02    3.817140e-06
  6.065647e-02    3.834190e-06
  6.095540e-02    3.853888e-06
  6.125433e-02    3.901225e-06
  6.155326e-02    3.919447e-06
  6.185219e-02    3.882598e-06
  6.215112e-02    3.844659e-06
  6.245005e-02    3.850200e-06
  6.274898e-02    3.843941e-06
  6.304791e-02    3.834071e-06
  6.334684e-02    3.849605e-06
  6.364577e-02    3.875805e-06
  6.394470e-02    3.856435e-06
  6.424363e-02    3.862004e-06
  6.454256e-02    3.865013e-06
  6.484149e-02    3.855843e-06
  6.514042e-02    3.867119e-06
  6.543935e-02    3.889422e-06
  6.573828e-02    3.860508e-06
  6.603721e-02    3.865320e-06
  6.633614e-02    3.903874e-06
  6.663507e-02    3.910088e-06
  6.693400e-02    3.916738e-06
  6.723293e-02    3.917816e-06
  6.753186e-02    3.904332e-06
  6.783080e-02    3.921454e-06
  6.812973e-02    3.936781e-06
  6.842866e-02    3.932619e-06
  6.872759e-02    3.952868e-06
  6.902652e-02    3.965927e-06
  6.932545e-02    3.978836e-06
  6.962438e-02    3.968900e-06
  6.992331e-02    3.969866e-06
  7.022224e-02    3.973245e-06
  7.052117e-02    3.989273e-06
  7.082010e-02    3.990732e-06
  7.111903e-02    3.984111e-06
  7.141796e-02    3.989739e-06
  7.171689e-02    3.996700e-06
  7.201582e-02    4.007445e-06
  7.231475e-02    4.010024e-06
  7.261368e-02    4.020104e-06
  7.291261e-02    4.021654e-06
  7.321154e-02    4.002818e-06
  7.351047e-02    4.004072e-06
  7.380940e-02    4.010057e-06
  7.410833e-02    4.032395e-06
  7.440726e-02    4.044937e-06
  7.470619e-02    4.035118e-06
  7.500512e-02    4.027095e-06
  7.530405e-02    4.017421e-06
  7.560299e-02    4.016876e-06
  7.590192e-02    4.023910e-06
  7.620085e-02    4.025369e-06
  7.649978e-02    4.025016e-06
  7.679871e-02    4.043099e-06
  7.709764e-02    4.024564e-06
  7.739657e-02    4.006471e-06
  7.769550e-02    4.035565e-06
  7.799443e-02    4.014399e-06
  7.829336e-02    4.015728e-06
  7.859229e-02    4.023623e-06
  7.889122e-02    4.013746e-06
  7.919015e-02    3.992131e-06
  7.948908e-02    3.985762e-06
  7.978801e-02    4.023878e-06
  8.008694e-02    4.035977e-06
  8.038587e-02    4.011183e-06
  8.068480e-02    4.004339e-06
  8.098373e-02    3.990067e-06
  8.128266e-02    3.991728e-06
  8.158159e-02    3.987228e-06
  8.188052e-02    3.967767e-06
  8.217945e-02    3.964210e-06
  8.247838e-02    3.977220e-06
  8.277731e-02    3.985834e-06
  8.307624e-02    3.998472e-06
  8.337518e-02    3.985488e-06
  8.367411e-02    3.957649e-06
  8.397304e-02    3.928356e-06
  8.427197e-02    3.923737e-06
  8.457090e-02    3.927274e-06
  8.486983e-02    3.944225e-06
  8.516876e-02    3.932675e-06
  8.546769e-02    3.920790e-06
  8.576662e-02    3.936831e-06
  8.606555e-02    3.945751e-06
  8.636448e-02    3.917473e-06
  8.666341e-02    3.918777e-06
  8.696234e-02    3.913262e-06
  8.726127e-02    3.901008e-06
  8.756020e-02    3.904037e-06
  8.785913e-02    3.895971e-06
  8.815806e-02    3.892093e-06
  8.845699e-02    3.862533e-06
  8.875592e-02    3.854287e-06
  8.905485e-02    3.860485e-06
  8.935378e-02    3.848751e-06
  8.965271e-02    3.834649e-06
  8.995164e-02    3.825970e-06
  9.025057e-02    3.828116e-06
  9.054950e-02    3.839978e-06
  9.084843e-02    3.814431e-06
  9.114737e-02    3.782513e-06
  9.144630e-02    3.783099e-06
  9.174523e-02    3.793160e-06
  9.204416e-02    3.779308e-06
  9.234309e-02    3.759123e-06
  9.264202e-02    3.766440e-06
  9.294095e-02    3.767605e-06
  9.323988e-02    3.763687e-06
  9.353881e-02    3.746828e-06
  9.383774e-02    3.730730e-06
  9.413667e-02    3.742465e-06
  9.443560e-02    3.745773e-06
  9.473453e-02    3.719003e-06
  9.503346e-02    3.723108e-06
  9.533239e-02    3.718648e-06
  9.563132e-02    3.695986e-06
  9.593025e-02    3.696891e-06
  9.622918e-02    3.719476e-06
  9.652811e-02    3.735758e-06
  9.682704e-02    3.739593e-06
  9.712597e-02    3.734188e-06
  9.742490e-02    3.712301e-06
  9.772383e-02    3.698215e-06
  9.802276e-02    3.671423e-06
  9.832169e-02    3.659396e-06
  9.862062e-02    3.648232e-06
  9.891956e-02    3.652897e-06
  9.921849e-02    3.646973e-06
  9.951742e-02    3.627382e-06
  9.981635e-02    3.615670e-06
  1.001153e-01    3.610284e-06
  1.004142e-01    3.589290e-06
  1.007131e-01    3.592352e-06
  1.010121e-01    3.591163e-06
  1.013110e-01    3.584138e-06
  1.016099e-01    3.567563e-06
  1.019089e-01    3.563625e-06
  1.022078e-01    3.561903e-06
  1.025067e-01    3.554995e-06
  1.028057e-01    3.546188e-06
  1.031046e-01    3.540576e-06
  1.034035e-01    3.537312e-06
  1.037024e-01    3.521801e-06
  1.040014e-01    3.510016e-06
  1.043003e-01    3.507241e-06
  1.045992e-01    3.499626e-06
  1.048982e-01    3.500689e-06
  1.051971e-01    3.501796e-06
  1.054960e-01    3.469070e-06
  1.057950e-01    3.471584e-06
  1.060939e-01    3.463526e-06
  1.063928e-01    3.464239e-06
  1.066917e-01    3.460271e-06
  1.069907e-01    3.465945e-06
  1.072896e-01    3.450569e-06
  1.075885e-01    3.453007e-06
  1.078875e-01    3.448906e-06
  1.081864e-01    3.435910e-06
  1.084853e-01    3.429096e-06
  1.087843e-01    3.425163e-06
  1.090832e-01    3.406719e-06
  1.093821e-01    3.396879e-06
  1.096810e-01    3.390359e-06
  1.099800e-01    3.388983e-06
  1.102789e-01    3.360144e-06
  1.105778e-01    3.343149e-06
  1.108768e-01    3.362936e-06
  1.111757e-01    3.359694e-06
  1.114746e-01    3.356776e-06
  1.117736e-01    3.342354e-06
  1.120725e-01    3.323520e-06
  1.123714e-01    3.318521e-06
  1.126704e-01    3.312483e-06
  1.129693e-01    3.304650e-06
  1.132682e-01    3.280715e-06
  1.135671e-01    3.250565e-06
  1.138661e-01    3.265734e-06
  1.141650e-01    3.260433e-06
  1.144639e-01    3.242558e-06
  1.147629e-01    3.279562e-06
  1.150618e-01    3.261364e-06
  1.153607e-01    3.234921e-06
  1.156597e-01    3.246749e-06
  1.159586e-01    3.237514e-06
  1.162575e-01    3.203378e-06
  1.165564e-01    3.186386e-06
  1.168554e-01    3.238144e-06
  1.171543e-01    3.274545e-06
  1.174532e-01    3.230171e-06
  1.177522e-01    3.226174e-06
  1.180511e-01    3.209916e-06
  1.183500e-01    3.226932e-06
  1.186490e-01    3.218714e-06
  1.189479e-01    3.214135e-06
  1.192468e-01    3.191832e-06
  1.195458e-01    3.159994e-06
  1.198447e-01    3.140236e-06
  1.201436e-01    3.124277e-06
  1.204425e-01    3.177814e-06
  1.207415e-01    3.065043e-06
  1.210404e-01    3.326255e-06
  1.213393e-01    0.000000e+00
  1.216383e-01    0.000000e+00
  1.219372e-01    0.000000e+00
  1.222361e-01    0.000000e+00
  1.225351e-01    0.000000e+00
  1.228340e-01    0.000000e+00
  1.231329e-01    0.000000e+00
  1.234318e-01    0.000000e+00
  1.237308e-01    0.000000e+00
  1.240297e-01    0.000000e+00
  1.243286e-01    0.000000e+00
  1.246276e-01    0.000000e+00
  1.249265e-01    0.000000e+00
  1.252254e-01    0.000000e+00
  1.255244e-01    0.000000e+00
  1.258233e-01    0.000000e+00
  1.261222e-01    0.000000e+00
  1.264212e-01    0.000000e+00
  1.267201e-01    0.000000e+00
  1.270190e-01    0.000000e+00
  1.273179e-01    0.000000e+00
  1.276169e-01    0.000000e+00
  1.279158e-01    0.000000e+00
  1.282147e-01    0.000000e+00
  1.285137e-01    0.000000e+00
  1.288126e-01    0.000000e+00
  1.291115e-01    0.000000e+00
  1.294105e-01    0.000000e+00
  1.297094e-01    0.000000e+00
  1.300083e-01    0.000000e+00
  1.303072e-01    0.000000e+00
  1.306062e-01    0.000000e+00
  1.309051e-01    0.000000e+00
  1.312040e-01    0.000000e+00
  1.315030e-01    0.000000e+00
  1.318019e-01    0.000000e+00
  1.321008e-01    0.000000e+00
  1.323998e-01    0.000000e+00
  1.326987e-01    0.000000e+00
  1.329976e-01    0.000000e+00
  1.332965e-01    0.000000e+00
  1.335955e-01    0.000000e+00
  1.338944e-01    0.000000e+00
  1.341933e-01    0.000000e+00
  1.344923e-01    0.000000e+00
  1.347912e-01    0.000000e+00
  1.350901e-01    0.000000e+00
  1.353891e-01    0.000000e+00
  1.356880e-01    0.000000e+00
  1.359869e-01    0.000000e+00
  1.362859e-01    0.000000e+00
  1.365848e-01    0.000000e+00
  1.368837e-01    0.000000e+00
  1.371826e-01    0.000000e+00
  1.374816e-01    0.000000e+00
  1.377805e-01    0.000000e+00
  1.380794e-01    0.000000e+00
  1.383784e-01    0.000000e+00
  1.386773e-01    0.000000e+00
  1.389762e-01    0.000000e+00
  1.392752e-01    0.000000e+00
  1.395741e-01    0.000000e+00
  1.398730e-01    0.000000e+00
  1.401719e-01    0.000000e+00
  1.404709e-01    0.000000e+00
  1.407698e-01    0.000000e+00
  1.410687e-01    0.000000e+00
  1.413677e-01    0.000000e+00
  1.416666e-01    0.000000e+00
  1.419655e-01    0.000000e+00
  1.422645e-01    0.000000e+00
  1.425634e-01    0.000000e+00
  1.428623e-01    0.000000e+00
  1.431613e-01    0.000000e+00
  1.434602e-01    0.000000e+00
  1.437591e-01    0.000000e+00
  1.440580e-01    0.000000e+00
  1.443570e-01    0.000000e+00
  1.446559e-01    0.000000e+00
  1.449548e-01    0.000000e+00
  1.452538e-01    0.000000e+00
  1.455527e-01    0.000000e+00
  1.458516e-01    0.000000e+00
  1.461506e-01    0.000000e+00
  1.464495e-01    0.000000e+00
  1.467484e-01    0.000000e+00
  1.470473e-01    0.000000e+00
  1.473463e-01    0.000000e+00
  1.476452e-01    0.000000e+00
  1.479441e-01    0.000000e+00
  1.482431e-01    0.000000e+00
  1.485420e-01    0.000000e+00
  1.488409e-01    0.000000e+00
  1.491399e-01    0.000000e+00
  1.494388e-01    0.000000e+00
  1.497377e-01    0.000000e+00
  1.500367e-01    0.000000e+00
  1.503356e-01    0.000000e+00
  1.506345e-01    0.000000e+00
  1.509334e-01    0.000000e+00
  1.512324e-01    0.000000e+00
  1.515313e-01    0.000000e+00
  1.518302e-01    0.000000e+00
  1.521292e-01    0.000000e+00
  1.524281e-01    0.000000e+00
  1.527270e-01    0.000000e+00
  1.530260e-01    0.000000e+00
  1.533249e-01    0.000000e+00
  1.536238e-01    0.000000e+00
