# == pyFAI calibration ==
# Distance Sample to Detector: 2.266 m
# PONI: 5.659e-02, 4.293e-02 m
# Rotations: 0.000000 0.000000 0.000000 rad
# 
# == Fit2d calibration ==
# Distance Sample-beamCenter: 2266.000 mm
# Center: x=249.594, y=329.012 pix
# Tilt: 0.000 deg  TiltPlanRot: 0.000 deg
# 
# Detector Pilatus 300k	 PixelSize= 1.720e-04, 1.720e-04 m
#    Detector has a mask: True 
#    Detector has a dark current: False 
#    detector has a flat field: False 
# 
# Wavelength: 1.27818e-10 m
# Mask applied: user provided
# Dark current applied: False
# Flat field applied: False
# Polarization factor: None
# Normalization factor: 3684086.000000001
# --> MT-AL_F127_220226_a2074d85-599b-4216-990f-d9cea59d1efa_2_r1d.csv
#        q_A^-1             I 
  4.457554e-03    2.377666e-03
  4.756484e-03    1.838192e-03
  5.055415e-03    1.286869e-03
  5.354345e-03    8.927500e-04
  5.653276e-03    6.810051e-04
  5.952206e-03    1.103744e-03
  6.251136e-03    1.005469e-03
  6.550067e-03    8.735274e-04
  6.848997e-03    7.468104e-04
  7.147927e-03    6.325776e-04
  7.446858e-03    5.402758e-04
  7.745788e-03    4.630633e-04
  8.044719e-03    3.989183e-04
  8.343649e-03    3.479070e-04
  8.642579e-03    3.043327e-04
  8.941510e-03    2.680984e-04
  9.240440e-03    2.370748e-04
  9.539371e-03    2.105294e-04
  9.838301e-03    1.875175e-04
  1.013723e-02    1.674543e-04
  1.043616e-02    1.506685e-04
  1.073509e-02    1.357157e-04
  1.103402e-02    1.229885e-04
  1.133295e-02    1.112755e-04
  1.163188e-02    1.011491e-04
  1.193081e-02    9.246668e-05
  1.222974e-02    8.441607e-05
  1.252867e-02    7.765566e-05
  1.282760e-02    7.130677e-05
  1.312654e-02    6.563972e-05
  1.342547e-02    6.059992e-05
  1.372440e-02    5.620302e-05
  1.402333e-02    5.217001e-05
  1.432226e-02    4.831626e-05
  1.462119e-02    4.545707e-05
  1.492012e-02    4.251592e-05
  1.521905e-02    3.937080e-05
  1.551798e-02    3.703269e-05
  1.581691e-02    3.503435e-05
  1.611584e-02    3.277833e-05
  1.641477e-02    3.078598e-05
  1.671370e-02    2.910280e-05
  1.701263e-02    2.756088e-05
  1.731156e-02    2.624302e-05
  1.761049e-02    2.475508e-05
  1.790942e-02    2.340495e-05
  1.820835e-02    2.244238e-05
  1.850728e-02    2.143284e-05
  1.880621e-02    2.039834e-05
  1.910514e-02    1.959753e-05
  1.940407e-02    1.867678e-05
  1.970300e-02    1.797602e-05
  2.000193e-02    1.727534e-05
  2.030086e-02    1.660639e-05
  2.059979e-02    1.611976e-05
  2.089873e-02    1.553904e-05
  2.119766e-02    1.494430e-05
  2.149659e-02    1.448752e-05
  2.179552e-02    1.400964e-05
  2.209445e-02    1.345031e-05
  2.239338e-02    1.302484e-05
  2.269231e-02    1.270692e-05
  2.299124e-02    1.232557e-05
  2.329017e-02    1.203834e-05
  2.358910e-02    1.172146e-05
  2.388803e-02    1.145255e-05
  2.418696e-02    1.115401e-05
  2.448589e-02    1.084727e-05
  2.478482e-02    1.064084e-05
  2.508375e-02    1.052533e-05
  2.538268e-02    1.037266e-05
  2.568161e-02    1.014866e-05
  2.598054e-02    9.939197e-06
  2.627947e-02    9.816577e-06
  2.657840e-02    9.630109e-06
  2.687733e-02    9.411264e-06
  2.717626e-02    9.375090e-06
  2.747519e-02    9.237725e-06
  2.777412e-02    9.053862e-06
  2.807305e-02    8.942872e-06
  2.837198e-02    8.822319e-06
  2.867092e-02    8.732777e-06
  2.896985e-02    8.627349e-06
  2.926878e-02    8.438671e-06
  2.956771e-02    8.393870e-06
  2.986664e-02    8.267261e-06
  3.016557e-02    8.261855e-06
  3.046450e-02    8.191609e-06
  3.076343e-02    8.040079e-06
  3.106236e-02    7.926736e-06
  3.136129e-02    7.918917e-06
  3.166022e-02    7.860018e-06
  3.195915e-02    7.735791e-06
  3.225808e-02    7.698470e-06
  3.255701e-02    7.579213e-06
  3.285594e-02    7.466015e-06
  3.315487e-02    7.451410e-06
  3.345380e-02    7.368003e-06
  3.375273e-02    7.262359e-06
  3.405166e-02    7.155877e-06
  3.435059e-02    7.102114e-06
  3.464952e-02    7.041856e-06
  3.494845e-02    6.972707e-06
  3.524738e-02    6.881079e-06
  3.554631e-02    6.828224e-06
  3.584524e-02    6.703924e-06
  3.614417e-02    6.637231e-06
  3.644310e-02    6.648421e-06
  3.674204e-02    6.622162e-06
  3.704097e-02    6.550877e-06
  3.733990e-02    6.456718e-06
  3.763883e-02    6.479317e-06
  3.793776e-02    6.470110e-06
  3.823669e-02    6.376712e-06
  3.853562e-02    6.275669e-06
  3.883455e-02    6.225945e-06
  3.913348e-02    6.184496e-06
  3.943241e-02    6.115183e-06
  3.973134e-02    6.129580e-06
  4.003027e-02    6.104689e-06
  4.032920e-02    6.032074e-06
  4.062813e-02    5.999161e-06
  4.092706e-02    5.955164e-06
  4.122599e-02    5.922048e-06
  4.152492e-02    5.952914e-06
  4.182385e-02    5.912075e-06
  4.212278e-02    5.831597e-06
  4.242171e-02    5.786145e-06
  4.272064e-02    5.749144e-06
  4.301957e-02    5.803649e-06
  4.331850e-02    5.782044e-06
  4.361743e-02    5.718715e-06
  4.391636e-02    5.679696e-06
  4.421529e-02    5.686699e-06
  4.451423e-02    5.689155e-06
  4.481316e-02    5.662498e-06
  4.511209e-02    5.684336e-06
  4.541102e-02    5.690729e-06
  4.570995e-02    5.612469e-06
  4.600888e-02    5.612230e-06
  4.630781e-02    5.657907e-06
  4.660674e-02    5.711664e-06
  4.690567e-02    5.650837e-06
  4.720460e-02    5.647313e-06
  4.750353e-02    5.606327e-06
  4.780246e-02    5.598136e-06
  4.810139e-02    5.636717e-06
  4.840032e-02    5.629858e-06
  4.869925e-02    5.561253e-06
  4.899818e-02    5.509724e-06
  4.929711e-02    5.533363e-06
  4.959604e-02    5.559104e-06
  4.989497e-02    5.558508e-06
  5.019390e-02    5.583738e-06
  5.049283e-02    5.613255e-06
  5.079176e-02    5.568333e-06
  5.109069e-02    5.625279e-06
  5.138962e-02    5.644994e-06
  5.168855e-02    5.708093e-06
  5.198748e-02    5.868306e-06
  5.228642e-02    5.832258e-06
  5.258535e-02    5.633789e-06
  5.288428e-02    5.495052e-06
  5.318321e-02    5.490921e-06
  5.348214e-02    5.503452e-06
  5.378107e-02    5.498711e-06
  5.408000e-02    5.497601e-06
  5.437893e-02    5.506001e-06
  5.467786e-02    5.519108e-06
  5.497679e-02    5.525135e-06
  5.527572e-02    5.520075e-06
  5.557465e-02    5.561308e-06
  5.587358e-02    5.550114e-06
  5.617251e-02    5.521924e-06
  5.647144e-02    5.518730e-06
  5.677037e-02    5.492202e-06
  5.706930e-02    5.514402e-06
  5.736823e-02    5.488112e-06
  5.766716e-02    5.507427e-06
  5.796609e-02    5.536208e-06
  5.826502e-02    5.484419e-06
  5.856395e-02    5.470565e-06
  5.886288e-02    5.504694e-06
  5.916181e-02    5.513066e-06
  5.946074e-02    5.553814e-06
  5.975967e-02    5.580149e-06
  6.005861e-02    5.606428e-06
  6.035754e-02    5.610897e-06
  6.065647e-02    5.615957e-06
  6.095540e-02    5.679680e-06
  6.125433e-02    5.817196e-06
  6.155326e-02    5.862642e-06
  6.185219e-02    5.722805e-06
  6.215112e-02    5.641869e-06
  6.245005e-02    5.660473e-06
  6.274898e-02    5.642152e-06
  6.304791e-02    5.614513e-06
  6.334684e-02    5.600884e-06
  6.364577e-02    5.626129e-06
  6.394470e-02    5.679211e-06
  6.424363e-02    5.672872e-06
  6.454256e-02    5.667782e-06
  6.484149e-02    5.636104e-06
  6.514042e-02    5.684933e-06
  6.543935e-02    5.713548e-06
  6.573828e-02    5.700266e-06
  6.603721e-02    5.708306e-06
  6.633614e-02    5.692164e-06
  6.663507e-02    5.738538e-06
  6.693400e-02    5.738742e-06
  6.723293e-02    5.748163e-06
  6.753186e-02    5.807478e-06
  6.783080e-02    5.815525e-06
  6.812973e-02    5.776923e-06
  6.842866e-02    5.801291e-06
  6.872759e-02    5.860079e-06
  6.902652e-02    5.843628e-06
  6.932545e-02    5.820638e-06
  6.962438e-02    5.841783e-06
  6.992331e-02    5.866729e-06
  7.022224e-02    5.899093e-06
  7.052117e-02    5.872834e-06
  7.082010e-02    5.887478e-06
  7.111903e-02    5.913917e-06
  7.141796e-02    5.892407e-06
  7.171689e-02    5.884249e-06
  7.201582e-02    5.873285e-06
  7.231475e-02    5.866013e-06
  7.261368e-02    5.924851e-06
  7.291261e-02    5.970854e-06
  7.321154e-02    5.920523e-06
  7.351047e-02    5.924090e-06
  7.380940e-02    5.886259e-06
  7.410833e-02    5.909018e-06
  7.440726e-02    5.891494e-06
  7.470619e-02    5.907107e-06
  7.500512e-02    5.901982e-06
  7.530405e-02    5.917026e-06
  7.560299e-02    5.916389e-06
  7.590192e-02    5.940044e-06
  7.620085e-02    5.977945e-06
  7.649978e-02    5.937989e-06
  7.679871e-02    5.913485e-06
  7.709764e-02    5.921693e-06
  7.739657e-02    5.928801e-06
  7.769550e-02    5.909740e-06
  7.799443e-02    5.942277e-06
  7.829336e-02    5.937126e-06
  7.859229e-02    5.917147e-06
  7.889122e-02    5.957038e-06
  7.919015e-02    5.913984e-06
  7.948908e-02    5.897969e-06
  7.978801e-02    5.900155e-06
  8.008694e-02    5.913325e-06
  8.038587e-02    5.939561e-06
  8.068480e-02    5.907144e-06
  8.098373e-02    5.912590e-06
  8.128266e-02    5.914259e-06
  8.158159e-02    5.862553e-06
  8.188052e-02    5.848783e-06
  8.217945e-02    5.875811e-06
  8.247838e-02    5.847504e-06
  8.277731e-02    5.882957e-06
  8.307624e-02    5.850259e-06
  8.337518e-02    5.823656e-06
  8.367411e-02    5.845600e-06
  8.397304e-02    5.802259e-06
  8.427197e-02    5.801348e-06
  8.457090e-02    5.850579e-06
  8.486983e-02    5.813037e-06
  8.516876e-02    5.751342e-06
  8.546769e-02    5.709147e-06
  8.576662e-02    5.767183e-06
  8.606555e-02    5.751324e-06
  8.636448e-02    5.726042e-06
  8.666341e-02    5.744980e-06
  8.696234e-02    5.743957e-06
  8.726127e-02    5.749002e-06
  8.756020e-02    5.750537e-06
  8.785913e-02    5.708846e-06
  8.815806e-02    5.678953e-06
  8.845699e-02    5.701015e-06
  8.875592e-02    5.706756e-06
  8.905485e-02    5.661656e-06
  8.935378e-02    5.647394e-06
  8.965271e-02    5.638403e-06
  8.995164e-02    5.602288e-06
  9.025057e-02    5.610829e-06
  9.054950e-02    5.593579e-06
  9.084843e-02    5.558525e-06
  9.114737e-02    5.512578e-06
  9.144630e-02    5.521757e-06
  9.174523e-02    5.603203e-06
  9.204416e-02    5.595507e-06
  9.234309e-02    5.517651e-06
  9.264202e-02    5.510839e-06
  9.294095e-02    5.491729e-06
  9.323988e-02    5.505658e-06
  9.353881e-02    5.469020e-06
  9.383774e-02    5.449352e-06
  9.413667e-02    5.474225e-06
  9.443560e-02    5.431266e-06
  9.473453e-02    5.427679e-06
  9.503346e-02    5.426707e-06
  9.533239e-02    5.424757e-06
  9.563132e-02    5.435278e-06
  9.593025e-02    5.485544e-06
  9.622918e-02    5.497147e-06
  9.652811e-02    5.473279e-06
  9.682704e-02    5.471175e-06
  9.712597e-02    5.473566e-06
  9.742490e-02    5.459201e-06
  9.772383e-02    5.408696e-06
  9.802276e-02    5.378497e-06
  9.832169e-02    5.373169e-06
  9.862062e-02    5.319846e-06
  9.891956e-02    5.274048e-06
  9.921849e-02    5.309488e-06
  9.951742e-02    5.340145e-06
  9.981635e-02    5.306279e-06
  1.001153e-01    5.272015e-06
  1.004142e-01    5.243986e-06
  1.007131e-01    5.238837e-06
  1.010121e-01    5.254393e-06
  1.013110e-01    5.274610e-06
  1.016099e-01    5.235656e-06
  1.019089e-01    5.213247e-06
  1.022078e-01    5.175186e-06
  1.025067e-01    5.181667e-06
  1.028057e-01    5.209136e-06
  1.031046e-01    5.160377e-06
  1.034035e-01    5.079380e-06
  1.037024e-01    5.077031e-06
  1.040014e-01    5.086687e-06
  1.043003e-01    5.093274e-06
  1.045992e-01    5.097899e-06
  1.048982e-01    5.104866e-06
  1.051971e-01    5.109596e-06
  1.054960e-01    5.079332e-06
  1.057950e-01    5.071508e-06
  1.060939e-01    5.075928e-06
  1.063928e-01    5.048003e-06
  1.066917e-01    5.015165e-06
  1.069907e-01    5.051512e-06
  1.072896e-01    5.054377e-06
  1.075885e-01    5.004611e-06
  1.078875e-01    4.974603e-06
  1.081864e-01    4.955933e-06
  1.084853e-01    4.966161e-06
  1.087843e-01    4.977646e-06
  1.090832e-01    5.004521e-06
  1.093821e-01    4.946422e-06
  1.096810e-01    4.929034e-06
  1.099800e-01    4.925900e-06
  1.102789e-01    4.885070e-06
  1.105778e-01    4.871776e-06
  1.108768e-01    4.836502e-06
  1.111757e-01    4.859083e-06
  1.114746e-01    4.879723e-06
  1.117736e-01    4.913733e-06
  1.120725e-01    4.880417e-06
  1.123714e-01    4.839195e-06
  1.126704e-01    4.813450e-06
  1.129693e-01    4.751438e-06
  1.132682e-01    4.767456e-06
  1.135671e-01    4.747578e-06
  1.138661e-01    4.797227e-06
  1.141650e-01    4.790503e-06
  1.144639e-01    4.669882e-06
  1.147629e-01    4.639576e-06
  1.150618e-01    4.731640e-06
  1.153607e-01    4.728618e-06
  1.156597e-01    4.734571e-06
  1.159586e-01    4.746816e-06
  1.162575e-01    4.701639e-06
  1.165564e-01    4.666060e-06
  1.168554e-01    4.685362e-06
  1.171543e-01    4.716181e-06
  1.174532e-01    4.704789e-06
  1.177522e-01    4.770964e-06
  1.180511e-01    4.716921e-06
  1.183500e-01    4.663407e-06
  1.186490e-01    4.702689e-06
  1.189479e-01    4.628763e-06
  1.192468e-01    4.635953e-06
  1.195458e-01    4.700999e-06
  1.198447e-01    4.624777e-06
  1.201436e-01    4.367161e-06
  1.204425e-01    4.367655e-06
  1.207415e-01    4.231485e-06
  1.210404e-01    4.075254e-06
  1.213393e-01    0.000000e+00
  1.216383e-01    0.000000e+00
  1.219372e-01    0.000000e+00
  1.222361e-01    0.000000e+00
  1.225351e-01    0.000000e+00
  1.228340e-01    0.000000e+00
  1.231329e-01    0.000000e+00
  1.234318e-01    0.000000e+00
  1.237308e-01    0.000000e+00
  1.240297e-01    0.000000e+00
  1.243286e-01    0.000000e+00
  1.246276e-01    0.000000e+00
  1.249265e-01    0.000000e+00
  1.252254e-01    0.000000e+00
  1.255244e-01    0.000000e+00
  1.258233e-01    0.000000e+00
  1.261222e-01    0.000000e+00
  1.264212e-01    0.000000e+00
  1.267201e-01    0.000000e+00
  1.270190e-01    0.000000e+00
  1.273179e-01    0.000000e+00
  1.276169e-01    0.000000e+00
  1.279158e-01    0.000000e+00
  1.282147e-01    0.000000e+00
  1.285137e-01    0.000000e+00
  1.288126e-01    0.000000e+00
  1.291115e-01    0.000000e+00
  1.294105e-01    0.000000e+00
  1.297094e-01    0.000000e+00
  1.300083e-01    0.000000e+00
  1.303072e-01    0.000000e+00
  1.306062e-01    0.000000e+00
  1.309051e-01    0.000000e+00
  1.312040e-01    0.000000e+00
  1.315030e-01    0.000000e+00
  1.318019e-01    0.000000e+00
  1.321008e-01    0.000000e+00
  1.323998e-01    0.000000e+00
  1.326987e-01    0.000000e+00
  1.329976e-01    0.000000e+00
  1.332965e-01    0.000000e+00
  1.335955e-01    0.000000e+00
  1.338944e-01    0.000000e+00
  1.341933e-01    0.000000e+00
  1.344923e-01    0.000000e+00
  1.347912e-01    0.000000e+00
  1.350901e-01    0.000000e+00
  1.353891e-01    0.000000e+00
  1.356880e-01    0.000000e+00
  1.359869e-01    0.000000e+00
  1.362859e-01    0.000000e+00
  1.365848e-01    0.000000e+00
  1.368837e-01    0.000000e+00
  1.371826e-01    0.000000e+00
  1.374816e-01    0.000000e+00
  1.377805e-01    0.000000e+00
  1.380794e-01    0.000000e+00
  1.383784e-01    0.000000e+00
  1.386773e-01    0.000000e+00
  1.389762e-01    0.000000e+00
  1.392752e-01    0.000000e+00
  1.395741e-01    0.000000e+00
  1.398730e-01    0.000000e+00
  1.401719e-01    0.000000e+00
  1.404709e-01    0.000000e+00
  1.407698e-01    0.000000e+00
  1.410687e-01    0.000000e+00
  1.413677e-01    0.000000e+00
  1.416666e-01    0.000000e+00
  1.419655e-01    0.000000e+00
  1.422645e-01    0.000000e+00
  1.425634e-01    0.000000e+00
  1.428623e-01    0.000000e+00
  1.431613e-01    0.000000e+00
  1.434602e-01    0.000000e+00
  1.437591e-01    0.000000e+00
  1.440580e-01    0.000000e+00
  1.443570e-01    0.000000e+00
  1.446559e-01    0.000000e+00
  1.449548e-01    0.000000e+00
  1.452538e-01    0.000000e+00
  1.455527e-01    0.000000e+00
  1.458516e-01    0.000000e+00
  1.461506e-01    0.000000e+00
  1.464495e-01    0.000000e+00
  1.467484e-01    0.000000e+00
  1.470473e-01    0.000000e+00
  1.473463e-01    0.000000e+00
  1.476452e-01    0.000000e+00
  1.479441e-01    0.000000e+00
  1.482431e-01    0.000000e+00
  1.485420e-01    0.000000e+00
  1.488409e-01    0.000000e+00
  1.491399e-01    0.000000e+00
  1.494388e-01    0.000000e+00
  1.497377e-01    0.000000e+00
  1.500367e-01    0.000000e+00
  1.503356e-01    0.000000e+00
  1.506345e-01    0.000000e+00
  1.509334e-01    0.000000e+00
  1.512324e-01    0.000000e+00
  1.515313e-01    0.000000e+00
  1.518302e-01    0.000000e+00
  1.521292e-01    0.000000e+00
  1.524281e-01    0.000000e+00
  1.527270e-01    0.000000e+00
  1.530260e-01    0.000000e+00
  1.533249e-01    0.000000e+00
  1.536238e-01    0.000000e+00
