# == pyFAI calibration ==
# Distance Sample to Detector: 2.266 m
# PONI: 5.659e-02, 4.293e-02 m
# Rotations: 0.000000 0.000000 0.000000 rad
# 
# == Fit2d calibration ==
# Distance Sample-beamCenter: 2266.000 mm
# Center: x=249.594, y=329.012 pix
# Tilt: 0.000 deg  TiltPlanRot: 0.000 deg
# 
# Detector Pilatus 300k	 PixelSize= 1.720e-04, 1.720e-04 m
#    Detector has a mask: True 
#    Detector has a dark current: False 
#    detector has a flat field: False 
# 
# Wavelength: 1.27818e-10 m
# Mask applied: user provided
# Dark current applied: False
# Flat field applied: False
# Polarization factor: None
# Normalization factor: 5990348.800000001
# --> MT-AL_F127_220226_a2074d85-599b-4216-990f-d9cea59d1efa_0_r1d.csv
#        q_A^-1             I 
  4.457554e-03    1.551201e-03
  4.756484e-03    1.209604e-03
  5.055415e-03    8.509598e-04
  5.354345e-03    5.888588e-04
  5.653276e-03    4.475020e-04
  5.952206e-03    7.252445e-04
  6.251136e-03    6.612053e-04
  6.550067e-03    5.768911e-04
  6.848997e-03    4.943387e-04
  7.147927e-03    4.166891e-04
  7.446858e-03    3.564773e-04
  7.745788e-03    3.050566e-04
  8.044719e-03    2.621223e-04
  8.343649e-03    2.295536e-04
  8.642579e-03    2.012193e-04
  8.941510e-03    1.767583e-04
  9.240440e-03    1.566614e-04
  9.539371e-03    1.389559e-04
  9.838301e-03    1.239762e-04
  1.013723e-02    1.110166e-04
  1.043616e-02    1.000096e-04
  1.073509e-02    9.002781e-05
  1.103402e-02    8.138036e-05
  1.133295e-02    7.344195e-05
  1.163188e-02    6.707605e-05
  1.193081e-02    6.142478e-05
  1.222974e-02    5.609944e-05
  1.252867e-02    5.182610e-05
  1.282760e-02    4.778180e-05
  1.312654e-02    4.373583e-05
  1.342547e-02    4.032047e-05
  1.372440e-02    3.748211e-05
  1.402333e-02    3.471100e-05
  1.432226e-02    3.239904e-05
  1.462119e-02    3.020535e-05
  1.492012e-02    2.817659e-05
  1.521905e-02    2.646302e-05
  1.551798e-02    2.480830e-05
  1.581691e-02    2.326749e-05
  1.611584e-02    2.201217e-05
  1.641477e-02    2.077140e-05
  1.671370e-02    1.963604e-05
  1.701263e-02    1.865377e-05
  1.731156e-02    1.757890e-05
  1.761049e-02    1.657439e-05
  1.790942e-02    1.597904e-05
  1.820835e-02    1.515872e-05
  1.850728e-02    1.442368e-05
  1.880621e-02    1.385210e-05
  1.910514e-02    1.323520e-05
  1.940407e-02    1.269824e-05
  1.970300e-02    1.226140e-05
  2.000193e-02    1.178771e-05
  2.030086e-02    1.130726e-05
  2.059979e-02    1.086276e-05
  2.089873e-02    1.049288e-05
  2.119766e-02    1.018492e-05
  2.149659e-02    9.856708e-06
  2.179552e-02    9.536520e-06
  2.209445e-02    9.232233e-06
  2.239338e-02    9.093072e-06
  2.269231e-02    8.864674e-06
  2.299124e-02    8.604233e-06
  2.329017e-02    8.340178e-06
  2.358910e-02    8.054706e-06
  2.388803e-02    7.901533e-06
  2.418696e-02    7.789939e-06
  2.448589e-02    7.588918e-06
  2.478482e-02    7.403486e-06
  2.508375e-02    7.243388e-06
  2.538268e-02    7.126311e-06
  2.568161e-02    7.024822e-06
  2.598054e-02    6.840751e-06
  2.627947e-02    6.687336e-06
  2.657840e-02    6.618666e-06
  2.687733e-02    6.577930e-06
  2.717626e-02    6.396214e-06
  2.747519e-02    6.337692e-06
  2.777412e-02    6.289697e-06
  2.807305e-02    6.168844e-06
  2.837198e-02    6.091059e-06
  2.867092e-02    5.981328e-06
  2.896985e-02    5.929348e-06
  2.926878e-02    5.896008e-06
  2.956771e-02    5.771418e-06
  2.986664e-02    5.654038e-06
  3.016557e-02    5.664492e-06
  3.046450e-02    5.656399e-06
  3.076343e-02    5.576005e-06
  3.106236e-02    5.491463e-06
  3.136129e-02    5.450011e-06
  3.166022e-02    5.421460e-06
  3.195915e-02    5.368221e-06
  3.225808e-02    5.270585e-06
  3.255701e-02    5.243661e-06
  3.285594e-02    5.231283e-06
  3.315487e-02    5.142846e-06
  3.345380e-02    5.110721e-06
  3.375273e-02    5.119535e-06
  3.405166e-02    5.075075e-06
  3.435059e-02    4.944676e-06
  3.464952e-02    4.893520e-06
  3.494845e-02    4.835214e-06
  3.524738e-02    4.813709e-06
  3.554631e-02    4.826112e-06
  3.584524e-02    4.723782e-06
  3.614417e-02    4.679282e-06
  3.644310e-02    4.624063e-06
  3.674204e-02    4.592900e-06
  3.704097e-02    4.549737e-06
  3.733990e-02    4.484200e-06
  3.763883e-02    4.469042e-06
  3.793776e-02    4.414332e-06
  3.823669e-02    4.422731e-06
  3.853562e-02    4.406232e-06
  3.883455e-02    4.382332e-06
  3.913348e-02    4.360113e-06
  3.943241e-02    4.281409e-06
  3.973134e-02    4.253465e-06
  4.003027e-02    4.214388e-06
  4.032920e-02    4.197469e-06
  4.062813e-02    4.123604e-06
  4.092706e-02    4.088382e-06
  4.122599e-02    4.065791e-06
  4.152492e-02    4.095021e-06
  4.182385e-02    4.093395e-06
  4.212278e-02    4.042345e-06
  4.242171e-02    3.994258e-06
  4.272064e-02    4.014073e-06
  4.301957e-02    4.033100e-06
  4.331850e-02    4.010659e-06
  4.361743e-02    3.991348e-06
  4.391636e-02    3.949423e-06
  4.421529e-02    3.937629e-06
  4.451423e-02    3.936196e-06
  4.481316e-02    3.916198e-06
  4.511209e-02    3.925622e-06
  4.541102e-02    3.951276e-06
  4.570995e-02    3.923888e-06
  4.600888e-02    3.892525e-06
  4.630781e-02    3.912837e-06
  4.660674e-02    3.917257e-06
  4.690567e-02    3.870839e-06
  4.720460e-02    3.898836e-06
  4.750353e-02    3.909195e-06
  4.780246e-02    3.893100e-06
  4.810139e-02    3.889254e-06
  4.840032e-02    3.875007e-06
  4.869925e-02    3.830379e-06
  4.899818e-02    3.845295e-06
  4.929711e-02    3.884140e-06
  4.959604e-02    3.863188e-06
  4.989497e-02    3.836008e-06
  5.019390e-02    3.847104e-06
  5.049283e-02    3.855244e-06
  5.079176e-02    3.877342e-06
  5.109069e-02    3.883760e-06
  5.138962e-02    3.948881e-06
  5.168855e-02    4.041911e-06
  5.198748e-02    4.058938e-06
  5.228642e-02    3.997167e-06
  5.258535e-02    3.865154e-06
  5.288428e-02    3.807177e-06
  5.318321e-02    3.841248e-06
  5.348214e-02    3.824292e-06
  5.378107e-02    3.795918e-06
  5.408000e-02    3.807267e-06
  5.437893e-02    3.800536e-06
  5.467786e-02    3.806960e-06
  5.497679e-02    3.800852e-06
  5.527572e-02    3.813111e-06
  5.557465e-02    3.828882e-06
  5.587358e-02    3.825734e-06
  5.617251e-02    3.804324e-06
  5.647144e-02    3.816319e-06
  5.677037e-02    3.810385e-06
  5.706930e-02    3.822285e-06
  5.736823e-02    3.771587e-06
  5.766716e-02    3.766920e-06
  5.796609e-02    3.783296e-06
  5.826502e-02    3.806091e-06
  5.856395e-02    3.820472e-06
  5.886288e-02    3.847421e-06
  5.916181e-02    3.830927e-06
  5.946074e-02    3.814075e-06
  5.975967e-02    3.799506e-06
  6.005861e-02    3.832917e-06
  6.035754e-02    3.848957e-06
  6.065647e-02    3.863366e-06
  6.095540e-02    3.904082e-06
  6.125433e-02    3.951504e-06
  6.155326e-02    3.977225e-06
  6.185219e-02    3.912168e-06
  6.215112e-02    3.869397e-06
  6.245005e-02    3.843873e-06
  6.274898e-02    3.854457e-06
  6.304791e-02    3.906606e-06
  6.334684e-02    3.886204e-06
  6.364577e-02    3.849862e-06
  6.394470e-02    3.874879e-06
  6.424363e-02    3.858706e-06
  6.454256e-02    3.888401e-06
  6.484149e-02    3.914396e-06
  6.514042e-02    3.890021e-06
  6.543935e-02    3.891937e-06
  6.573828e-02    3.918239e-06
  6.603721e-02    3.918306e-06
  6.633614e-02    3.919921e-06
  6.663507e-02    3.914183e-06
  6.693400e-02    3.927068e-06
  6.723293e-02    3.907514e-06
  6.753186e-02    3.928951e-06
  6.783080e-02    3.937269e-06
  6.812973e-02    3.944613e-06
  6.842866e-02    3.957826e-06
  6.872759e-02    3.966097e-06
  6.902652e-02    3.977500e-06
  6.932545e-02    3.946359e-06
  6.962438e-02    3.940498e-06
  6.992331e-02    3.958811e-06
  7.022224e-02    3.958970e-06
  7.052117e-02    3.969313e-06
  7.082010e-02    3.981089e-06
  7.111903e-02    3.972598e-06
  7.141796e-02    3.975214e-06
  7.171689e-02    3.986334e-06
  7.201582e-02    4.007015e-06
  7.231475e-02    3.997186e-06
  7.261368e-02    3.998218e-06
  7.291261e-02    4.001604e-06
  7.321154e-02    3.988121e-06
  7.351047e-02    3.998726e-06
  7.380940e-02    4.038628e-06
  7.410833e-02    4.050043e-06
  7.440726e-02    4.006558e-06
  7.470619e-02    3.992495e-06
  7.500512e-02    4.007299e-06
  7.530405e-02    4.006275e-06
  7.560299e-02    4.024043e-06
  7.590192e-02    3.981174e-06
  7.620085e-02    4.002278e-06
  7.649978e-02    4.020065e-06
  7.679871e-02    3.975023e-06
  7.709764e-02    3.964982e-06
  7.739657e-02    3.998879e-06
  7.769550e-02    4.011297e-06
  7.799443e-02    4.009029e-06
  7.829336e-02    3.981934e-06
  7.859229e-02    3.974108e-06
  7.889122e-02    3.969220e-06
  7.919015e-02    3.977852e-06
  7.948908e-02    3.983841e-06
  7.978801e-02    3.983952e-06
  8.008694e-02    3.981194e-06
  8.038587e-02    3.983003e-06
  8.068480e-02    3.961474e-06
  8.098373e-02    3.975693e-06
  8.128266e-02    3.989046e-06
  8.158159e-02    3.984343e-06
  8.188052e-02    3.938884e-06
  8.217945e-02    3.941107e-06
  8.247838e-02    3.939870e-06
  8.277731e-02    3.924528e-06
  8.307624e-02    3.887423e-06
  8.337518e-02    3.915869e-06
  8.367411e-02    3.920351e-06
  8.397304e-02    3.919611e-06
  8.427197e-02    3.874307e-06
  8.457090e-02    3.870545e-06
  8.486983e-02    3.864528e-06
  8.516876e-02    3.832069e-06
  8.546769e-02    3.876833e-06
  8.576662e-02    3.893609e-06
  8.606555e-02    3.862315e-06
  8.636448e-02    3.847727e-06
  8.666341e-02    3.817902e-06
  8.696234e-02    3.815245e-06
  8.726127e-02    3.820574e-06
  8.756020e-02    3.794030e-06
  8.785913e-02    3.795733e-06
  8.815806e-02    3.819001e-06
  8.845699e-02    3.815178e-06
  8.875592e-02    3.810640e-06
  8.905485e-02    3.788886e-06
  8.935378e-02    3.769366e-06
  8.965271e-02    3.759289e-06
  8.995164e-02    3.750965e-06
  9.025057e-02    3.738327e-06
  9.054950e-02    3.731202e-06
  9.084843e-02    3.741757e-06
  9.114737e-02    3.725012e-06
  9.144630e-02    3.701257e-06
  9.174523e-02    3.707769e-06
  9.204416e-02    3.717525e-06
  9.234309e-02    3.676564e-06
  9.264202e-02    3.691255e-06
  9.294095e-02    3.694638e-06
  9.323988e-02    3.669609e-06
  9.353881e-02    3.664560e-06
  9.383774e-02    3.677122e-06
  9.413667e-02    3.677209e-06
  9.443560e-02    3.682156e-06
  9.473453e-02    3.664685e-06
  9.503346e-02    3.647782e-06
  9.533239e-02    3.651818e-06
  9.563132e-02    3.652762e-06
  9.593025e-02    3.660880e-06
  9.622918e-02    3.678609e-06
  9.652811e-02    3.716277e-06
  9.682704e-02    3.725845e-06
  9.712597e-02    3.703017e-06
  9.742490e-02    3.677674e-06
  9.772383e-02    3.639174e-06
  9.802276e-02    3.606514e-06
  9.832169e-02    3.582298e-06
  9.862062e-02    3.570454e-06
  9.891956e-02    3.574167e-06
  9.921849e-02    3.557703e-06
  9.951742e-02    3.520802e-06
  9.981635e-02    3.549994e-06
  1.001153e-01    3.539172e-06
  1.004142e-01    3.513595e-06
  1.007131e-01    3.519749e-06
  1.010121e-01    3.507284e-06
  1.013110e-01    3.533419e-06
  1.016099e-01    3.519736e-06
  1.019089e-01    3.503336e-06
  1.022078e-01    3.465151e-06
  1.025067e-01    3.470197e-06
  1.028057e-01    3.496145e-06
  1.031046e-01    3.489901e-06
  1.034035e-01    3.476254e-06
  1.037024e-01    3.460387e-06
  1.040014e-01    3.466393e-06
  1.043003e-01    3.436910e-06
  1.045992e-01    3.415567e-06
  1.048982e-01    3.438733e-06
  1.051971e-01    3.433088e-06
  1.054960e-01    3.425936e-06
  1.057950e-01    3.431496e-06
  1.060939e-01    3.420114e-06
  1.063928e-01    3.406127e-06
  1.066917e-01    3.403362e-06
  1.069907e-01    3.390936e-06
  1.072896e-01    3.354178e-06
  1.075885e-01    3.347707e-06
  1.078875e-01    3.380774e-06
  1.081864e-01    3.390513e-06
  1.084853e-01    3.379206e-06
  1.087843e-01    3.419581e-06
  1.090832e-01    3.412988e-06
  1.093821e-01    3.369766e-06
  1.096810e-01    3.342481e-06
  1.099800e-01    3.322030e-06
  1.102789e-01    3.299541e-06
  1.105778e-01    3.302134e-06
  1.108768e-01    3.292440e-06
  1.111757e-01    3.311814e-06
  1.114746e-01    3.338093e-06
  1.117736e-01    3.329477e-06
  1.120725e-01    3.265024e-06
  1.123714e-01    3.226435e-06
  1.126704e-01    3.267254e-06
  1.129693e-01    3.260883e-06
  1.132682e-01    3.253843e-06
  1.135671e-01    3.189385e-06
  1.138661e-01    3.190340e-06
  1.141650e-01    3.210936e-06
  1.144639e-01    3.160444e-06
  1.147629e-01    3.154604e-06
  1.150618e-01    3.153496e-06
  1.153607e-01    3.121221e-06
  1.156597e-01    3.073376e-06
  1.159586e-01    3.099627e-06
  1.162575e-01    3.129351e-06
  1.165564e-01    3.157581e-06
  1.168554e-01    3.192072e-06
  1.171543e-01    3.167382e-06
  1.174532e-01    3.172984e-06
  1.177522e-01    3.142806e-06
  1.180511e-01    3.168199e-06
  1.183500e-01    3.181161e-06
  1.186490e-01    3.191431e-06
  1.189479e-01    3.194272e-06
  1.192468e-01    3.193587e-06
  1.195458e-01    3.117228e-06
  1.198447e-01    3.060358e-06
  1.201436e-01    3.049389e-06
  1.204425e-01    3.043396e-06
  1.207415e-01    2.997265e-06
  1.210404e-01    2.506296e-06
  1.213393e-01    0.000000e+00
  1.216383e-01    0.000000e+00
  1.219372e-01    0.000000e+00
  1.222361e-01    0.000000e+00
  1.225351e-01    0.000000e+00
  1.228340e-01    0.000000e+00
  1.231329e-01    0.000000e+00
  1.234318e-01    0.000000e+00
  1.237308e-01    0.000000e+00
  1.240297e-01    0.000000e+00
  1.243286e-01    0.000000e+00
  1.246276e-01    0.000000e+00
  1.249265e-01    0.000000e+00
  1.252254e-01    0.000000e+00
  1.255244e-01    0.000000e+00
  1.258233e-01    0.000000e+00
  1.261222e-01    0.000000e+00
  1.264212e-01    0.000000e+00
  1.267201e-01    0.000000e+00
  1.270190e-01    0.000000e+00
  1.273179e-01    0.000000e+00
  1.276169e-01    0.000000e+00
  1.279158e-01    0.000000e+00
  1.282147e-01    0.000000e+00
  1.285137e-01    0.000000e+00
  1.288126e-01    0.000000e+00
  1.291115e-01    0.000000e+00
  1.294105e-01    0.000000e+00
  1.297094e-01    0.000000e+00
  1.300083e-01    0.000000e+00
  1.303072e-01    0.000000e+00
  1.306062e-01    0.000000e+00
  1.309051e-01    0.000000e+00
  1.312040e-01    0.000000e+00
  1.315030e-01    0.000000e+00
  1.318019e-01    0.000000e+00
  1.321008e-01    0.000000e+00
  1.323998e-01    0.000000e+00
  1.326987e-01    0.000000e+00
  1.329976e-01    0.000000e+00
  1.332965e-01    0.000000e+00
  1.335955e-01    0.000000e+00
  1.338944e-01    0.000000e+00
  1.341933e-01    0.000000e+00
  1.344923e-01    0.000000e+00
  1.347912e-01    0.000000e+00
  1.350901e-01    0.000000e+00
  1.353891e-01    0.000000e+00
  1.356880e-01    0.000000e+00
  1.359869e-01    0.000000e+00
  1.362859e-01    0.000000e+00
  1.365848e-01    0.000000e+00
  1.368837e-01    0.000000e+00
  1.371826e-01    0.000000e+00
  1.374816e-01    0.000000e+00
  1.377805e-01    0.000000e+00
  1.380794e-01    0.000000e+00
  1.383784e-01    0.000000e+00
  1.386773e-01    0.000000e+00
  1.389762e-01    0.000000e+00
  1.392752e-01    0.000000e+00
  1.395741e-01    0.000000e+00
  1.398730e-01    0.000000e+00
  1.401719e-01    0.000000e+00
  1.404709e-01    0.000000e+00
  1.407698e-01    0.000000e+00
  1.410687e-01    0.000000e+00
  1.413677e-01    0.000000e+00
  1.416666e-01    0.000000e+00
  1.419655e-01    0.000000e+00
  1.422645e-01    0.000000e+00
  1.425634e-01    0.000000e+00
  1.428623e-01    0.000000e+00
  1.431613e-01    0.000000e+00
  1.434602e-01    0.000000e+00
  1.437591e-01    0.000000e+00
  1.440580e-01    0.000000e+00
  1.443570e-01    0.000000e+00
  1.446559e-01    0.000000e+00
  1.449548e-01    0.000000e+00
  1.452538e-01    0.000000e+00
  1.455527e-01    0.000000e+00
  1.458516e-01    0.000000e+00
  1.461506e-01    0.000000e+00
  1.464495e-01    0.000000e+00
  1.467484e-01    0.000000e+00
  1.470473e-01    0.000000e+00
  1.473463e-01    0.000000e+00
  1.476452e-01    0.000000e+00
  1.479441e-01    0.000000e+00
  1.482431e-01    0.000000e+00
  1.485420e-01    0.000000e+00
  1.488409e-01    0.000000e+00
  1.491399e-01    0.000000e+00
  1.494388e-01    0.000000e+00
  1.497377e-01    0.000000e+00
  1.500367e-01    0.000000e+00
  1.503356e-01    0.000000e+00
  1.506345e-01    0.000000e+00
  1.509334e-01    0.000000e+00
  1.512324e-01    0.000000e+00
  1.515313e-01    0.000000e+00
  1.518302e-01    0.000000e+00
  1.521292e-01    0.000000e+00
  1.524281e-01    0.000000e+00
  1.527270e-01    0.000000e+00
  1.530260e-01    0.000000e+00
  1.533249e-01    0.000000e+00
  1.536238e-01    0.000000e+00
