# == pyFAI calibration ==
# Distance Sample to Detector: 2.266 m
# PONI: 5.659e-02, 4.293e-02 m
# Rotations: 0.000000 0.000000 0.000000 rad
# 
# == Fit2d calibration ==
# Distance Sample-beamCenter: 2266.000 mm
# Center: x=249.594, y=329.012 pix
# Tilt: 0.000 deg  TiltPlanRot: 0.000 deg
# 
# Detector Pilatus 300k	 PixelSize= 1.720e-04, 1.720e-04 m
#    Detector has a mask: True 
#    Detector has a dark current: False 
#    detector has a flat field: False 
# 
# Wavelength: 1.27818e-10 m
# Mask applied: user provided
# Dark current applied: False
# Flat field applied: False
# Polarization factor: None
# Normalization factor: 2900358.5999999996
# --> MT-AL_F127_220226_47c1da36-2278-4d98-b4fb-f372322d695f_0_r1d.csv
#        q_A^-1             I 
  4.457554e-03    6.198243e-03
  4.756484e-03    4.867486e-03
  5.055415e-03    3.472434e-03
  5.354345e-03    2.456408e-03
  5.653276e-03    1.889439e-03
  5.952206e-03    3.062206e-03
  6.251136e-03    2.804114e-03
  6.550067e-03    2.440448e-03
  6.848997e-03    2.074314e-03
  7.147927e-03    1.752727e-03
  7.446858e-03    1.496157e-03
  7.745788e-03    1.283039e-03
  8.044719e-03    1.106844e-03
  8.343649e-03    9.681234e-04
  8.642579e-03    8.468924e-04
  8.941510e-03    7.469317e-04
  9.240440e-03    6.621359e-04
  9.539371e-03    5.873548e-04
  9.838301e-03    5.225084e-04
  1.013723e-02    4.689776e-04
  1.043616e-02    4.212122e-04
  1.073509e-02    3.781166e-04
  1.103402e-02    3.425242e-04
  1.133295e-02    3.110304e-04
  1.163188e-02    2.840151e-04
  1.193081e-02    2.583268e-04
  1.222974e-02    2.367425e-04
  1.252867e-02    2.174571e-04
  1.282760e-02    2.001621e-04
  1.312654e-02    1.840139e-04
  1.342547e-02    1.704789e-04
  1.372440e-02    1.585656e-04
  1.402333e-02    1.474285e-04
  1.432226e-02    1.371720e-04
  1.462119e-02    1.275098e-04
  1.492012e-02    1.192927e-04
  1.521905e-02    1.115924e-04
  1.551798e-02    1.051551e-04
  1.581691e-02    9.847011e-05
  1.611584e-02    9.272216e-05
  1.641477e-02    8.728732e-05
  1.671370e-02    8.218950e-05
  1.701263e-02    7.800901e-05
  1.731156e-02    7.390024e-05
  1.761049e-02    7.017709e-05
  1.790942e-02    6.668646e-05
  1.820835e-02    6.359997e-05
  1.850728e-02    6.087930e-05
  1.880621e-02    5.805066e-05
  1.910514e-02    5.552393e-05
  1.940407e-02    5.297232e-05
  1.970300e-02    5.091559e-05
  2.000193e-02    4.920081e-05
  2.030086e-02    4.728703e-05
  2.059979e-02    4.553421e-05
  2.089873e-02    4.405478e-05
  2.119766e-02    4.232113e-05
  2.149659e-02    4.147975e-05
  2.179552e-02    4.025074e-05
  2.209445e-02    3.884300e-05
  2.239338e-02    3.762400e-05
  2.269231e-02    3.655259e-05
  2.299124e-02    3.557704e-05
  2.329017e-02    3.457210e-05
  2.358910e-02    3.372246e-05
  2.388803e-02    3.289559e-05
  2.418696e-02    3.198548e-05
  2.448589e-02    3.123191e-05
  2.478482e-02    3.063623e-05
  2.508375e-02    3.014860e-05
  2.538268e-02    2.946312e-05
  2.568161e-02    2.894823e-05
  2.598054e-02    2.841998e-05
  2.627947e-02    2.785731e-05
  2.657840e-02    2.730244e-05
  2.687733e-02    2.674505e-05
  2.717626e-02    2.647437e-05
  2.747519e-02    2.624852e-05
  2.777412e-02    2.580657e-05
  2.807305e-02    2.546389e-05
  2.837198e-02    2.506443e-05
  2.867092e-02    2.469970e-05
  2.896985e-02    2.438563e-05
  2.926878e-02    2.417256e-05
  2.956771e-02    2.388692e-05
  2.986664e-02    2.361457e-05
  3.016557e-02    2.332021e-05
  3.046450e-02    2.295708e-05
  3.076343e-02    2.267736e-05
  3.106236e-02    2.250421e-05
  3.136129e-02    2.221998e-05
  3.166022e-02    2.226559e-05
  3.195915e-02    2.201533e-05
  3.225808e-02    2.180478e-05
  3.255701e-02    2.161722e-05
  3.285594e-02    2.118019e-05
  3.315487e-02    2.094851e-05
  3.345380e-02    2.079717e-05
  3.375273e-02    2.050838e-05
  3.405166e-02    2.030666e-05
  3.435059e-02    2.019734e-05
  3.464952e-02    1.997406e-05
  3.494845e-02    1.997569e-05
  3.524738e-02    1.984927e-05
  3.554631e-02    1.951002e-05
  3.584524e-02    1.928395e-05
  3.614417e-02    1.919005e-05
  3.644310e-02    1.903214e-05
  3.674204e-02    1.874444e-05
  3.704097e-02    1.857350e-05
  3.733990e-02    1.851377e-05
  3.763883e-02    1.833771e-05
  3.793776e-02    1.826084e-05
  3.823669e-02    1.797947e-05
  3.853562e-02    1.780480e-05
  3.883455e-02    1.777611e-05
  3.913348e-02    1.768449e-05
  3.943241e-02    1.762096e-05
  3.973134e-02    1.759262e-05
  4.003027e-02    1.742283e-05
  4.032920e-02    1.734476e-05
  4.062813e-02    1.727397e-05
  4.092706e-02    1.712933e-05
  4.122599e-02    1.703589e-05
  4.152492e-02    1.686443e-05
  4.182385e-02    1.678567e-05
  4.212278e-02    1.669075e-05
  4.242171e-02    1.662870e-05
  4.272064e-02    1.663286e-05
  4.301957e-02    1.656754e-05
  4.331850e-02    1.646425e-05
  4.361743e-02    1.635489e-05
  4.391636e-02    1.640473e-05
  4.421529e-02    1.630910e-05
  4.451423e-02    1.625618e-05
  4.481316e-02    1.636354e-05
  4.511209e-02    1.634571e-05
  4.541102e-02    1.634806e-05
  4.570995e-02    1.630290e-05
  4.600888e-02    1.624340e-05
  4.630781e-02    1.626996e-05
  4.660674e-02    1.620364e-05
  4.690567e-02    1.624328e-05
  4.720460e-02    1.614704e-05
  4.750353e-02    1.607817e-05
  4.780246e-02    1.616104e-05
  4.810139e-02    1.619693e-05
  4.840032e-02    1.618343e-05
  4.869925e-02    1.617823e-05
  4.899818e-02    1.602775e-05
  4.929711e-02    1.590068e-05
  4.959604e-02    1.606970e-05
  4.989497e-02    1.613099e-05
  5.019390e-02    1.591249e-05
  5.049283e-02    1.592338e-05
  5.079176e-02    1.607427e-05
  5.109069e-02    1.610064e-05
  5.138962e-02    1.622828e-05
  5.168855e-02    1.652411e-05
  5.198748e-02    1.680953e-05
  5.228642e-02    1.665472e-05
  5.258535e-02    1.621899e-05
  5.288428e-02    1.587447e-05
  5.318321e-02    1.592802e-05
  5.348214e-02    1.583832e-05
  5.378107e-02    1.575950e-05
  5.408000e-02    1.582548e-05
  5.437893e-02    1.591604e-05
  5.467786e-02    1.584019e-05
  5.497679e-02    1.571452e-05
  5.527572e-02    1.579202e-05
  5.557465e-02    1.586983e-05
  5.587358e-02    1.585596e-05
  5.617251e-02    1.581703e-05
  5.647144e-02    1.591419e-05
  5.677037e-02    1.589466e-05
  5.706930e-02    1.592905e-05
  5.736823e-02    1.580921e-05
  5.766716e-02    1.588279e-05
  5.796609e-02    1.593365e-05
  5.826502e-02    1.600426e-05
  5.856395e-02    1.599937e-05
  5.886288e-02    1.599514e-05
  5.916181e-02    1.599040e-05
  5.946074e-02    1.597940e-05
  5.975967e-02    1.610042e-05
  6.005861e-02    1.618626e-05
  6.035754e-02    1.621315e-05
  6.065647e-02    1.610394e-05
  6.095540e-02    1.615947e-05
  6.125433e-02    1.648223e-05
  6.155326e-02    1.661361e-05
  6.185219e-02    1.630707e-05
  6.215112e-02    1.619183e-05
  6.245005e-02    1.614943e-05
  6.274898e-02    1.617092e-05
  6.304791e-02    1.622973e-05
  6.334684e-02    1.628681e-05
  6.364577e-02    1.627472e-05
  6.394470e-02    1.629673e-05
  6.424363e-02    1.630215e-05
  6.454256e-02    1.633251e-05
  6.484149e-02    1.633713e-05
  6.514042e-02    1.631411e-05
  6.543935e-02    1.635002e-05
  6.573828e-02    1.641663e-05
  6.603721e-02    1.633339e-05
  6.633614e-02    1.633558e-05
  6.663507e-02    1.641378e-05
  6.693400e-02    1.648729e-05
  6.723293e-02    1.643198e-05
  6.753186e-02    1.641402e-05
  6.783080e-02    1.645904e-05
  6.812973e-02    1.650485e-05
  6.842866e-02    1.653926e-05
  6.872759e-02    1.651858e-05
  6.902652e-02    1.652801e-05
  6.932545e-02    1.661166e-05
  6.962438e-02    1.660114e-05
  6.992331e-02    1.661509e-05
  7.022224e-02    1.669656e-05
  7.052117e-02    1.671755e-05
  7.082010e-02    1.664034e-05
  7.111903e-02    1.671672e-05
  7.141796e-02    1.675778e-05
  7.171689e-02    1.678321e-05
  7.201582e-02    1.677483e-05
  7.231475e-02    1.677311e-05
  7.261368e-02    1.672458e-05
  7.291261e-02    1.674491e-05
  7.321154e-02    1.680108e-05
  7.351047e-02    1.670498e-05
  7.380940e-02    1.661821e-05
  7.410833e-02    1.669016e-05
  7.440726e-02    1.675401e-05
  7.470619e-02    1.677162e-05
  7.500512e-02    1.667703e-05
  7.530405e-02    1.666036e-05
  7.560299e-02    1.673846e-05
  7.590192e-02    1.677199e-05
  7.620085e-02    1.675815e-05
  7.649978e-02    1.669911e-05
  7.679871e-02    1.669725e-05
  7.709764e-02    1.673336e-05
  7.739657e-02    1.665150e-05
  7.769550e-02    1.668382e-05
  7.799443e-02    1.679501e-05
  7.829336e-02    1.676413e-05
  7.859229e-02    1.670928e-05
  7.889122e-02    1.668071e-05
  7.919015e-02    1.659611e-05
  7.948908e-02    1.658118e-05
  7.978801e-02    1.653681e-05
  8.008694e-02    1.653284e-05
  8.038587e-02    1.661082e-05
  8.068480e-02    1.664074e-05
  8.098373e-02    1.665747e-05
  8.128266e-02    1.658222e-05
  8.158159e-02    1.662222e-05
  8.188052e-02    1.649852e-05
  8.217945e-02    1.638581e-05
  8.247838e-02    1.637854e-05
  8.277731e-02    1.641263e-05
  8.307624e-02    1.638990e-05
  8.337518e-02    1.642337e-05
  8.367411e-02    1.631504e-05
  8.397304e-02    1.631374e-05
  8.427197e-02    1.636015e-05
  8.457090e-02    1.633015e-05
  8.486983e-02    1.634572e-05
  8.516876e-02    1.630050e-05
  8.546769e-02    1.619195e-05
  8.576662e-02    1.621006e-05
  8.606555e-02    1.620861e-05
  8.636448e-02    1.610480e-05
  8.666341e-02    1.596178e-05
  8.696234e-02    1.605427e-05
  8.726127e-02    1.605304e-05
  8.756020e-02    1.601380e-05
  8.785913e-02    1.602313e-05
  8.815806e-02    1.603856e-05
  8.845699e-02    1.596444e-05
  8.875592e-02    1.583031e-05
  8.905485e-02    1.585914e-05
  8.935378e-02    1.593133e-05
  8.965271e-02    1.586031e-05
  8.995164e-02    1.582558e-05
  9.025057e-02    1.583860e-05
  9.054950e-02    1.580544e-05
  9.084843e-02    1.576427e-05
  9.114737e-02    1.574076e-05
  9.144630e-02    1.566684e-05
  9.174523e-02    1.563299e-05
  9.204416e-02    1.564503e-05
  9.234309e-02    1.555895e-05
  9.264202e-02    1.551394e-05
  9.294095e-02    1.553905e-05
  9.323988e-02    1.555316e-05
  9.353881e-02    1.556344e-05
  9.383774e-02    1.541117e-05
  9.413667e-02    1.537770e-05
  9.443560e-02    1.532645e-05
  9.473453e-02    1.536376e-05
  9.503346e-02    1.545877e-05
  9.533239e-02    1.540628e-05
  9.563132e-02    1.534470e-05
  9.593025e-02    1.530471e-05
  9.622918e-02    1.532177e-05
  9.652811e-02    1.534332e-05
  9.682704e-02    1.535188e-05
  9.712597e-02    1.537898e-05
  9.742490e-02    1.534023e-05
  9.772383e-02    1.524905e-05
  9.802276e-02    1.511561e-05
  9.832169e-02    1.505945e-05
  9.862062e-02    1.506860e-05
  9.891956e-02    1.499939e-05
  9.921849e-02    1.494926e-05
  9.951742e-02    1.492712e-05
  9.981635e-02    1.484179e-05
  1.001153e-01    1.477306e-05
  1.004142e-01    1.480496e-05
  1.007131e-01    1.485639e-05
  1.010121e-01    1.477465e-05
  1.013110e-01    1.475986e-05
  1.016099e-01    1.474341e-05
  1.019089e-01    1.471916e-05
  1.022078e-01    1.469407e-05
  1.025067e-01    1.464472e-05
  1.028057e-01    1.461013e-05
  1.031046e-01    1.449495e-05
  1.034035e-01    1.448466e-05
  1.037024e-01    1.453248e-05
  1.040014e-01    1.454313e-05
  1.043003e-01    1.451946e-05
  1.045992e-01    1.446798e-05
  1.048982e-01    1.453685e-05
  1.051971e-01    1.454008e-05
  1.054960e-01    1.436297e-05
  1.057950e-01    1.427996e-05
  1.060939e-01    1.429947e-05
  1.063928e-01    1.438320e-05
  1.066917e-01    1.448406e-05
  1.069907e-01    1.438912e-05
  1.072896e-01    1.436309e-05
  1.075885e-01    1.428012e-05
  1.078875e-01    1.421816e-05
  1.081864e-01    1.423178e-05
  1.084853e-01    1.426064e-05
  1.087843e-01    1.423548e-05
  1.090832e-01    1.426870e-05
  1.093821e-01    1.411494e-05
  1.096810e-01    1.403277e-05
  1.099800e-01    1.396562e-05
  1.102789e-01    1.394065e-05
  1.105778e-01    1.395906e-05
  1.108768e-01    1.385109e-05
  1.111757e-01    1.380530e-05
  1.114746e-01    1.387756e-05
  1.117736e-01    1.384585e-05
  1.120725e-01    1.383303e-05
  1.123714e-01    1.385508e-05
  1.126704e-01    1.373279e-05
  1.129693e-01    1.351769e-05
  1.132682e-01    1.347937e-05
  1.135671e-01    1.350994e-05
  1.138661e-01    1.356996e-05
  1.141650e-01    1.345843e-05
  1.144639e-01    1.333123e-05
  1.147629e-01    1.328658e-05
  1.150618e-01    1.337863e-05
  1.153607e-01    1.343117e-05
  1.156597e-01    1.337299e-05
  1.159586e-01    1.333418e-05
  1.162575e-01    1.326287e-05
  1.165564e-01    1.329917e-05
  1.168554e-01    1.338613e-05
  1.171543e-01    1.340029e-05
  1.174532e-01    1.316923e-05
  1.177522e-01    1.300638e-05
  1.180511e-01    1.317686e-05
  1.183500e-01    1.313277e-05
  1.186490e-01    1.322494e-05
  1.189479e-01    1.325174e-05
  1.192468e-01    1.329387e-05
  1.195458e-01    1.337676e-05
  1.198447e-01    1.320646e-05
  1.201436e-01    1.294444e-05
  1.204425e-01    1.278706e-05
  1.207415e-01    1.211601e-05
  1.210404e-01    1.138821e-05
  1.213393e-01    0.000000e+00
  1.216383e-01    0.000000e+00
  1.219372e-01    0.000000e+00
  1.222361e-01    0.000000e+00
  1.225351e-01    0.000000e+00
  1.228340e-01    0.000000e+00
  1.231329e-01    0.000000e+00
  1.234318e-01    0.000000e+00
  1.237308e-01    0.000000e+00
  1.240297e-01    0.000000e+00
  1.243286e-01    0.000000e+00
  1.246276e-01    0.000000e+00
  1.249265e-01    0.000000e+00
  1.252254e-01    0.000000e+00
  1.255244e-01    0.000000e+00
  1.258233e-01    0.000000e+00
  1.261222e-01    0.000000e+00
  1.264212e-01    0.000000e+00
  1.267201e-01    0.000000e+00
  1.270190e-01    0.000000e+00
  1.273179e-01    0.000000e+00
  1.276169e-01    0.000000e+00
  1.279158e-01    0.000000e+00
  1.282147e-01    0.000000e+00
  1.285137e-01    0.000000e+00
  1.288126e-01    0.000000e+00
  1.291115e-01    0.000000e+00
  1.294105e-01    0.000000e+00
  1.297094e-01    0.000000e+00
  1.300083e-01    0.000000e+00
  1.303072e-01    0.000000e+00
  1.306062e-01    0.000000e+00
  1.309051e-01    0.000000e+00
  1.312040e-01    0.000000e+00
  1.315030e-01    0.000000e+00
  1.318019e-01    0.000000e+00
  1.321008e-01    0.000000e+00
  1.323998e-01    0.000000e+00
  1.326987e-01    0.000000e+00
  1.329976e-01    0.000000e+00
  1.332965e-01    0.000000e+00
  1.335955e-01    0.000000e+00
  1.338944e-01    0.000000e+00
  1.341933e-01    0.000000e+00
  1.344923e-01    0.000000e+00
  1.347912e-01    0.000000e+00
  1.350901e-01    0.000000e+00
  1.353891e-01    0.000000e+00
  1.356880e-01    0.000000e+00
  1.359869e-01    0.000000e+00
  1.362859e-01    0.000000e+00
  1.365848e-01    0.000000e+00
  1.368837e-01    0.000000e+00
  1.371826e-01    0.000000e+00
  1.374816e-01    0.000000e+00
  1.377805e-01    0.000000e+00
  1.380794e-01    0.000000e+00
  1.383784e-01    0.000000e+00
  1.386773e-01    0.000000e+00
  1.389762e-01    0.000000e+00
  1.392752e-01    0.000000e+00
  1.395741e-01    0.000000e+00
  1.398730e-01    0.000000e+00
  1.401719e-01    0.000000e+00
  1.404709e-01    0.000000e+00
  1.407698e-01    0.000000e+00
  1.410687e-01    0.000000e+00
  1.413677e-01    0.000000e+00
  1.416666e-01    0.000000e+00
  1.419655e-01    0.000000e+00
  1.422645e-01    0.000000e+00
  1.425634e-01    0.000000e+00
  1.428623e-01    0.000000e+00
  1.431613e-01    0.000000e+00
  1.434602e-01    0.000000e+00
  1.437591e-01    0.000000e+00
  1.440580e-01    0.000000e+00
  1.443570e-01    0.000000e+00
  1.446559e-01    0.000000e+00
  1.449548e-01    0.000000e+00
  1.452538e-01    0.000000e+00
  1.455527e-01    0.000000e+00
  1.458516e-01    0.000000e+00
  1.461506e-01    0.000000e+00
  1.464495e-01    0.000000e+00
  1.467484e-01    0.000000e+00
  1.470473e-01    0.000000e+00
  1.473463e-01    0.000000e+00
  1.476452e-01    0.000000e+00
  1.479441e-01    0.000000e+00
  1.482431e-01    0.000000e+00
  1.485420e-01    0.000000e+00
  1.488409e-01    0.000000e+00
  1.491399e-01    0.000000e+00
  1.494388e-01    0.000000e+00
  1.497377e-01    0.000000e+00
  1.500367e-01    0.000000e+00
  1.503356e-01    0.000000e+00
  1.506345e-01    0.000000e+00
  1.509334e-01    0.000000e+00
  1.512324e-01    0.000000e+00
  1.515313e-01    0.000000e+00
  1.518302e-01    0.000000e+00
  1.521292e-01    0.000000e+00
  1.524281e-01    0.000000e+00
  1.527270e-01    0.000000e+00
  1.530260e-01    0.000000e+00
  1.533249e-01    0.000000e+00
  1.536238e-01    0.000000e+00
