# == pyFAI calibration ==
# Distance Sample to Detector: 2.266 m
# PONI: 5.659e-02, 4.293e-02 m
# Rotations: 0.000000 0.000000 0.000000 rad
# 
# == Fit2d calibration ==
# Distance Sample-beamCenter: 2266.000 mm
# Center: x=249.594, y=329.012 pix
# Tilt: 0.000 deg  TiltPlanRot: 0.000 deg
# 
# Detector Pilatus 300k	 PixelSize= 1.720e-04, 1.720e-04 m
#    Detector has a mask: True 
#    Detector has a dark current: False 
#    detector has a flat field: False 
# 
# Wavelength: 1.27818e-10 m
# Mask applied: user provided
# Dark current applied: False
# Flat field applied: False
# Polarization factor: None
# Normalization factor: 15846546.800000004
# --> MT-AL_F127_220301_6e6a896f-6162-40e1-9fd5-4a5bc2bf5f79_1_r1d.csv
#        q_A^-1             I 
  4.457554e-03    1.926356e-03
  4.756484e-03    1.520892e-03
  5.055415e-03    1.094941e-03
  5.354345e-03    7.817383e-04
  5.653276e-03    6.083847e-04
  5.952206e-03    9.630235e-04
  6.251136e-03    8.808880e-04
  6.550067e-03    7.672443e-04
  6.848997e-03    6.534884e-04
  7.147927e-03    5.531911e-04
  7.446858e-03    4.737579e-04
  7.745788e-03    4.069728e-04
  8.044719e-03    3.515711e-04
  8.343649e-03    3.071271e-04
  8.642579e-03    2.683799e-04
  8.941510e-03    2.369102e-04
  9.240440e-03    2.105588e-04
  9.539371e-03    1.870713e-04
  9.838301e-03    1.665340e-04
  1.013723e-02    1.491206e-04
  1.043616e-02    1.339430e-04
  1.073509e-02    1.202636e-04
  1.103402e-02    1.094456e-04
  1.133295e-02    9.927492e-05
  1.163188e-02    9.019118e-05
  1.193081e-02    8.249538e-05
  1.222974e-02    7.544516e-05
  1.252867e-02    6.932478e-05
  1.282760e-02    6.377710e-05
  1.312654e-02    5.865979e-05
  1.342547e-02    5.405401e-05
  1.372440e-02    5.014988e-05
  1.402333e-02    4.682772e-05
  1.432226e-02    4.360093e-05
  1.462119e-02    4.061280e-05
  1.492012e-02    3.780107e-05
  1.521905e-02    3.530984e-05
  1.551798e-02    3.305367e-05
  1.581691e-02    3.103293e-05
  1.611584e-02    2.915901e-05
  1.641477e-02    2.752636e-05
  1.671370e-02    2.596170e-05
  1.701263e-02    2.458388e-05
  1.731156e-02    2.329151e-05
  1.761049e-02    2.217170e-05
  1.790942e-02    2.103588e-05
  1.820835e-02    2.001273e-05
  1.850728e-02    1.915465e-05
  1.880621e-02    1.825985e-05
  1.910514e-02    1.740495e-05
  1.940407e-02    1.661594e-05
  1.970300e-02    1.603112e-05
  2.000193e-02    1.538638e-05
  2.030086e-02    1.474951e-05
  2.059979e-02    1.428394e-05
  2.089873e-02    1.380184e-05
  2.119766e-02    1.333086e-05
  2.149659e-02    1.278285e-05
  2.179552e-02    1.235814e-05
  2.209445e-02    1.206753e-05
  2.239338e-02    1.172622e-05
  2.269231e-02    1.138704e-05
  2.299124e-02    1.109526e-05
  2.329017e-02    1.082032e-05
  2.358910e-02    1.053693e-05
  2.388803e-02    1.026637e-05
  2.418696e-02    1.001288e-05
  2.448589e-02    9.730787e-06
  2.478482e-02    9.525657e-06
  2.508375e-02    9.349228e-06
  2.538268e-02    9.113493e-06
  2.568161e-02    8.955536e-06
  2.598054e-02    8.821956e-06
  2.627947e-02    8.645173e-06
  2.657840e-02    8.482345e-06
  2.687733e-02    8.337665e-06
  2.717626e-02    8.234998e-06
  2.747519e-02    8.088799e-06
  2.777412e-02    7.920526e-06
  2.807305e-02    7.838164e-06
  2.837198e-02    7.732673e-06
  2.867092e-02    7.626304e-06
  2.896985e-02    7.548073e-06
  2.926878e-02    7.429399e-06
  2.956771e-02    7.359251e-06
  2.986664e-02    7.262080e-06
  3.016557e-02    7.212373e-06
  3.046450e-02    7.098431e-06
  3.076343e-02    7.018307e-06
  3.106236e-02    6.997314e-06
  3.136129e-02    6.962344e-06
  3.166022e-02    6.853478e-06
  3.195915e-02    6.765609e-06
  3.225808e-02    6.681283e-06
  3.255701e-02    6.612890e-06
  3.285594e-02    6.554839e-06
  3.315487e-02    6.496855e-06
  3.345380e-02    6.427892e-06
  3.375273e-02    6.398403e-06
  3.405166e-02    6.341074e-06
  3.435059e-02    6.242248e-06
  3.464952e-02    6.203672e-06
  3.494845e-02    6.173860e-06
  3.524738e-02    6.113732e-06
  3.554631e-02    6.046474e-06
  3.584524e-02    5.953784e-06
  3.614417e-02    5.962525e-06
  3.644310e-02    5.939846e-06
  3.674204e-02    5.856508e-06
  3.704097e-02    5.825557e-06
  3.733990e-02    5.763663e-06
  3.763883e-02    5.713574e-06
  3.793776e-02    5.675649e-06
  3.823669e-02    5.635975e-06
  3.853562e-02    5.591795e-06
  3.883455e-02    5.564084e-06
  3.913348e-02    5.531505e-06
  3.943241e-02    5.481913e-06
  3.973134e-02    5.444554e-06
  4.003027e-02    5.455817e-06
  4.032920e-02    5.450172e-06
  4.062813e-02    5.416611e-06
  4.092706e-02    5.399362e-06
  4.122599e-02    5.353264e-06
  4.152492e-02    5.300761e-06
  4.182385e-02    5.288676e-06
  4.212278e-02    5.251840e-06
  4.242171e-02    5.234486e-06
  4.272064e-02    5.216375e-06
  4.301957e-02    5.199519e-06
  4.331850e-02    5.194725e-06
  4.361743e-02    5.189472e-06
  4.391636e-02    5.178347e-06
  4.421529e-02    5.162886e-06
  4.451423e-02    5.174205e-06
  4.481316e-02    5.149947e-06
  4.511209e-02    5.129818e-06
  4.541102e-02    5.113565e-06
  4.570995e-02    5.102592e-06
  4.600888e-02    5.096069e-06
  4.630781e-02    5.075251e-06
  4.660674e-02    5.066491e-06
  4.690567e-02    5.094427e-06
  4.720460e-02    5.072953e-06
  4.750353e-02    5.069443e-06
  4.780246e-02    5.064660e-06
  4.810139e-02    5.060046e-06
  4.840032e-02    5.071872e-06
  4.869925e-02    5.063914e-06
  4.899818e-02    5.071809e-06
  4.929711e-02    5.050395e-06
  4.959604e-02    5.061354e-06
  4.989497e-02    5.043286e-06
  5.019390e-02    5.032705e-06
  5.049283e-02    5.045466e-06
  5.079176e-02    5.046150e-06
  5.109069e-02    5.059072e-06
  5.138962e-02    5.095927e-06
  5.168855e-02    5.190437e-06
  5.198748e-02    5.274169e-06
  5.228642e-02    5.239916e-06
  5.258535e-02    5.087813e-06
  5.288428e-02    5.025173e-06
  5.318321e-02    5.018646e-06
  5.348214e-02    5.019793e-06
  5.378107e-02    5.030667e-06
  5.408000e-02    5.031962e-06
  5.437893e-02    5.014594e-06
  5.467786e-02    5.025719e-06
  5.497679e-02    5.018407e-06
  5.527572e-02    5.031274e-06
  5.557465e-02    5.040138e-06
  5.587358e-02    5.033104e-06
  5.617251e-02    5.048636e-06
  5.647144e-02    5.057856e-06
  5.677037e-02    5.050727e-06
  5.706930e-02    5.030979e-06
  5.736823e-02    5.043785e-06
  5.766716e-02    5.052525e-06
  5.796609e-02    5.034411e-06
  5.826502e-02    5.036876e-06
  5.856395e-02    5.044546e-06
  5.886288e-02    5.055474e-06
  5.916181e-02    5.083532e-06
  5.946074e-02    5.078898e-06
  5.975967e-02    5.086524e-06
  6.005861e-02    5.107276e-06
  6.035754e-02    5.127843e-06
  6.065647e-02    5.155493e-06
  6.095540e-02    5.180265e-06
  6.125433e-02    5.262170e-06
  6.155326e-02    5.301502e-06
  6.185219e-02    5.209288e-06
  6.215112e-02    5.143435e-06
  6.245005e-02    5.136867e-06
  6.274898e-02    5.155760e-06
  6.304791e-02    5.172843e-06
  6.334684e-02    5.180135e-06
  6.364577e-02    5.181244e-06
  6.394470e-02    5.184788e-06
  6.424363e-02    5.179579e-06
  6.454256e-02    5.209004e-06
  6.484149e-02    5.212503e-06
  6.514042e-02    5.206316e-06
  6.543935e-02    5.227800e-06
  6.573828e-02    5.229025e-06
  6.603721e-02    5.231646e-06
  6.633614e-02    5.252507e-06
  6.663507e-02    5.255971e-06
  6.693400e-02    5.273780e-06
  6.723293e-02    5.283592e-06
  6.753186e-02    5.262511e-06
  6.783080e-02    5.275086e-06
  6.812973e-02    5.292598e-06
  6.842866e-02    5.284062e-06
  6.872759e-02    5.287576e-06
  6.902652e-02    5.303592e-06
  6.932545e-02    5.314754e-06
  6.962438e-02    5.326461e-06
  6.992331e-02    5.362569e-06
  7.022224e-02    5.348219e-06
  7.052117e-02    5.327126e-06
  7.082010e-02    5.336482e-06
  7.111903e-02    5.369086e-06
  7.141796e-02    5.384527e-06
  7.171689e-02    5.386695e-06
  7.201582e-02    5.366654e-06
  7.231475e-02    5.382603e-06
  7.261368e-02    5.371559e-06
  7.291261e-02    5.381033e-06
  7.321154e-02    5.398119e-06
  7.351047e-02    5.394605e-06
  7.380940e-02    5.402701e-06
  7.410833e-02    5.410684e-06
  7.440726e-02    5.419421e-06
  7.470619e-02    5.403474e-06
  7.500512e-02    5.395415e-06
  7.530405e-02    5.408887e-06
  7.560299e-02    5.412750e-06
  7.590192e-02    5.408733e-06
  7.620085e-02    5.423735e-06
  7.649978e-02    5.419717e-06
  7.679871e-02    5.395030e-06
  7.709764e-02    5.406619e-06
  7.739657e-02    5.436883e-06
  7.769550e-02    5.432305e-06
  7.799443e-02    5.419334e-06
  7.829336e-02    5.395106e-06
  7.859229e-02    5.399980e-06
  7.889122e-02    5.380319e-06
  7.919015e-02    5.389531e-06
  7.948908e-02    5.401013e-06
  7.978801e-02    5.411852e-06
  8.008694e-02    5.403244e-06
  8.038587e-02    5.380023e-06
  8.068480e-02    5.366002e-06
  8.098373e-02    5.349907e-06
  8.128266e-02    5.354923e-06
  8.158159e-02    5.338720e-06
  8.188052e-02    5.355859e-06
  8.217945e-02    5.382691e-06
  8.247838e-02    5.374758e-06
  8.277731e-02    5.347752e-06
  8.307624e-02    5.362877e-06
  8.337518e-02    5.339054e-06
  8.367411e-02    5.323648e-06
  8.397304e-02    5.323394e-06
  8.427197e-02    5.286833e-06
  8.457090e-02    5.276911e-06
  8.486983e-02    5.273065e-06
  8.516876e-02    5.275202e-06
  8.546769e-02    5.297499e-06
  8.576662e-02    5.284144e-06
  8.606555e-02    5.279525e-06
  8.636448e-02    5.253756e-06
  8.666341e-02    5.234559e-06
  8.696234e-02    5.236391e-06
  8.726127e-02    5.259996e-06
  8.756020e-02    5.272988e-06
  8.785913e-02    5.246902e-06
  8.815806e-02    5.209608e-06
  8.845699e-02    5.190799e-06
  8.875592e-02    5.175549e-06
  8.905485e-02    5.167295e-06
  8.935378e-02    5.166102e-06
  8.965271e-02    5.148901e-06
  8.995164e-02    5.142051e-06
  9.025057e-02    5.135126e-06
  9.054950e-02    5.140794e-06
  9.084843e-02    5.123138e-06
  9.114737e-02    5.117367e-06
  9.144630e-02    5.090383e-06
  9.174523e-02    5.093591e-06
  9.204416e-02    5.070864e-06
  9.234309e-02    5.059821e-06
  9.264202e-02    5.067815e-06
  9.294095e-02    5.057899e-06
  9.323988e-02    5.062062e-06
  9.353881e-02    5.052740e-06
  9.383774e-02    5.032505e-06
  9.413667e-02    5.024213e-06
  9.443560e-02    5.009009e-06
  9.473453e-02    5.002295e-06
  9.503346e-02    4.998360e-06
  9.533239e-02    4.991291e-06
  9.563132e-02    4.984031e-06
  9.593025e-02    4.990404e-06
  9.622918e-02    5.006048e-06
  9.652811e-02    5.007873e-06
  9.682704e-02    5.006651e-06
  9.712597e-02    4.991936e-06
  9.742490e-02    4.958976e-06
  9.772383e-02    4.949973e-06
  9.802276e-02    4.941029e-06
  9.832169e-02    4.924750e-06
  9.862062e-02    4.916325e-06
  9.891956e-02    4.880971e-06
  9.921849e-02    4.861880e-06
  9.951742e-02    4.845137e-06
  9.981635e-02    4.847856e-06
  1.001153e-01    4.835850e-06
  1.004142e-01    4.817082e-06
  1.007131e-01    4.799747e-06
  1.010121e-01    4.796384e-06
  1.013110e-01    4.789208e-06
  1.016099e-01    4.774036e-06
  1.019089e-01    4.770919e-06
  1.022078e-01    4.750643e-06
  1.025067e-01    4.742344e-06
  1.028057e-01    4.758754e-06
  1.031046e-01    4.765358e-06
  1.034035e-01    4.749393e-06
  1.037024e-01    4.739118e-06
  1.040014e-01    4.716009e-06
  1.043003e-01    4.708989e-06
  1.045992e-01    4.704042e-06
  1.048982e-01    4.696179e-06
  1.051971e-01    4.708227e-06
  1.054960e-01    4.683715e-06
  1.057950e-01    4.664606e-06
  1.060939e-01    4.671215e-06
  1.063928e-01    4.676953e-06
  1.066917e-01    4.657780e-06
  1.069907e-01    4.660981e-06
  1.072896e-01    4.648142e-06
  1.075885e-01    4.624610e-06
  1.078875e-01    4.637275e-06
  1.081864e-01    4.642672e-06
  1.084853e-01    4.605732e-06
  1.087843e-01    4.592088e-06
  1.090832e-01    4.583909e-06
  1.093821e-01    4.575420e-06
  1.096810e-01    4.559942e-06
  1.099800e-01    4.547957e-06
  1.102789e-01    4.523919e-06
  1.105778e-01    4.516860e-06
  1.108768e-01    4.490790e-06
  1.111757e-01    4.489904e-06
  1.114746e-01    4.493516e-06
  1.117736e-01    4.497503e-06
  1.120725e-01    4.474154e-06
  1.123714e-01    4.466783e-06
  1.126704e-01    4.429254e-06
  1.129693e-01    4.428570e-06
  1.132682e-01    4.404782e-06
  1.135671e-01    4.372836e-06
  1.138661e-01    4.380094e-06
  1.141650e-01    4.372780e-06
  1.144639e-01    4.353321e-06
  1.147629e-01    4.337933e-06
  1.150618e-01    4.330441e-06
  1.153607e-01    4.305828e-06
  1.156597e-01    4.285974e-06
  1.159586e-01    4.295717e-06
  1.162575e-01    4.312381e-06
  1.165564e-01    4.312277e-06
  1.168554e-01    4.282754e-06
  1.171543e-01    4.277271e-06
  1.174532e-01    4.277358e-06
  1.177522e-01    4.278877e-06
  1.180511e-01    4.319667e-06
  1.183500e-01    4.336857e-06
  1.186490e-01    4.320358e-06
  1.189479e-01    4.325775e-06
  1.192468e-01    4.236346e-06
  1.195458e-01    4.224330e-06
  1.198447e-01    4.272681e-06
  1.201436e-01    4.264627e-06
  1.204425e-01    4.367473e-06
  1.207415e-01    4.401541e-06
  1.210404e-01    3.663419e-06
  1.213393e-01    0.000000e+00
  1.216383e-01    0.000000e+00
  1.219372e-01    0.000000e+00
  1.222361e-01    0.000000e+00
  1.225351e-01    0.000000e+00
  1.228340e-01    0.000000e+00
  1.231329e-01    0.000000e+00
  1.234318e-01    0.000000e+00
  1.237308e-01    0.000000e+00
  1.240297e-01    0.000000e+00
  1.243286e-01    0.000000e+00
  1.246276e-01    0.000000e+00
  1.249265e-01    0.000000e+00
  1.252254e-01    0.000000e+00
  1.255244e-01    0.000000e+00
  1.258233e-01    0.000000e+00
  1.261222e-01    0.000000e+00
  1.264212e-01    0.000000e+00
  1.267201e-01    0.000000e+00
  1.270190e-01    0.000000e+00
  1.273179e-01    0.000000e+00
  1.276169e-01    0.000000e+00
  1.279158e-01    0.000000e+00
  1.282147e-01    0.000000e+00
  1.285137e-01    0.000000e+00
  1.288126e-01    0.000000e+00
  1.291115e-01    0.000000e+00
  1.294105e-01    0.000000e+00
  1.297094e-01    0.000000e+00
  1.300083e-01    0.000000e+00
  1.303072e-01    0.000000e+00
  1.306062e-01    0.000000e+00
  1.309051e-01    0.000000e+00
  1.312040e-01    0.000000e+00
  1.315030e-01    0.000000e+00
  1.318019e-01    0.000000e+00
  1.321008e-01    0.000000e+00
  1.323998e-01    0.000000e+00
  1.326987e-01    0.000000e+00
  1.329976e-01    0.000000e+00
  1.332965e-01    0.000000e+00
  1.335955e-01    0.000000e+00
  1.338944e-01    0.000000e+00
  1.341933e-01    0.000000e+00
  1.344923e-01    0.000000e+00
  1.347912e-01    0.000000e+00
  1.350901e-01    0.000000e+00
  1.353891e-01    0.000000e+00
  1.356880e-01    0.000000e+00
  1.359869e-01    0.000000e+00
  1.362859e-01    0.000000e+00
  1.365848e-01    0.000000e+00
  1.368837e-01    0.000000e+00
  1.371826e-01    0.000000e+00
  1.374816e-01    0.000000e+00
  1.377805e-01    0.000000e+00
  1.380794e-01    0.000000e+00
  1.383784e-01    0.000000e+00
  1.386773e-01    0.000000e+00
  1.389762e-01    0.000000e+00
  1.392752e-01    0.000000e+00
  1.395741e-01    0.000000e+00
  1.398730e-01    0.000000e+00
  1.401719e-01    0.000000e+00
  1.404709e-01    0.000000e+00
  1.407698e-01    0.000000e+00
  1.410687e-01    0.000000e+00
  1.413677e-01    0.000000e+00
  1.416666e-01    0.000000e+00
  1.419655e-01    0.000000e+00
  1.422645e-01    0.000000e+00
  1.425634e-01    0.000000e+00
  1.428623e-01    0.000000e+00
  1.431613e-01    0.000000e+00
  1.434602e-01    0.000000e+00
  1.437591e-01    0.000000e+00
  1.440580e-01    0.000000e+00
  1.443570e-01    0.000000e+00
  1.446559e-01    0.000000e+00
  1.449548e-01    0.000000e+00
  1.452538e-01    0.000000e+00
  1.455527e-01    0.000000e+00
  1.458516e-01    0.000000e+00
  1.461506e-01    0.000000e+00
  1.464495e-01    0.000000e+00
  1.467484e-01    0.000000e+00
  1.470473e-01    0.000000e+00
  1.473463e-01    0.000000e+00
  1.476452e-01    0.000000e+00
  1.479441e-01    0.000000e+00
  1.482431e-01    0.000000e+00
  1.485420e-01    0.000000e+00
  1.488409e-01    0.000000e+00
  1.491399e-01    0.000000e+00
  1.494388e-01    0.000000e+00
  1.497377e-01    0.000000e+00
  1.500367e-01    0.000000e+00
  1.503356e-01    0.000000e+00
  1.506345e-01    0.000000e+00
  1.509334e-01    0.000000e+00
  1.512324e-01    0.000000e+00
  1.515313e-01    0.000000e+00
  1.518302e-01    0.000000e+00
  1.521292e-01    0.000000e+00
  1.524281e-01    0.000000e+00
  1.527270e-01    0.000000e+00
  1.530260e-01    0.000000e+00
  1.533249e-01    0.000000e+00
  1.536238e-01    0.000000e+00
