# == pyFAI calibration ==
# Distance Sample to Detector: 2.266 m
# PONI: 5.659e-02, 4.293e-02 m
# Rotations: 0.000000 0.000000 0.000000 rad
# 
# == Fit2d calibration ==
# Distance Sample-beamCenter: 2266.000 mm
# Center: x=249.594, y=329.012 pix
# Tilt: 0.000 deg  TiltPlanRot: 0.000 deg
# 
# Detector Pilatus 300k	 PixelSize= 1.720e-04, 1.720e-04 m
#    Detector has a mask: True 
#    Detector has a dark current: False 
#    detector has a flat field: False 
# 
# Wavelength: 1.27818e-10 m
# Mask applied: user provided
# Dark current applied: False
# Flat field applied: False
# Polarization factor: None
# Normalization factor: 17816775.2
# --> MT-AL_F127_220301_96848edc-eb55-4d31-b1ef-74f06ec1440b_2_r1d.csv
#        q_A^-1             I 
  4.457554e-03    1.798020e-03
  4.756484e-03    1.399069e-03
  5.055415e-03    9.936533e-04
  5.354345e-03    6.966594e-04
  5.653276e-03    5.401830e-04
  5.952206e-03    8.795182e-04
  6.251136e-03    8.006053e-04
  6.550067e-03    6.919574e-04
  6.848997e-03    5.873657e-04
  7.147927e-03    4.972770e-04
  7.446858e-03    4.244943e-04
  7.745788e-03    3.633574e-04
  8.044719e-03    3.132620e-04
  8.343649e-03    2.735311e-04
  8.642579e-03    2.390850e-04
  8.941510e-03    2.106426e-04
  9.240440e-03    1.861706e-04
  9.539371e-03    1.654641e-04
  9.838301e-03    1.474505e-04
  1.013723e-02    1.320806e-04
  1.043616e-02    1.186412e-04
  1.073509e-02    1.065193e-04
  1.103402e-02    9.661799e-05
  1.133295e-02    8.785288e-05
  1.163188e-02    8.029673e-05
  1.193081e-02    7.339405e-05
  1.222974e-02    6.701970e-05
  1.252867e-02    6.165769e-05
  1.282760e-02    5.690987e-05
  1.312654e-02    5.274230e-05
  1.342547e-02    4.886766e-05
  1.372440e-02    4.515517e-05
  1.402333e-02    4.194041e-05
  1.432226e-02    3.916926e-05
  1.462119e-02    3.657479e-05
  1.492012e-02    3.423707e-05
  1.521905e-02    3.207841e-05
  1.551798e-02    3.016161e-05
  1.581691e-02    2.828312e-05
  1.611584e-02    2.665952e-05
  1.641477e-02    2.519821e-05
  1.671370e-02    2.386686e-05
  1.701263e-02    2.258470e-05
  1.731156e-02    2.155008e-05
  1.761049e-02    2.049938e-05
  1.790942e-02    1.948999e-05
  1.820835e-02    1.861753e-05
  1.850728e-02    1.776740e-05
  1.880621e-02    1.703746e-05
  1.910514e-02    1.628823e-05
  1.940407e-02    1.560975e-05
  1.970300e-02    1.503724e-05
  2.000193e-02    1.455267e-05
  2.030086e-02    1.397750e-05
  2.059979e-02    1.346794e-05
  2.089873e-02    1.299353e-05
  2.119766e-02    1.256958e-05
  2.149659e-02    1.219011e-05
  2.179552e-02    1.180471e-05
  2.209445e-02    1.144347e-05
  2.239338e-02    1.112937e-05
  2.269231e-02    1.076465e-05
  2.299124e-02    1.050773e-05
  2.329017e-02    1.027095e-05
  2.358910e-02    1.002004e-05
  2.388803e-02    9.792612e-06
  2.418696e-02    9.635156e-06
  2.448589e-02    9.393629e-06
  2.478482e-02    9.157178e-06
  2.508375e-02    8.994102e-06
  2.538268e-02    8.838107e-06
  2.568161e-02    8.715408e-06
  2.598054e-02    8.542627e-06
  2.627947e-02    8.364963e-06
  2.657840e-02    8.234811e-06
  2.687733e-02    8.151461e-06
  2.717626e-02    7.983950e-06
  2.747519e-02    7.831426e-06
  2.777412e-02    7.791322e-06
  2.807305e-02    7.724599e-06
  2.837198e-02    7.584167e-06
  2.867092e-02    7.466347e-06
  2.896985e-02    7.400048e-06
  2.926878e-02    7.324219e-06
  2.956771e-02    7.270135e-06
  2.986664e-02    7.180754e-06
  3.016557e-02    7.057478e-06
  3.046450e-02    6.966861e-06
  3.076343e-02    6.911402e-06
  3.106236e-02    6.819326e-06
  3.136129e-02    6.727024e-06
  3.166022e-02    6.714515e-06
  3.195915e-02    6.661169e-06
  3.225808e-02    6.602408e-06
  3.255701e-02    6.545541e-06
  3.285594e-02    6.461142e-06
  3.315487e-02    6.424100e-06
  3.345380e-02    6.364411e-06
  3.375273e-02    6.318190e-06
  3.405166e-02    6.269890e-06
  3.435059e-02    6.220110e-06
  3.464952e-02    6.151083e-06
  3.494845e-02    6.096557e-06
  3.524738e-02    6.033202e-06
  3.554631e-02    5.982615e-06
  3.584524e-02    5.938104e-06
  3.614417e-02    5.886255e-06
  3.644310e-02    5.870022e-06
  3.674204e-02    5.837594e-06
  3.704097e-02    5.797702e-06
  3.733990e-02    5.722131e-06
  3.763883e-02    5.674430e-06
  3.793776e-02    5.635481e-06
  3.823669e-02    5.621283e-06
  3.853562e-02    5.583752e-06
  3.883455e-02    5.552519e-06
  3.913348e-02    5.548436e-06
  3.943241e-02    5.507621e-06
  3.973134e-02    5.482999e-06
  4.003027e-02    5.472742e-06
  4.032920e-02    5.443907e-06
  4.062813e-02    5.394474e-06
  4.092706e-02    5.334576e-06
  4.122599e-02    5.327431e-06
  4.152492e-02    5.322918e-06
  4.182385e-02    5.288478e-06
  4.212278e-02    5.287152e-06
  4.242171e-02    5.277256e-06
  4.272064e-02    5.255171e-06
  4.301957e-02    5.253552e-06
  4.331850e-02    5.232835e-06
  4.361743e-02    5.189157e-06
  4.391636e-02    5.171598e-06
  4.421529e-02    5.188431e-06
  4.451423e-02    5.180921e-06
  4.481316e-02    5.172610e-06
  4.511209e-02    5.144610e-06
  4.541102e-02    5.103820e-06
  4.570995e-02    5.113948e-06
  4.600888e-02    5.121989e-06
  4.630781e-02    5.094733e-06
  4.660674e-02    5.079930e-06
  4.690567e-02    5.091099e-06
  4.720460e-02    5.112249e-06
  4.750353e-02    5.114347e-06
  4.780246e-02    5.093810e-06
  4.810139e-02    5.071299e-06
  4.840032e-02    5.061571e-06
  4.869925e-02    5.094707e-06
  4.899818e-02    5.104416e-06
  4.929711e-02    5.102884e-06
  4.959604e-02    5.099820e-06
  4.989497e-02    5.058596e-06
  5.019390e-02    5.071844e-06
  5.049283e-02    5.072468e-06
  5.079176e-02    5.096117e-06
  5.109069e-02    5.108782e-06
  5.138962e-02    5.131099e-06
  5.168855e-02    5.229062e-06
  5.198748e-02    5.306749e-06
  5.228642e-02    5.268354e-06
  5.258535e-02    5.118452e-06
  5.288428e-02    5.057950e-06
  5.318321e-02    5.062316e-06
  5.348214e-02    5.070894e-06
  5.378107e-02    5.053744e-06
  5.408000e-02    5.049159e-06
  5.437893e-02    5.084156e-06
  5.467786e-02    5.065992e-06
  5.497679e-02    5.067388e-06
  5.527572e-02    5.073101e-06
  5.557465e-02    5.050898e-06
  5.587358e-02    5.056727e-06
  5.617251e-02    5.074438e-06
  5.647144e-02    5.100072e-06
  5.677037e-02    5.092124e-06
  5.706930e-02    5.098079e-06
  5.736823e-02    5.099092e-06
  5.766716e-02    5.112254e-06
  5.796609e-02    5.114615e-06
  5.826502e-02    5.120384e-06
  5.856395e-02    5.139169e-06
  5.886288e-02    5.127205e-06
  5.916181e-02    5.122160e-06
  5.946074e-02    5.172898e-06
  5.975967e-02    5.184662e-06
  6.005861e-02    5.181040e-06
  6.035754e-02    5.179228e-06
  6.065647e-02    5.193690e-06
  6.095540e-02    5.229313e-06
  6.125433e-02    5.301944e-06
  6.155326e-02    5.316504e-06
  6.185219e-02    5.258117e-06
  6.215112e-02    5.223797e-06
  6.245005e-02    5.207574e-06
  6.274898e-02    5.221782e-06
  6.304791e-02    5.225020e-06
  6.334684e-02    5.230607e-06
  6.364577e-02    5.245684e-06
  6.394470e-02    5.257630e-06
  6.424363e-02    5.272766e-06
  6.454256e-02    5.267312e-06
  6.484149e-02    5.255598e-06
  6.514042e-02    5.263532e-06
  6.543935e-02    5.274681e-06
  6.573828e-02    5.281770e-06
  6.603721e-02    5.304861e-06
  6.633614e-02    5.312896e-06
  6.663507e-02    5.315182e-06
  6.693400e-02    5.301532e-06
  6.723293e-02    5.298211e-06
  6.753186e-02    5.334879e-06
  6.783080e-02    5.366761e-06
  6.812973e-02    5.370284e-06
  6.842866e-02    5.367810e-06
  6.872759e-02    5.390712e-06
  6.902652e-02    5.402262e-06
  6.932545e-02    5.404473e-06
  6.962438e-02    5.407927e-06
  6.992331e-02    5.388158e-06
  7.022224e-02    5.406607e-06
  7.052117e-02    5.416885e-06
  7.082010e-02    5.416026e-06
  7.111903e-02    5.438981e-06
  7.141796e-02    5.424346e-06
  7.171689e-02    5.426621e-06
  7.201582e-02    5.458822e-06
  7.231475e-02    5.486326e-06
  7.261368e-02    5.460104e-06
  7.291261e-02    5.461950e-06
  7.321154e-02    5.462876e-06
  7.351047e-02    5.472358e-06
  7.380940e-02    5.497337e-06
  7.410833e-02    5.497855e-06
  7.440726e-02    5.475546e-06
  7.470619e-02    5.478634e-06
  7.500512e-02    5.476752e-06
  7.530405e-02    5.472406e-06
  7.560299e-02    5.498084e-06
  7.590192e-02    5.502964e-06
  7.620085e-02    5.516505e-06
  7.649978e-02    5.498752e-06
  7.679871e-02    5.493709e-06
  7.709764e-02    5.479573e-06
  7.739657e-02    5.479963e-06
  7.769550e-02    5.499312e-06
  7.799443e-02    5.486965e-06
  7.829336e-02    5.491880e-06
  7.859229e-02    5.492550e-06
  7.889122e-02    5.484293e-06
  7.919015e-02    5.470636e-06
  7.948908e-02    5.479902e-06
  7.978801e-02    5.469250e-06
  8.008694e-02    5.480028e-06
  8.038587e-02    5.458293e-06
  8.068480e-02    5.456144e-06
  8.098373e-02    5.455508e-06
  8.128266e-02    5.449317e-06
  8.158159e-02    5.443621e-06
  8.188052e-02    5.426822e-06
  8.217945e-02    5.402746e-06
  8.247838e-02    5.435229e-06
  8.277731e-02    5.444806e-06
  8.307624e-02    5.421263e-06
  8.337518e-02    5.424971e-06
  8.367411e-02    5.406516e-06
  8.397304e-02    5.400454e-06
  8.427197e-02    5.388032e-06
  8.457090e-02    5.380080e-06
  8.486983e-02    5.385195e-06
  8.516876e-02    5.401214e-06
  8.546769e-02    5.387345e-06
  8.576662e-02    5.369338e-06
  8.606555e-02    5.348086e-06
  8.636448e-02    5.346631e-06
  8.666341e-02    5.332832e-06
  8.696234e-02    5.326246e-06
  8.726127e-02    5.319402e-06
  8.756020e-02    5.313974e-06
  8.785913e-02    5.323441e-06
  8.815806e-02    5.325270e-06
  8.845699e-02    5.303443e-06
  8.875592e-02    5.286933e-06
  8.905485e-02    5.257516e-06
  8.935378e-02    5.260220e-06
  8.965271e-02    5.253087e-06
  8.995164e-02    5.247588e-06
  9.025057e-02    5.250063e-06
  9.054950e-02    5.233027e-06
  9.084843e-02    5.219427e-06
  9.114737e-02    5.201055e-06
  9.144630e-02    5.178287e-06
  9.174523e-02    5.183783e-06
  9.204416e-02    5.181449e-06
  9.234309e-02    5.180208e-06
  9.264202e-02    5.157175e-06
  9.294095e-02    5.147378e-06
  9.323988e-02    5.144552e-06
  9.353881e-02    5.128632e-06
  9.383774e-02    5.128579e-06
  9.413667e-02    5.130728e-06
  9.443560e-02    5.117296e-06
  9.473453e-02    5.106468e-06
  9.503346e-02    5.082245e-06
  9.533239e-02    5.070627e-06
  9.563132e-02    5.097248e-06
  9.593025e-02    5.081010e-06
  9.622918e-02    5.060260e-06
  9.652811e-02    5.077252e-06
  9.682704e-02    5.085754e-06
  9.712597e-02    5.072241e-06
  9.742490e-02    5.063698e-06
  9.772383e-02    5.052054e-06
  9.802276e-02    5.016014e-06
  9.832169e-02    4.990216e-06
  9.862062e-02    4.979922e-06
  9.891956e-02    4.971621e-06
  9.921849e-02    4.960245e-06
  9.951742e-02    4.949856e-06
  9.981635e-02    4.929131e-06
  1.001153e-01    4.922111e-06
  1.004142e-01    4.919503e-06
  1.007131e-01    4.883972e-06
  1.010121e-01    4.868539e-06
  1.013110e-01    4.873297e-06
  1.016099e-01    4.873350e-06
  1.019089e-01    4.869509e-06
  1.022078e-01    4.832981e-06
  1.025067e-01    4.836092e-06
  1.028057e-01    4.845561e-06
  1.031046e-01    4.828092e-06
  1.034035e-01    4.807469e-06
  1.037024e-01    4.812477e-06
  1.040014e-01    4.818458e-06
  1.043003e-01    4.803426e-06
  1.045992e-01    4.793414e-06
  1.048982e-01    4.774982e-06
  1.051971e-01    4.760804e-06
  1.054960e-01    4.744729e-06
  1.057950e-01    4.749221e-06
  1.060939e-01    4.750693e-06
  1.063928e-01    4.742725e-06
  1.066917e-01    4.726937e-06
  1.069907e-01    4.707686e-06
  1.072896e-01    4.686820e-06
  1.075885e-01    4.696316e-06
  1.078875e-01    4.677537e-06
  1.081864e-01    4.669906e-06
  1.084853e-01    4.651037e-06
  1.087843e-01    4.658607e-06
  1.090832e-01    4.665782e-06
  1.093821e-01    4.635434e-06
  1.096810e-01    4.630984e-06
  1.099800e-01    4.619273e-06
  1.102789e-01    4.601556e-06
  1.105778e-01    4.593936e-06
  1.108768e-01    4.585982e-06
  1.111757e-01    4.576795e-06
  1.114746e-01    4.579595e-06
  1.117736e-01    4.566660e-06
  1.120725e-01    4.554050e-06
  1.123714e-01    4.555633e-06
  1.126704e-01    4.535820e-06
  1.129693e-01    4.494189e-06
  1.132682e-01    4.451934e-06
  1.135671e-01    4.459360e-06
  1.138661e-01    4.469748e-06
  1.141650e-01    4.474700e-06
  1.144639e-01    4.445364e-06
  1.147629e-01    4.424415e-06
  1.150618e-01    4.396366e-06
  1.153607e-01    4.404088e-06
  1.156597e-01    4.416672e-06
  1.159586e-01    4.415956e-06
  1.162575e-01    4.442935e-06
  1.165564e-01    4.418583e-06
  1.168554e-01    4.385322e-06
  1.171543e-01    4.372362e-06
  1.174532e-01    4.338976e-06
  1.177522e-01    4.332968e-06
  1.180511e-01    4.369188e-06
  1.183500e-01    4.405896e-06
  1.186490e-01    4.380801e-06
  1.189479e-01    4.384945e-06
  1.192468e-01    4.433544e-06
  1.195458e-01    4.373166e-06
  1.198447e-01    4.331567e-06
  1.201436e-01    4.411391e-06
  1.204425e-01    4.346564e-06
  1.207415e-01    4.043657e-06
  1.210404e-01    4.213329e-06
  1.213393e-01    0.000000e+00
  1.216383e-01    0.000000e+00
  1.219372e-01    0.000000e+00
  1.222361e-01    0.000000e+00
  1.225351e-01    0.000000e+00
  1.228340e-01    0.000000e+00
  1.231329e-01    0.000000e+00
  1.234318e-01    0.000000e+00
  1.237308e-01    0.000000e+00
  1.240297e-01    0.000000e+00
  1.243286e-01    0.000000e+00
  1.246276e-01    0.000000e+00
  1.249265e-01    0.000000e+00
  1.252254e-01    0.000000e+00
  1.255244e-01    0.000000e+00
  1.258233e-01    0.000000e+00
  1.261222e-01    0.000000e+00
  1.264212e-01    0.000000e+00
  1.267201e-01    0.000000e+00
  1.270190e-01    0.000000e+00
  1.273179e-01    0.000000e+00
  1.276169e-01    0.000000e+00
  1.279158e-01    0.000000e+00
  1.282147e-01    0.000000e+00
  1.285137e-01    0.000000e+00
  1.288126e-01    0.000000e+00
  1.291115e-01    0.000000e+00
  1.294105e-01    0.000000e+00
  1.297094e-01    0.000000e+00
  1.300083e-01    0.000000e+00
  1.303072e-01    0.000000e+00
  1.306062e-01    0.000000e+00
  1.309051e-01    0.000000e+00
  1.312040e-01    0.000000e+00
  1.315030e-01    0.000000e+00
  1.318019e-01    0.000000e+00
  1.321008e-01    0.000000e+00
  1.323998e-01    0.000000e+00
  1.326987e-01    0.000000e+00
  1.329976e-01    0.000000e+00
  1.332965e-01    0.000000e+00
  1.335955e-01    0.000000e+00
  1.338944e-01    0.000000e+00
  1.341933e-01    0.000000e+00
  1.344923e-01    0.000000e+00
  1.347912e-01    0.000000e+00
  1.350901e-01    0.000000e+00
  1.353891e-01    0.000000e+00
  1.356880e-01    0.000000e+00
  1.359869e-01    0.000000e+00
  1.362859e-01    0.000000e+00
  1.365848e-01    0.000000e+00
  1.368837e-01    0.000000e+00
  1.371826e-01    0.000000e+00
  1.374816e-01    0.000000e+00
  1.377805e-01    0.000000e+00
  1.380794e-01    0.000000e+00
  1.383784e-01    0.000000e+00
  1.386773e-01    0.000000e+00
  1.389762e-01    0.000000e+00
  1.392752e-01    0.000000e+00
  1.395741e-01    0.000000e+00
  1.398730e-01    0.000000e+00
  1.401719e-01    0.000000e+00
  1.404709e-01    0.000000e+00
  1.407698e-01    0.000000e+00
  1.410687e-01    0.000000e+00
  1.413677e-01    0.000000e+00
  1.416666e-01    0.000000e+00
  1.419655e-01    0.000000e+00
  1.422645e-01    0.000000e+00
  1.425634e-01    0.000000e+00
  1.428623e-01    0.000000e+00
  1.431613e-01    0.000000e+00
  1.434602e-01    0.000000e+00
  1.437591e-01    0.000000e+00
  1.440580e-01    0.000000e+00
  1.443570e-01    0.000000e+00
  1.446559e-01    0.000000e+00
  1.449548e-01    0.000000e+00
  1.452538e-01    0.000000e+00
  1.455527e-01    0.000000e+00
  1.458516e-01    0.000000e+00
  1.461506e-01    0.000000e+00
  1.464495e-01    0.000000e+00
  1.467484e-01    0.000000e+00
  1.470473e-01    0.000000e+00
  1.473463e-01    0.000000e+00
  1.476452e-01    0.000000e+00
  1.479441e-01    0.000000e+00
  1.482431e-01    0.000000e+00
  1.485420e-01    0.000000e+00
  1.488409e-01    0.000000e+00
  1.491399e-01    0.000000e+00
  1.494388e-01    0.000000e+00
  1.497377e-01    0.000000e+00
  1.500367e-01    0.000000e+00
  1.503356e-01    0.000000e+00
  1.506345e-01    0.000000e+00
  1.509334e-01    0.000000e+00
  1.512324e-01    0.000000e+00
  1.515313e-01    0.000000e+00
  1.518302e-01    0.000000e+00
  1.521292e-01    0.000000e+00
  1.524281e-01    0.000000e+00
  1.527270e-01    0.000000e+00
  1.530260e-01    0.000000e+00
  1.533249e-01    0.000000e+00
  1.536238e-01    0.000000e+00
