# == pyFAI calibration ==
# Distance Sample to Detector: 2.266 m
# PONI: 5.659e-02, 4.293e-02 m
# Rotations: 0.000000 0.000000 0.000000 rad
# 
# == Fit2d calibration ==
# Distance Sample-beamCenter: 2266.000 mm
# Center: x=249.594, y=329.012 pix
# Tilt: 0.000 deg  TiltPlanRot: 0.000 deg
# 
# Detector Pilatus 300k	 PixelSize= 1.720e-04, 1.720e-04 m
#    Detector has a mask: True 
#    Detector has a dark current: False 
#    detector has a flat field: False 
# 
# Wavelength: 1.27818e-10 m
# Mask applied: user provided
# Dark current applied: False
# Flat field applied: False
# Polarization factor: None
# Normalization factor: 13649367.200000001
# --> MT-AL_F127_220301_ad3fba48-e661-4598-b1ce-8116f20c968e_2_r1d.csv
#        q_A^-1             I 
  4.457554e-03    1.879869e-03
  4.756484e-03    1.470192e-03
  5.055415e-03    1.044936e-03
  5.354345e-03    7.322570e-04
  5.653276e-03    5.637174e-04
  5.952206e-03    9.046338e-04
  6.251136e-03    8.266211e-04
  6.550067e-03    7.204766e-04
  6.848997e-03    6.140283e-04
  7.147927e-03    5.187977e-04
  7.446858e-03    4.423362e-04
  7.745788e-03    3.796833e-04
  8.044719e-03    3.275885e-04
  8.343649e-03    2.852652e-04
  8.642579e-03    2.497221e-04
  8.941510e-03    2.199238e-04
  9.240440e-03    1.948465e-04
  9.539371e-03    1.727995e-04
  9.838301e-03    1.537735e-04
  1.013723e-02    1.376887e-04
  1.043616e-02    1.239721e-04
  1.073509e-02    1.114950e-04
  1.103402e-02    1.011125e-04
  1.133295e-02    9.168314e-05
  1.163188e-02    8.336540e-05
  1.193081e-02    7.595200e-05
  1.222974e-02    6.995207e-05
  1.252867e-02    6.446376e-05
  1.282760e-02    5.914290e-05
  1.312654e-02    5.472523e-05
  1.342547e-02    5.064846e-05
  1.372440e-02    4.703221e-05
  1.402333e-02    4.365996e-05
  1.432226e-02    4.069129e-05
  1.462119e-02    3.790355e-05
  1.492012e-02    3.540077e-05
  1.521905e-02    3.308221e-05
  1.551798e-02    3.116388e-05
  1.581691e-02    2.934780e-05
  1.611584e-02    2.757753e-05
  1.641477e-02    2.588176e-05
  1.671370e-02    2.456959e-05
  1.701263e-02    2.337074e-05
  1.731156e-02    2.218788e-05
  1.761049e-02    2.108404e-05
  1.790942e-02    2.000386e-05
  1.820835e-02    1.898970e-05
  1.850728e-02    1.815710e-05
  1.880621e-02    1.748245e-05
  1.910514e-02    1.674862e-05
  1.940407e-02    1.596046e-05
  1.970300e-02    1.532555e-05
  2.000193e-02    1.476516e-05
  2.030086e-02    1.426560e-05
  2.059979e-02    1.371722e-05
  2.089873e-02    1.318595e-05
  2.119766e-02    1.279925e-05
  2.149659e-02    1.240187e-05
  2.179552e-02    1.201273e-05
  2.209445e-02    1.161038e-05
  2.239338e-02    1.127286e-05
  2.269231e-02    1.095387e-05
  2.299124e-02    1.067294e-05
  2.329017e-02    1.047876e-05
  2.358910e-02    1.024564e-05
  2.388803e-02    9.951046e-06
  2.418696e-02    9.716199e-06
  2.448589e-02    9.509559e-06
  2.478482e-02    9.326994e-06
  2.508375e-02    9.134421e-06
  2.538268e-02    8.950864e-06
  2.568161e-02    8.795312e-06
  2.598054e-02    8.677334e-06
  2.627947e-02    8.540180e-06
  2.657840e-02    8.358787e-06
  2.687733e-02    8.223605e-06
  2.717626e-02    8.060708e-06
  2.747519e-02    7.948028e-06
  2.777412e-02    7.846042e-06
  2.807305e-02    7.736694e-06
  2.837198e-02    7.589325e-06
  2.867092e-02    7.531712e-06
  2.896985e-02    7.467601e-06
  2.926878e-02    7.346853e-06
  2.956771e-02    7.268561e-06
  2.986664e-02    7.199327e-06
  3.016557e-02    7.106365e-06
  3.046450e-02    7.006181e-06
  3.076343e-02    6.893172e-06
  3.106236e-02    6.870036e-06
  3.136129e-02    6.871247e-06
  3.166022e-02    6.759543e-06
  3.195915e-02    6.634569e-06
  3.225808e-02    6.602919e-06
  3.255701e-02    6.581355e-06
  3.285594e-02    6.520749e-06
  3.315487e-02    6.439646e-06
  3.345380e-02    6.380586e-06
  3.375273e-02    6.358343e-06
  3.405166e-02    6.286687e-06
  3.435059e-02    6.203959e-06
  3.464952e-02    6.161975e-06
  3.494845e-02    6.101664e-06
  3.524738e-02    6.043999e-06
  3.554631e-02    6.017608e-06
  3.584524e-02    5.966098e-06
  3.614417e-02    5.892168e-06
  3.644310e-02    5.847221e-06
  3.674204e-02    5.793931e-06
  3.704097e-02    5.743819e-06
  3.733990e-02    5.700200e-06
  3.763883e-02    5.644476e-06
  3.793776e-02    5.631829e-06
  3.823669e-02    5.614403e-06
  3.853562e-02    5.557700e-06
  3.883455e-02    5.549058e-06
  3.913348e-02    5.479804e-06
  3.943241e-02    5.436577e-06
  3.973134e-02    5.426230e-06
  4.003027e-02    5.406851e-06
  4.032920e-02    5.364045e-06
  4.062813e-02    5.352469e-06
  4.092706e-02    5.314230e-06
  4.122599e-02    5.258059e-06
  4.152492e-02    5.249868e-06
  4.182385e-02    5.241354e-06
  4.212278e-02    5.257198e-06
  4.242171e-02    5.218698e-06
  4.272064e-02    5.221125e-06
  4.301957e-02    5.166674e-06
  4.331850e-02    5.129914e-06
  4.361743e-02    5.150044e-06
  4.391636e-02    5.128444e-06
  4.421529e-02    5.112955e-06
  4.451423e-02    5.113043e-06
  4.481316e-02    5.083205e-06
  4.511209e-02    5.072503e-06
  4.541102e-02    5.073231e-06
  4.570995e-02    5.089089e-06
  4.600888e-02    5.075478e-06
  4.630781e-02    5.058593e-06
  4.660674e-02    5.055948e-06
  4.690567e-02    5.071498e-06
  4.720460e-02    5.051287e-06
  4.750353e-02    5.044940e-06
  4.780246e-02    5.041508e-06
  4.810139e-02    5.024971e-06
  4.840032e-02    5.001846e-06
  4.869925e-02    5.028659e-06
  4.899818e-02    5.030830e-06
  4.929711e-02    5.028132e-06
  4.959604e-02    5.009176e-06
  4.989497e-02    5.010979e-06
  5.019390e-02    5.016866e-06
  5.049283e-02    5.017726e-06
  5.079176e-02    5.039183e-06
  5.109069e-02    5.042586e-06
  5.138962e-02    5.064674e-06
  5.168855e-02    5.121172e-06
  5.198748e-02    5.212968e-06
  5.228642e-02    5.177961e-06
  5.258535e-02    5.029346e-06
  5.288428e-02    4.984277e-06
  5.318321e-02    4.961120e-06
  5.348214e-02    4.967342e-06
  5.378107e-02    4.979319e-06
  5.408000e-02    4.994674e-06
  5.437893e-02    4.984095e-06
  5.467786e-02    4.966627e-06
  5.497679e-02    4.969236e-06
  5.527572e-02    4.975630e-06
  5.557465e-02    4.995748e-06
  5.587358e-02    4.992060e-06
  5.617251e-02    4.983050e-06
  5.647144e-02    5.014410e-06
  5.677037e-02    5.009516e-06
  5.706930e-02    4.985875e-06
  5.736823e-02    4.999553e-06
  5.766716e-02    5.007842e-06
  5.796609e-02    4.996788e-06
  5.826502e-02    5.013195e-06
  5.856395e-02    5.021762e-06
  5.886288e-02    5.023540e-06
  5.916181e-02    5.010878e-06
  5.946074e-02    5.048587e-06
  5.975967e-02    5.041152e-06
  6.005861e-02    5.055582e-06
  6.035754e-02    5.071004e-06
  6.065647e-02    5.084139e-06
  6.095540e-02    5.148745e-06
  6.125433e-02    5.231109e-06
  6.155326e-02    5.235206e-06
  6.185219e-02    5.136284e-06
  6.215112e-02    5.129515e-06
  6.245005e-02    5.127055e-06
  6.274898e-02    5.130405e-06
  6.304791e-02    5.146698e-06
  6.334684e-02    5.146981e-06
  6.364577e-02    5.136272e-06
  6.394470e-02    5.122647e-06
  6.424363e-02    5.133668e-06
  6.454256e-02    5.150272e-06
  6.484149e-02    5.178863e-06
  6.514042e-02    5.180759e-06
  6.543935e-02    5.182569e-06
  6.573828e-02    5.178144e-06
  6.603721e-02    5.166487e-06
  6.633614e-02    5.177124e-06
  6.663507e-02    5.207187e-06
  6.693400e-02    5.210774e-06
  6.723293e-02    5.224478e-06
  6.753186e-02    5.231470e-06
  6.783080e-02    5.252408e-06
  6.812973e-02    5.246296e-06
  6.842866e-02    5.233255e-06
  6.872759e-02    5.253436e-06
  6.902652e-02    5.268161e-06
  6.932545e-02    5.260756e-06
  6.962438e-02    5.282079e-06
  6.992331e-02    5.309553e-06
  7.022224e-02    5.304218e-06
  7.052117e-02    5.313665e-06
  7.082010e-02    5.312939e-06
  7.111903e-02    5.307369e-06
  7.141796e-02    5.300624e-06
  7.171689e-02    5.314107e-06
  7.201582e-02    5.325246e-06
  7.231475e-02    5.353018e-06
  7.261368e-02    5.338447e-06
  7.291261e-02    5.346728e-06
  7.321154e-02    5.356424e-06
  7.351047e-02    5.346369e-06
  7.380940e-02    5.353010e-06
  7.410833e-02    5.308395e-06
  7.440726e-02    5.327817e-06
  7.470619e-02    5.373951e-06
  7.500512e-02    5.342728e-06
  7.530405e-02    5.353299e-06
  7.560299e-02    5.378502e-06
  7.590192e-02    5.368494e-06
  7.620085e-02    5.345659e-06
  7.649978e-02    5.352143e-06
  7.679871e-02    5.364602e-06
  7.709764e-02    5.356848e-06
  7.739657e-02    5.350478e-06
  7.769550e-02    5.345026e-06
  7.799443e-02    5.353921e-06
  7.829336e-02    5.342169e-06
  7.859229e-02    5.335289e-06
  7.889122e-02    5.323279e-06
  7.919015e-02    5.322392e-06
  7.948908e-02    5.330097e-06
  7.978801e-02    5.329191e-06
  8.008694e-02    5.330243e-06
  8.038587e-02    5.332779e-06
  8.068480e-02    5.330306e-06
  8.098373e-02    5.312638e-06
  8.128266e-02    5.298681e-06
  8.158159e-02    5.313441e-06
  8.188052e-02    5.327271e-06
  8.217945e-02    5.313469e-06
  8.247838e-02    5.292077e-06
  8.277731e-02    5.292613e-06
  8.307624e-02    5.298082e-06
  8.337518e-02    5.297294e-06
  8.367411e-02    5.304913e-06
  8.397304e-02    5.277942e-06
  8.427197e-02    5.255556e-06
  8.457090e-02    5.248832e-06
  8.486983e-02    5.248378e-06
  8.516876e-02    5.227891e-06
  8.546769e-02    5.216106e-06
  8.576662e-02    5.222073e-06
  8.606555e-02    5.218496e-06
  8.636448e-02    5.203920e-06
  8.666341e-02    5.191566e-06
  8.696234e-02    5.179204e-06
  8.726127e-02    5.190519e-06
  8.756020e-02    5.205970e-06
  8.785913e-02    5.200010e-06
  8.815806e-02    5.180606e-06
  8.845699e-02    5.160944e-06
  8.875592e-02    5.164801e-06
  8.905485e-02    5.159709e-06
  8.935378e-02    5.118257e-06
  8.965271e-02    5.084730e-06
  8.995164e-02    5.094217e-06
  9.025057e-02    5.091455e-06
  9.054950e-02    5.086344e-06
  9.084843e-02    5.068705e-06
  9.114737e-02    5.040188e-06
  9.144630e-02    5.058654e-06
  9.174523e-02    5.059518e-06
  9.204416e-02    5.037647e-06
  9.234309e-02    5.042141e-06
  9.264202e-02    5.031863e-06
  9.294095e-02    5.017692e-06
  9.323988e-02    5.000162e-06
  9.353881e-02    4.987194e-06
  9.383774e-02    4.987301e-06
  9.413667e-02    4.981374e-06
  9.443560e-02    4.955748e-06
  9.473453e-02    4.947519e-06
  9.503346e-02    4.955898e-06
  9.533239e-02    4.930992e-06
  9.563132e-02    4.942563e-06
  9.593025e-02    4.963600e-06
  9.622918e-02    4.975396e-06
  9.652811e-02    4.972498e-06
  9.682704e-02    4.971146e-06
  9.712597e-02    4.951506e-06
  9.742490e-02    4.926677e-06
  9.772383e-02    4.913739e-06
  9.802276e-02    4.881541e-06
  9.832169e-02    4.857824e-06
  9.862062e-02    4.873606e-06
  9.891956e-02    4.876844e-06
  9.921849e-02    4.840472e-06
  9.951742e-02    4.829218e-06
  9.981635e-02    4.800488e-06
  1.001153e-01    4.793464e-06
  1.004142e-01    4.801723e-06
  1.007131e-01    4.806001e-06
  1.010121e-01    4.793084e-06
  1.013110e-01    4.790708e-06
  1.016099e-01    4.760421e-06
  1.019089e-01    4.713595e-06
  1.022078e-01    4.703877e-06
  1.025067e-01    4.709639e-06
  1.028057e-01    4.705526e-06
  1.031046e-01    4.700461e-06
  1.034035e-01    4.687462e-06
  1.037024e-01    4.673375e-06
  1.040014e-01    4.669390e-06
  1.043003e-01    4.664281e-06
  1.045992e-01    4.669976e-06
  1.048982e-01    4.684590e-06
  1.051971e-01    4.645174e-06
  1.054960e-01    4.595970e-06
  1.057950e-01    4.600988e-06
  1.060939e-01    4.607479e-06
  1.063928e-01    4.593378e-06
  1.066917e-01    4.582416e-06
  1.069907e-01    4.590622e-06
  1.072896e-01    4.588367e-06
  1.075885e-01    4.568299e-06
  1.078875e-01    4.537959e-06
  1.081864e-01    4.536085e-06
  1.084853e-01    4.555169e-06
  1.087843e-01    4.561351e-06
  1.090832e-01    4.521235e-06
  1.093821e-01    4.506096e-06
  1.096810e-01    4.513468e-06
  1.099800e-01    4.497453e-06
  1.102789e-01    4.500179e-06
  1.105778e-01    4.464846e-06
  1.108768e-01    4.472170e-06
  1.111757e-01    4.444287e-06
  1.114746e-01    4.421945e-06
  1.117736e-01    4.416046e-06
  1.120725e-01    4.410383e-06
  1.123714e-01    4.388422e-06
  1.126704e-01    4.370908e-06
  1.129693e-01    4.364118e-06
  1.132682e-01    4.338383e-06
  1.135671e-01    4.353555e-06
  1.138661e-01    4.349741e-06
  1.141650e-01    4.338862e-06
  1.144639e-01    4.339580e-06
  1.147629e-01    4.318199e-06
  1.150618e-01    4.286646e-06
  1.153607e-01    4.283034e-06
  1.156597e-01    4.298126e-06
  1.159586e-01    4.254190e-06
  1.162575e-01    4.253957e-06
  1.165564e-01    4.317219e-06
  1.168554e-01    4.290584e-06
  1.171543e-01    4.289028e-06
  1.174532e-01    4.346979e-06
  1.177522e-01    4.336675e-06
  1.180511e-01    4.292400e-06
  1.183500e-01    4.290972e-06
  1.186490e-01    4.295106e-06
  1.189479e-01    4.302008e-06
  1.192468e-01    4.345886e-06
  1.195458e-01    4.397352e-06
  1.198447e-01    4.362403e-06
  1.201436e-01    4.178308e-06
  1.204425e-01    3.921719e-06
  1.207415e-01    3.990577e-06
  1.210404e-01    4.253131e-06
  1.213393e-01    0.000000e+00
  1.216383e-01    0.000000e+00
  1.219372e-01    0.000000e+00
  1.222361e-01    0.000000e+00
  1.225351e-01    0.000000e+00
  1.228340e-01    0.000000e+00
  1.231329e-01    0.000000e+00
  1.234318e-01    0.000000e+00
  1.237308e-01    0.000000e+00
  1.240297e-01    0.000000e+00
  1.243286e-01    0.000000e+00
  1.246276e-01    0.000000e+00
  1.249265e-01    0.000000e+00
  1.252254e-01    0.000000e+00
  1.255244e-01    0.000000e+00
  1.258233e-01    0.000000e+00
  1.261222e-01    0.000000e+00
  1.264212e-01    0.000000e+00
  1.267201e-01    0.000000e+00
  1.270190e-01    0.000000e+00
  1.273179e-01    0.000000e+00
  1.276169e-01    0.000000e+00
  1.279158e-01    0.000000e+00
  1.282147e-01    0.000000e+00
  1.285137e-01    0.000000e+00
  1.288126e-01    0.000000e+00
  1.291115e-01    0.000000e+00
  1.294105e-01    0.000000e+00
  1.297094e-01    0.000000e+00
  1.300083e-01    0.000000e+00
  1.303072e-01    0.000000e+00
  1.306062e-01    0.000000e+00
  1.309051e-01    0.000000e+00
  1.312040e-01    0.000000e+00
  1.315030e-01    0.000000e+00
  1.318019e-01    0.000000e+00
  1.321008e-01    0.000000e+00
  1.323998e-01    0.000000e+00
  1.326987e-01    0.000000e+00
  1.329976e-01    0.000000e+00
  1.332965e-01    0.000000e+00
  1.335955e-01    0.000000e+00
  1.338944e-01    0.000000e+00
  1.341933e-01    0.000000e+00
  1.344923e-01    0.000000e+00
  1.347912e-01    0.000000e+00
  1.350901e-01    0.000000e+00
  1.353891e-01    0.000000e+00
  1.356880e-01    0.000000e+00
  1.359869e-01    0.000000e+00
  1.362859e-01    0.000000e+00
  1.365848e-01    0.000000e+00
  1.368837e-01    0.000000e+00
  1.371826e-01    0.000000e+00
  1.374816e-01    0.000000e+00
  1.377805e-01    0.000000e+00
  1.380794e-01    0.000000e+00
  1.383784e-01    0.000000e+00
  1.386773e-01    0.000000e+00
  1.389762e-01    0.000000e+00
  1.392752e-01    0.000000e+00
  1.395741e-01    0.000000e+00
  1.398730e-01    0.000000e+00
  1.401719e-01    0.000000e+00
  1.404709e-01    0.000000e+00
  1.407698e-01    0.000000e+00
  1.410687e-01    0.000000e+00
  1.413677e-01    0.000000e+00
  1.416666e-01    0.000000e+00
  1.419655e-01    0.000000e+00
  1.422645e-01    0.000000e+00
  1.425634e-01    0.000000e+00
  1.428623e-01    0.000000e+00
  1.431613e-01    0.000000e+00
  1.434602e-01    0.000000e+00
  1.437591e-01    0.000000e+00
  1.440580e-01    0.000000e+00
  1.443570e-01    0.000000e+00
  1.446559e-01    0.000000e+00
  1.449548e-01    0.000000e+00
  1.452538e-01    0.000000e+00
  1.455527e-01    0.000000e+00
  1.458516e-01    0.000000e+00
  1.461506e-01    0.000000e+00
  1.464495e-01    0.000000e+00
  1.467484e-01    0.000000e+00
  1.470473e-01    0.000000e+00
  1.473463e-01    0.000000e+00
  1.476452e-01    0.000000e+00
  1.479441e-01    0.000000e+00
  1.482431e-01    0.000000e+00
  1.485420e-01    0.000000e+00
  1.488409e-01    0.000000e+00
  1.491399e-01    0.000000e+00
  1.494388e-01    0.000000e+00
  1.497377e-01    0.000000e+00
  1.500367e-01    0.000000e+00
  1.503356e-01    0.000000e+00
  1.506345e-01    0.000000e+00
  1.509334e-01    0.000000e+00
  1.512324e-01    0.000000e+00
  1.515313e-01    0.000000e+00
  1.518302e-01    0.000000e+00
  1.521292e-01    0.000000e+00
  1.524281e-01    0.000000e+00
  1.527270e-01    0.000000e+00
  1.530260e-01    0.000000e+00
  1.533249e-01    0.000000e+00
  1.536238e-01    0.000000e+00
