# == pyFAI calibration ==
# Distance Sample to Detector: 2.266 m
# PONI: 5.659e-02, 4.293e-02 m
# Rotations: 0.000000 0.000000 0.000000 rad
# 
# == Fit2d calibration ==
# Distance Sample-beamCenter: 2266.000 mm
# Center: x=249.594, y=329.012 pix
# Tilt: 0.000 deg  TiltPlanRot: 0.000 deg
# 
# Detector Pilatus 300k	 PixelSize= 1.720e-04, 1.720e-04 m
#    Detector has a mask: True 
#    Detector has a dark current: False 
#    detector has a flat field: False 
# 
# Wavelength: 1.27818e-10 m
# Mask applied: user provided
# Dark current applied: False
# Flat field applied: False
# Polarization factor: None
# Normalization factor: 77469.77000000002
# --> MT-AL_DowExpt1_220227_a4b3e4ad-f1db-4ca1-a828-b962f43dbf20_1_r1d.csv
#        q_A^-1             I 
  4.457554e-03    3.635731e-02
  4.756484e-03    2.891212e-02
  5.055415e-03    2.157087e-02
  5.354345e-03    1.614843e-02
  5.653276e-03    1.285923e-02
  5.952206e-03    2.090098e-02
  6.251136e-03    1.878879e-02
  6.550067e-03    1.608074e-02
  6.848997e-03    1.347974e-02
  7.147927e-03    1.132230e-02
  7.446858e-03    9.636570e-03
  7.745788e-03    8.278552e-03
  8.044719e-03    7.158211e-03
  8.343649e-03    6.248853e-03
  8.642579e-03    5.438489e-03
  8.941510e-03    4.788568e-03
  9.240440e-03    4.253488e-03
  9.539371e-03    3.770102e-03
  9.838301e-03    3.352067e-03
  1.013723e-02    2.994822e-03
  1.043616e-02    2.697556e-03
  1.073509e-02    2.430432e-03
  1.103402e-02    2.193798e-03
  1.133295e-02    1.983859e-03
  1.163188e-02    1.801776e-03
  1.193081e-02    1.644150e-03
  1.222974e-02    1.501490e-03
  1.252867e-02    1.384362e-03
  1.282760e-02    1.271266e-03
  1.312654e-02    1.164028e-03
  1.342547e-02    1.073570e-03
  1.372440e-02    9.892421e-04
  1.402333e-02    9.233105e-04
  1.432226e-02    8.650183e-04
  1.462119e-02    8.018170e-04
  1.492012e-02    7.465348e-04
  1.521905e-02    6.912073e-04
  1.551798e-02    6.517764e-04
  1.581691e-02    6.133642e-04
  1.611584e-02    5.748014e-04
  1.641477e-02    5.392467e-04
  1.671370e-02    5.122144e-04
  1.701263e-02    4.850893e-04
  1.731156e-02    4.596099e-04
  1.761049e-02    4.354239e-04
  1.790942e-02    4.123310e-04
  1.820835e-02    3.918553e-04
  1.850728e-02    3.713032e-04
  1.880621e-02    3.599228e-04
  1.910514e-02    3.440235e-04
  1.940407e-02    3.277073e-04
  1.970300e-02    3.111773e-04
  2.000193e-02    2.980634e-04
  2.030086e-02    2.882819e-04
  2.059979e-02    2.813044e-04
  2.089873e-02    2.736448e-04
  2.119766e-02    2.581428e-04
  2.149659e-02    2.465873e-04
  2.179552e-02    2.396543e-04
  2.209445e-02    2.329244e-04
  2.239338e-02    2.257548e-04
  2.269231e-02    2.200336e-04
  2.299124e-02    2.129963e-04
  2.329017e-02    2.036331e-04
  2.358910e-02    1.989710e-04
  2.388803e-02    1.958343e-04
  2.418696e-02    1.926136e-04
  2.448589e-02    1.847650e-04
  2.478482e-02    1.814259e-04
  2.508375e-02    1.799336e-04
  2.538268e-02    1.766696e-04
  2.568161e-02    1.719362e-04
  2.598054e-02    1.667695e-04
  2.627947e-02    1.639750e-04
  2.657840e-02    1.613107e-04
  2.687733e-02    1.583474e-04
  2.717626e-02    1.572503e-04
  2.747519e-02    1.546201e-04
  2.777412e-02    1.506761e-04
  2.807305e-02    1.480455e-04
  2.837198e-02    1.468598e-04
  2.867092e-02    1.458423e-04
  2.896985e-02    1.432325e-04
  2.926878e-02    1.398570e-04
  2.956771e-02    1.372870e-04
  2.986664e-02    1.353468e-04
  3.016557e-02    1.337904e-04
  3.046450e-02    1.315615e-04
  3.076343e-02    1.325244e-04
  3.106236e-02    1.341975e-04
  3.136129e-02    1.303170e-04
  3.166022e-02    1.264588e-04
  3.195915e-02    1.263900e-04
  3.225808e-02    1.252838e-04
  3.255701e-02    1.237945e-04
  3.285594e-02    1.228068e-04
  3.315487e-02    1.197969e-04
  3.345380e-02    1.189517e-04
  3.375273e-02    1.195698e-04
  3.405166e-02    1.187788e-04
  3.435059e-02    1.156922e-04
  3.464952e-02    1.169582e-04
  3.494845e-02    1.175651e-04
  3.524738e-02    1.168495e-04
  3.554631e-02    1.146823e-04
  3.584524e-02    1.123818e-04
  3.614417e-02    1.123582e-04
  3.644310e-02    1.120362e-04
  3.674204e-02    1.100031e-04
  3.704097e-02    1.107442e-04
  3.733990e-02    1.091799e-04
  3.763883e-02    1.082128e-04
  3.793776e-02    1.085327e-04
  3.823669e-02    1.060497e-04
  3.853562e-02    1.072461e-04
  3.883455e-02    1.069408e-04
  3.913348e-02    1.047504e-04
  3.943241e-02    1.034747e-04
  3.973134e-02    1.037008e-04
  4.003027e-02    1.048179e-04
  4.032920e-02    1.016983e-04
  4.062813e-02    1.028757e-04
  4.092706e-02    1.039893e-04
  4.122599e-02    1.016236e-04
  4.152492e-02    9.987301e-05
  4.182385e-02    9.935592e-05
  4.212278e-02    1.015967e-04
  4.242171e-02    9.987846e-05
  4.272064e-02    9.894688e-05
  4.301957e-02    9.797810e-05
  4.331850e-02    9.862012e-05
  4.361743e-02    9.936295e-05
  4.391636e-02    9.903005e-05
  4.421529e-02    9.776172e-05
  4.451423e-02    9.790077e-05
  4.481316e-02    9.735614e-05
  4.511209e-02    9.742632e-05
  4.541102e-02    9.763733e-05
  4.570995e-02    9.733288e-05
  4.600888e-02    9.811845e-05
  4.630781e-02    9.889676e-05
  4.660674e-02    9.815454e-05
  4.690567e-02    9.799658e-05
  4.720460e-02    9.746582e-05
  4.750353e-02    9.697306e-05
  4.780246e-02    9.756792e-05
  4.810139e-02    9.860656e-05
  4.840032e-02    9.771546e-05
  4.869925e-02    9.780870e-05
  4.899818e-02    9.553280e-05
  4.929711e-02    9.848980e-05
  4.959604e-02    1.008485e-04
  4.989497e-02    9.821276e-05
  5.019390e-02    9.684057e-05
  5.049283e-02    9.677596e-05
  5.079176e-02    9.706465e-05
  5.109069e-02    9.789753e-05
  5.138962e-02    9.890251e-05
  5.168855e-02    9.936432e-05
  5.198748e-02    1.005672e-04
  5.228642e-02    9.974199e-05
  5.258535e-02    9.830725e-05
  5.288428e-02    9.776546e-05
  5.318321e-02    9.693374e-05
  5.348214e-02    9.848712e-05
  5.378107e-02    9.761658e-05
  5.408000e-02    9.754708e-05
  5.437893e-02    9.886300e-05
  5.467786e-02    9.816732e-05
  5.497679e-02    9.910572e-05
  5.527572e-02    9.897738e-05
  5.557465e-02    9.991814e-05
  5.587358e-02    9.925239e-05
  5.617251e-02    9.875899e-05
  5.647144e-02    9.838204e-05
  5.677037e-02    9.802320e-05
  5.706930e-02    9.816263e-05
  5.736823e-02    9.887589e-05
  5.766716e-02    9.973891e-05
  5.796609e-02    9.981023e-05
  5.826502e-02    9.746446e-05
  5.856395e-02    9.931459e-05
  5.886288e-02    1.017855e-04
  5.916181e-02    9.951949e-05
  5.946074e-02    9.919390e-05
  5.975967e-02    9.886186e-05
  6.005861e-02    9.964241e-05
  6.035754e-02    1.002551e-04
  6.065647e-02    1.012138e-04
  6.095540e-02    1.007907e-04
  6.125433e-02    1.014662e-04
  6.155326e-02    1.026509e-04
  6.185219e-02    1.024001e-04
  6.215112e-02    1.012603e-04
  6.245005e-02    1.016469e-04
  6.274898e-02    1.020930e-04
  6.304791e-02    1.017749e-04
  6.334684e-02    1.018062e-04
  6.364577e-02    1.031652e-04
  6.394470e-02    1.034715e-04
  6.424363e-02    1.031915e-04
  6.454256e-02    1.028454e-04
  6.484149e-02    1.023309e-04
  6.514042e-02    1.032515e-04
  6.543935e-02    1.035057e-04
  6.573828e-02    1.028890e-04
  6.603721e-02    1.035057e-04
  6.633614e-02    1.042417e-04
  6.663507e-02    1.038160e-04
  6.693400e-02    1.027597e-04
  6.723293e-02    1.027437e-04
  6.753186e-02    1.033079e-04
  6.783080e-02    1.049446e-04
  6.812973e-02    1.038809e-04
  6.842866e-02    1.046580e-04
  6.872759e-02    1.048234e-04
  6.902652e-02    1.047462e-04
  6.932545e-02    1.040366e-04
  6.962438e-02    1.028932e-04
  6.992331e-02    1.044627e-04
  7.022224e-02    1.061775e-04
  7.052117e-02    1.046592e-04
  7.082010e-02    1.039287e-04
  7.111903e-02    1.052109e-04
  7.141796e-02    1.057850e-04
  7.171689e-02    1.050217e-04
  7.201582e-02    1.044676e-04
  7.231475e-02    1.033419e-04
  7.261368e-02    1.049790e-04
  7.291261e-02    1.062717e-04
  7.321154e-02    1.056379e-04
  7.351047e-02    1.059699e-04
  7.380940e-02    1.050704e-04
  7.410833e-02    1.043922e-04
  7.440726e-02    1.046883e-04
  7.470619e-02    1.059140e-04
  7.500512e-02    1.063127e-04
  7.530405e-02    1.057075e-04
  7.560299e-02    1.063388e-04
  7.590192e-02    1.044018e-04
  7.620085e-02    1.052166e-04
  7.649978e-02    1.064330e-04
  7.679871e-02    1.068912e-04
  7.709764e-02    1.057039e-04
  7.739657e-02    1.045905e-04
  7.769550e-02    1.044063e-04
  7.799443e-02    1.054372e-04
  7.829336e-02    1.061880e-04
  7.859229e-02    1.040579e-04
  7.889122e-02    1.039429e-04
  7.919015e-02    1.034617e-04
  7.948908e-02    1.033706e-04
  7.978801e-02    1.044314e-04
  8.008694e-02    1.054320e-04
  8.038587e-02    1.048139e-04
  8.068480e-02    1.043371e-04
  8.098373e-02    1.043522e-04
  8.128266e-02    1.049414e-04
  8.158159e-02    1.038284e-04
  8.188052e-02    1.030987e-04
  8.217945e-02    1.033458e-04
  8.247838e-02    1.033100e-04
  8.277731e-02    1.044225e-04
  8.307624e-02    1.036978e-04
  8.337518e-02    1.031980e-04
  8.367411e-02    1.033390e-04
  8.397304e-02    1.028083e-04
  8.427197e-02    1.021778e-04
  8.457090e-02    1.027935e-04
  8.486983e-02    1.036190e-04
  8.516876e-02    1.040245e-04
  8.546769e-02    1.022182e-04
  8.576662e-02    1.020684e-04
  8.606555e-02    1.015647e-04
  8.636448e-02    1.032116e-04
  8.666341e-02    1.039659e-04
  8.696234e-02    1.034129e-04
  8.726127e-02    1.024600e-04
  8.756020e-02    1.020705e-04
  8.785913e-02    1.021718e-04
  8.815806e-02    1.021137e-04
  8.845699e-02    1.014038e-04
  8.875592e-02    9.793434e-05
  8.905485e-02    9.814253e-05
  8.935378e-02    9.923829e-05
  8.965271e-02    9.888968e-05
  8.995164e-02    9.877150e-05
  9.025057e-02    9.834263e-05
  9.054950e-02    9.912923e-05
  9.084843e-02    9.875988e-05
  9.114737e-02    9.750733e-05
  9.144630e-02    9.737988e-05
  9.174523e-02    9.786250e-05
  9.204416e-02    9.779830e-05
  9.234309e-02    9.733254e-05
  9.264202e-02    9.710046e-05
  9.294095e-02    9.819396e-05
  9.323988e-02    9.760241e-05
  9.353881e-02    9.665742e-05
  9.383774e-02    9.654465e-05
  9.413667e-02    9.519871e-05
  9.443560e-02    9.603546e-05
  9.473453e-02    9.706373e-05
  9.503346e-02    9.637666e-05
  9.533239e-02    9.744288e-05
  9.563132e-02    9.829747e-05
  9.593025e-02    9.779713e-05
  9.622918e-02    9.777403e-05
  9.652811e-02    9.629240e-05
  9.682704e-02    9.581749e-05
  9.712597e-02    9.637880e-05
  9.742490e-02    9.596023e-05
  9.772383e-02    9.451355e-05
  9.802276e-02    9.376877e-05
  9.832169e-02    9.349055e-05
  9.862062e-02    9.456996e-05
  9.891956e-02    9.493320e-05
  9.921849e-02    9.560528e-05
  9.951742e-02    9.463745e-05
  9.981635e-02    9.361718e-05
  1.001153e-01    9.348951e-05
  1.004142e-01    9.282163e-05
  1.007131e-01    9.220638e-05
  1.010121e-01    9.394521e-05
  1.013110e-01    9.403184e-05
  1.016099e-01    9.246004e-05
  1.019089e-01    9.168933e-05
  1.022078e-01    9.117082e-05
  1.025067e-01    9.162944e-05
  1.028057e-01    9.169617e-05
  1.031046e-01    9.231777e-05
  1.034035e-01    9.175386e-05
  1.037024e-01    9.121533e-05
  1.040014e-01    9.207427e-05
  1.043003e-01    9.087111e-05
  1.045992e-01    8.988041e-05
  1.048982e-01    9.152540e-05
  1.051971e-01    9.150593e-05
  1.054960e-01    8.954344e-05
  1.057950e-01    8.877287e-05
  1.060939e-01    8.932420e-05
  1.063928e-01    9.062880e-05
  1.066917e-01    8.835336e-05
  1.069907e-01    8.777757e-05
  1.072896e-01    8.849568e-05
  1.075885e-01    8.996803e-05
  1.078875e-01    9.029574e-05
  1.081864e-01    9.004612e-05
  1.084853e-01    8.955402e-05
  1.087843e-01    8.816301e-05
  1.090832e-01    8.690333e-05
  1.093821e-01    8.707381e-05
  1.096810e-01    8.592494e-05
  1.099800e-01    8.568518e-05
  1.102789e-01    8.639341e-05
  1.105778e-01    8.746962e-05
  1.108768e-01    8.687063e-05
  1.111757e-01    8.653333e-05
  1.114746e-01    8.715782e-05
  1.117736e-01    8.767211e-05
  1.120725e-01    8.685986e-05
  1.123714e-01    8.405303e-05
  1.126704e-01    8.520184e-05
  1.129693e-01    8.707391e-05
  1.132682e-01    8.379850e-05
  1.135671e-01    8.313281e-05
  1.138661e-01    8.572948e-05
  1.141650e-01    8.512121e-05
  1.144639e-01    8.570052e-05
  1.147629e-01    8.490860e-05
  1.150618e-01    8.548100e-05
  1.153607e-01    8.364768e-05
  1.156597e-01    8.157278e-05
  1.159586e-01    8.177589e-05
  1.162575e-01    8.274958e-05
  1.165564e-01    8.244687e-05
  1.168554e-01    8.250978e-05
  1.171543e-01    8.507113e-05
  1.174532e-01    8.393297e-05
  1.177522e-01    8.095295e-05
  1.180511e-01    8.163778e-05
  1.183500e-01    8.209417e-05
  1.186490e-01    8.045450e-05
  1.189479e-01    8.021139e-05
  1.192468e-01    8.236855e-05
  1.195458e-01    7.782510e-05
  1.198447e-01    7.757781e-05
  1.201436e-01    7.924221e-05
  1.204425e-01    7.537363e-05
  1.207415e-01    7.389937e-05
  1.210404e-01    6.459976e-05
  1.213393e-01    0.000000e+00
  1.216383e-01    0.000000e+00
  1.219372e-01    0.000000e+00
  1.222361e-01    0.000000e+00
  1.225351e-01    0.000000e+00
  1.228340e-01    0.000000e+00
  1.231329e-01    0.000000e+00
  1.234318e-01    0.000000e+00
  1.237308e-01    0.000000e+00
  1.240297e-01    0.000000e+00
  1.243286e-01    0.000000e+00
  1.246276e-01    0.000000e+00
  1.249265e-01    0.000000e+00
  1.252254e-01    0.000000e+00
  1.255244e-01    0.000000e+00
  1.258233e-01    0.000000e+00
  1.261222e-01    0.000000e+00
  1.264212e-01    0.000000e+00
  1.267201e-01    0.000000e+00
  1.270190e-01    0.000000e+00
  1.273179e-01    0.000000e+00
  1.276169e-01    0.000000e+00
  1.279158e-01    0.000000e+00
  1.282147e-01    0.000000e+00
  1.285137e-01    0.000000e+00
  1.288126e-01    0.000000e+00
  1.291115e-01    0.000000e+00
  1.294105e-01    0.000000e+00
  1.297094e-01    0.000000e+00
  1.300083e-01    0.000000e+00
  1.303072e-01    0.000000e+00
  1.306062e-01    0.000000e+00
  1.309051e-01    0.000000e+00
  1.312040e-01    0.000000e+00
  1.315030e-01    0.000000e+00
  1.318019e-01    0.000000e+00
  1.321008e-01    0.000000e+00
  1.323998e-01    0.000000e+00
  1.326987e-01    0.000000e+00
  1.329976e-01    0.000000e+00
  1.332965e-01    0.000000e+00
  1.335955e-01    0.000000e+00
  1.338944e-01    0.000000e+00
  1.341933e-01    0.000000e+00
  1.344923e-01    0.000000e+00
  1.347912e-01    0.000000e+00
  1.350901e-01    0.000000e+00
  1.353891e-01    0.000000e+00
  1.356880e-01    0.000000e+00
  1.359869e-01    0.000000e+00
  1.362859e-01    0.000000e+00
  1.365848e-01    0.000000e+00
  1.368837e-01    0.000000e+00
  1.371826e-01    0.000000e+00
  1.374816e-01    0.000000e+00
  1.377805e-01    0.000000e+00
  1.380794e-01    0.000000e+00
  1.383784e-01    0.000000e+00
  1.386773e-01    0.000000e+00
  1.389762e-01    0.000000e+00
  1.392752e-01    0.000000e+00
  1.395741e-01    0.000000e+00
  1.398730e-01    0.000000e+00
  1.401719e-01    0.000000e+00
  1.404709e-01    0.000000e+00
  1.407698e-01    0.000000e+00
  1.410687e-01    0.000000e+00
  1.413677e-01    0.000000e+00
  1.416666e-01    0.000000e+00
  1.419655e-01    0.000000e+00
  1.422645e-01    0.000000e+00
  1.425634e-01    0.000000e+00
  1.428623e-01    0.000000e+00
  1.431613e-01    0.000000e+00
  1.434602e-01    0.000000e+00
  1.437591e-01    0.000000e+00
  1.440580e-01    0.000000e+00
  1.443570e-01    0.000000e+00
  1.446559e-01    0.000000e+00
  1.449548e-01    0.000000e+00
  1.452538e-01    0.000000e+00
  1.455527e-01    0.000000e+00
  1.458516e-01    0.000000e+00
  1.461506e-01    0.000000e+00
  1.464495e-01    0.000000e+00
  1.467484e-01    0.000000e+00
  1.470473e-01    0.000000e+00
  1.473463e-01    0.000000e+00
  1.476452e-01    0.000000e+00
  1.479441e-01    0.000000e+00
  1.482431e-01    0.000000e+00
  1.485420e-01    0.000000e+00
  1.488409e-01    0.000000e+00
  1.491399e-01    0.000000e+00
  1.494388e-01    0.000000e+00
  1.497377e-01    0.000000e+00
  1.500367e-01    0.000000e+00
  1.503356e-01    0.000000e+00
  1.506345e-01    0.000000e+00
  1.509334e-01    0.000000e+00
  1.512324e-01    0.000000e+00
  1.515313e-01    0.000000e+00
  1.518302e-01    0.000000e+00
  1.521292e-01    0.000000e+00
  1.524281e-01    0.000000e+00
  1.527270e-01    0.000000e+00
  1.530260e-01    0.000000e+00
  1.533249e-01    0.000000e+00
  1.536238e-01    0.000000e+00
