# == pyFAI calibration ==
# Distance Sample to Detector: 2.266 m
# PONI: 5.659e-02, 4.293e-02 m
# Rotations: 0.000000 0.000000 0.000000 rad
# 
# == Fit2d calibration ==
# Distance Sample-beamCenter: 2266.000 mm
# Center: x=249.594, y=329.012 pix
# Tilt: 0.000 deg  TiltPlanRot: 0.000 deg
# 
# Detector Pilatus 300k	 PixelSize= 1.720e-04, 1.720e-04 m
#    Detector has a mask: True 
#    Detector has a dark current: False 
#    detector has a flat field: False 
# 
# Wavelength: 1.27818e-10 m
# Mask applied: user provided
# Dark current applied: False
# Flat field applied: False
# Polarization factor: None
# Normalization factor: 7058902.799999999
# --> MT-AL_F127_220301_6db36815-3041-4b9d-a94e-e05853c5999d_1_r1d.csv
#        q_A^-1             I 
  4.457554e-03    2.020856e-03
  4.756484e-03    1.558590e-03
  5.055415e-03    1.086021e-03
  5.354345e-03    7.464787e-04
  5.653276e-03    5.651222e-04
  5.952206e-03    8.926287e-04
  6.251136e-03    8.169131e-04
  6.550067e-03    7.149260e-04
  6.848997e-03    6.098985e-04
  7.147927e-03    5.161992e-04
  7.446858e-03    4.404581e-04
  7.745788e-03    3.767679e-04
  8.044719e-03    3.242298e-04
  8.343649e-03    2.831145e-04
  8.642579e-03    2.480813e-04
  8.941510e-03    2.182766e-04
  9.240440e-03    1.929553e-04
  9.539371e-03    1.715213e-04
  9.838301e-03    1.524432e-04
  1.013723e-02    1.366450e-04
  1.043616e-02    1.224593e-04
  1.073509e-02    1.104067e-04
  1.103402e-02    1.003879e-04
  1.133295e-02    9.096059e-05
  1.163188e-02    8.299216e-05
  1.193081e-02    7.586108e-05
  1.222974e-02    6.940655e-05
  1.252867e-02    6.378167e-05
  1.282760e-02    5.859962e-05
  1.312654e-02    5.388258e-05
  1.342547e-02    4.989257e-05
  1.372440e-02    4.639754e-05
  1.402333e-02    4.299308e-05
  1.432226e-02    3.993839e-05
  1.462119e-02    3.734156e-05
  1.492012e-02    3.505650e-05
  1.521905e-02    3.278964e-05
  1.551798e-02    3.089365e-05
  1.581691e-02    2.907155e-05
  1.611584e-02    2.741194e-05
  1.641477e-02    2.573669e-05
  1.671370e-02    2.426552e-05
  1.701263e-02    2.294815e-05
  1.731156e-02    2.179705e-05
  1.761049e-02    2.069780e-05
  1.790942e-02    1.975133e-05
  1.820835e-02    1.887070e-05
  1.850728e-02    1.800681e-05
  1.880621e-02    1.727702e-05
  1.910514e-02    1.647882e-05
  1.940407e-02    1.573431e-05
  1.970300e-02    1.525782e-05
  2.000193e-02    1.465640e-05
  2.030086e-02    1.403960e-05
  2.059979e-02    1.359560e-05
  2.089873e-02    1.326820e-05
  2.119766e-02    1.282973e-05
  2.149659e-02    1.244098e-05
  2.179552e-02    1.206114e-05
  2.209445e-02    1.158947e-05
  2.239338e-02    1.126567e-05
  2.269231e-02    1.101708e-05
  2.299124e-02    1.074428e-05
  2.329017e-02    1.046490e-05
  2.358910e-02    1.022144e-05
  2.388803e-02    9.998833e-06
  2.418696e-02    9.697359e-06
  2.448589e-02    9.485315e-06
  2.478482e-02    9.318532e-06
  2.508375e-02    9.139668e-06
  2.538268e-02    8.968112e-06
  2.568161e-02    8.844881e-06
  2.598054e-02    8.630510e-06
  2.627947e-02    8.447645e-06
  2.657840e-02    8.406609e-06
  2.687733e-02    8.404505e-06
  2.717626e-02    8.202870e-06
  2.747519e-02    8.014355e-06
  2.777412e-02    7.878087e-06
  2.807305e-02    7.787363e-06
  2.837198e-02    7.718432e-06
  2.867092e-02    7.622883e-06
  2.896985e-02    7.540153e-06
  2.926878e-02    7.460671e-06
  2.956771e-02    7.364231e-06
  2.986664e-02    7.288702e-06
  3.016557e-02    7.173804e-06
  3.046450e-02    7.157802e-06
  3.076343e-02    7.121536e-06
  3.106236e-02    7.025489e-06
  3.136129e-02    6.944328e-06
  3.166022e-02    6.920408e-06
  3.195915e-02    6.844183e-06
  3.225808e-02    6.732032e-06
  3.255701e-02    6.653164e-06
  3.285594e-02    6.662332e-06
  3.315487e-02    6.631397e-06
  3.345380e-02    6.545122e-06
  3.375273e-02    6.468669e-06
  3.405166e-02    6.328430e-06
  3.435059e-02    6.254637e-06
  3.464952e-02    6.222977e-06
  3.494845e-02    6.196719e-06
  3.524738e-02    6.167922e-06
  3.554631e-02    6.127391e-06
  3.584524e-02    6.061304e-06
  3.614417e-02    5.974670e-06
  3.644310e-02    5.912328e-06
  3.674204e-02    5.863051e-06
  3.704097e-02    5.819093e-06
  3.733990e-02    5.768712e-06
  3.763883e-02    5.728809e-06
  3.793776e-02    5.716779e-06
  3.823669e-02    5.643190e-06
  3.853562e-02    5.579218e-06
  3.883455e-02    5.548791e-06
  3.913348e-02    5.509596e-06
  3.943241e-02    5.513898e-06
  3.973134e-02    5.491438e-06
  4.003027e-02    5.413346e-06
  4.032920e-02    5.369211e-06
  4.062813e-02    5.368947e-06
  4.092706e-02    5.362497e-06
  4.122599e-02    5.360524e-06
  4.152492e-02    5.327315e-06
  4.182385e-02    5.293896e-06
  4.212278e-02    5.285116e-06
  4.242171e-02    5.275989e-06
  4.272064e-02    5.253007e-06
  4.301957e-02    5.193793e-06
  4.331850e-02    5.168884e-06
  4.361743e-02    5.124614e-06
  4.391636e-02    5.157561e-06
  4.421529e-02    5.180431e-06
  4.451423e-02    5.124853e-06
  4.481316e-02    5.117672e-06
  4.511209e-02    5.094151e-06
  4.541102e-02    5.109292e-06
  4.570995e-02    5.130787e-06
  4.600888e-02    5.108553e-06
  4.630781e-02    5.086743e-06
  4.660674e-02    5.105408e-06
  4.690567e-02    5.101696e-06
  4.720460e-02    5.062586e-06
  4.750353e-02    5.054362e-06
  4.780246e-02    5.063943e-06
  4.810139e-02    5.026964e-06
  4.840032e-02    5.009539e-06
  4.869925e-02    5.009808e-06
  4.899818e-02    5.023324e-06
  4.929711e-02    4.984919e-06
  4.959604e-02    5.015050e-06
  4.989497e-02    4.971498e-06
  5.019390e-02    4.999592e-06
  5.049283e-02    5.014197e-06
  5.079176e-02    4.984156e-06
  5.109069e-02    5.012558e-06
  5.138962e-02    5.105036e-06
  5.168855e-02    5.221314e-06
  5.198748e-02    5.325839e-06
  5.228642e-02    5.195547e-06
  5.258535e-02    5.040666e-06
  5.288428e-02    4.994655e-06
  5.318321e-02    5.013565e-06
  5.348214e-02    5.017532e-06
  5.378107e-02    4.986182e-06
  5.408000e-02    4.982128e-06
  5.437893e-02    4.969597e-06
  5.467786e-02    4.979091e-06
  5.497679e-02    5.003480e-06
  5.527572e-02    4.948473e-06
  5.557465e-02    4.986362e-06
  5.587358e-02    5.035762e-06
  5.617251e-02    4.982126e-06
  5.647144e-02    4.969966e-06
  5.677037e-02    4.982338e-06
  5.706930e-02    4.988875e-06
  5.736823e-02    4.973107e-06
  5.766716e-02    4.983837e-06
  5.796609e-02    5.006184e-06
  5.826502e-02    4.999678e-06
  5.856395e-02    4.991052e-06
  5.886288e-02    5.008664e-06
  5.916181e-02    5.046836e-06
  5.946074e-02    5.054883e-06
  5.975967e-02    5.059868e-06
  6.005861e-02    5.069012e-06
  6.035754e-02    5.067507e-06
  6.065647e-02    5.092572e-06
  6.095540e-02    5.160142e-06
  6.125433e-02    5.283116e-06
  6.155326e-02    5.261153e-06
  6.185219e-02    5.130476e-06
  6.215112e-02    5.100746e-06
  6.245005e-02    5.081102e-06
  6.274898e-02    5.112685e-06
  6.304791e-02    5.116631e-06
  6.334684e-02    5.079052e-06
  6.364577e-02    5.097959e-06
  6.394470e-02    5.118122e-06
  6.424363e-02    5.133071e-06
  6.454256e-02    5.143391e-06
  6.484149e-02    5.141040e-06
  6.514042e-02    5.176042e-06
  6.543935e-02    5.142858e-06
  6.573828e-02    5.154031e-06
  6.603721e-02    5.195003e-06
  6.633614e-02    5.220369e-06
  6.663507e-02    5.212917e-06
  6.693400e-02    5.208662e-06
  6.723293e-02    5.224892e-06
  6.753186e-02    5.248461e-06
  6.783080e-02    5.225099e-06
  6.812973e-02    5.195144e-06
  6.842866e-02    5.223319e-06
  6.872759e-02    5.200707e-06
  6.902652e-02    5.222207e-06
  6.932545e-02    5.235363e-06
  6.962438e-02    5.222923e-06
  6.992331e-02    5.273576e-06
  7.022224e-02    5.275146e-06
  7.052117e-02    5.286585e-06
  7.082010e-02    5.298132e-06
  7.111903e-02    5.278152e-06
  7.141796e-02    5.297947e-06
  7.171689e-02    5.291981e-06
  7.201582e-02    5.312527e-06
  7.231475e-02    5.357419e-06
  7.261368e-02    5.320121e-06
  7.291261e-02    5.307395e-06
  7.321154e-02    5.351467e-06
  7.351047e-02    5.371196e-06
  7.380940e-02    5.352598e-06
  7.410833e-02    5.337966e-06
  7.440726e-02    5.334438e-06
  7.470619e-02    5.324397e-06
  7.500512e-02    5.364036e-06
  7.530405e-02    5.377988e-06
  7.560299e-02    5.325474e-06
  7.590192e-02    5.318882e-06
  7.620085e-02    5.336255e-06
  7.649978e-02    5.358252e-06
  7.679871e-02    5.318762e-06
  7.709764e-02    5.344103e-06
  7.739657e-02    5.334719e-06
  7.769550e-02    5.342284e-06
  7.799443e-02    5.332880e-06
  7.829336e-02    5.311793e-06
  7.859229e-02    5.321478e-06
  7.889122e-02    5.312757e-06
  7.919015e-02    5.369698e-06
  7.948908e-02    5.364891e-06
  7.978801e-02    5.290251e-06
  8.008694e-02    5.300378e-06
  8.038587e-02    5.300190e-06
  8.068480e-02    5.302320e-06
  8.098373e-02    5.293385e-06
  8.128266e-02    5.279927e-06
  8.158159e-02    5.282236e-06
  8.188052e-02    5.277975e-06
  8.217945e-02    5.270251e-06
  8.247838e-02    5.274219e-06
  8.277731e-02    5.268030e-06
  8.307624e-02    5.266959e-06
  8.337518e-02    5.261066e-06
  8.367411e-02    5.229569e-06
  8.397304e-02    5.227489e-06
  8.427197e-02    5.225287e-06
  8.457090e-02    5.196577e-06
  8.486983e-02    5.210720e-06
  8.516876e-02    5.233025e-06
  8.546769e-02    5.183905e-06
  8.576662e-02    5.173701e-06
  8.606555e-02    5.170367e-06
  8.636448e-02    5.176992e-06
  8.666341e-02    5.186794e-06
  8.696234e-02    5.179885e-06
  8.726127e-02    5.167576e-06
  8.756020e-02    5.148803e-06
  8.785913e-02    5.136741e-06
  8.815806e-02    5.119530e-06
  8.845699e-02    5.130475e-06
  8.875592e-02    5.116517e-06
  8.905485e-02    5.094650e-06
  8.935378e-02    5.101112e-06
  8.965271e-02    5.103604e-06
  8.995164e-02    5.055992e-06
  9.025057e-02    5.047862e-06
  9.054950e-02    5.057219e-06
  9.084843e-02    5.050135e-06
  9.114737e-02    5.004792e-06
  9.144630e-02    5.014674e-06
  9.174523e-02    5.006593e-06
  9.204416e-02    4.996037e-06
  9.234309e-02    4.992310e-06
  9.264202e-02    4.970621e-06
  9.294095e-02    5.017140e-06
  9.323988e-02    4.985057e-06
  9.353881e-02    4.955339e-06
  9.383774e-02    4.952376e-06
  9.413667e-02    4.931741e-06
  9.443560e-02    4.904174e-06
  9.473453e-02    4.928650e-06
  9.503346e-02    4.934210e-06
  9.533239e-02    4.890175e-06
  9.563132e-02    4.893815e-06
  9.593025e-02    4.900686e-06
  9.622918e-02    4.876745e-06
  9.652811e-02    4.907974e-06
  9.682704e-02    4.918938e-06
  9.712597e-02    4.878119e-06
  9.742490e-02    4.874067e-06
  9.772383e-02    4.857427e-06
  9.802276e-02    4.827742e-06
  9.832169e-02    4.828095e-06
  9.862062e-02    4.789844e-06
  9.891956e-02    4.786331e-06
  9.921849e-02    4.787781e-06
  9.951742e-02    4.774931e-06
  9.981635e-02    4.764365e-06
  1.001153e-01    4.743558e-06
  1.004142e-01    4.745220e-06
  1.007131e-01    4.757693e-06
  1.010121e-01    4.723426e-06
  1.013110e-01    4.730426e-06
  1.016099e-01    4.715464e-06
  1.019089e-01    4.693461e-06
  1.022078e-01    4.699035e-06
  1.025067e-01    4.686798e-06
  1.028057e-01    4.649862e-06
  1.031046e-01    4.628492e-06
  1.034035e-01    4.667538e-06
  1.037024e-01    4.666593e-06
  1.040014e-01    4.641560e-06
  1.043003e-01    4.637900e-06
  1.045992e-01    4.601688e-06
  1.048982e-01    4.605682e-06
  1.051971e-01    4.594112e-06
  1.054960e-01    4.586080e-06
  1.057950e-01    4.581393e-06
  1.060939e-01    4.565624e-06
  1.063928e-01    4.580341e-06
  1.066917e-01    4.579879e-06
  1.069907e-01    4.534014e-06
  1.072896e-01    4.525364e-06
  1.075885e-01    4.515642e-06
  1.078875e-01    4.517507e-06
  1.081864e-01    4.525059e-06
  1.084853e-01    4.501494e-06
  1.087843e-01    4.494394e-06
  1.090832e-01    4.483633e-06
  1.093821e-01    4.444797e-06
  1.096810e-01    4.434781e-06
  1.099800e-01    4.444843e-06
  1.102789e-01    4.459625e-06
  1.105778e-01    4.432620e-06
  1.108768e-01    4.418372e-06
  1.111757e-01    4.406097e-06
  1.114746e-01    4.377464e-06
  1.117736e-01    4.386633e-06
  1.120725e-01    4.421411e-06
  1.123714e-01    4.432759e-06
  1.126704e-01    4.396510e-06
  1.129693e-01    4.344989e-06
  1.132682e-01    4.347798e-06
  1.135671e-01    4.349594e-06
  1.138661e-01    4.301510e-06
  1.141650e-01    4.205446e-06
  1.144639e-01    4.221370e-06
  1.147629e-01    4.314972e-06
  1.150618e-01    4.317452e-06
  1.153607e-01    4.253950e-06
  1.156597e-01    4.239193e-06
  1.159586e-01    4.216680e-06
  1.162575e-01    4.273244e-06
  1.165564e-01    4.251243e-06
  1.168554e-01    4.230948e-06
  1.171543e-01    4.208002e-06
  1.174532e-01    4.204027e-06
  1.177522e-01    4.281202e-06
  1.180511e-01    4.271692e-06
  1.183500e-01    4.273227e-06
  1.186490e-01    4.269324e-06
  1.189479e-01    4.276880e-06
  1.192468e-01    4.300738e-06
  1.195458e-01    4.180040e-06
  1.198447e-01    4.222628e-06
  1.201436e-01    4.282261e-06
  1.204425e-01    4.423967e-06
  1.207415e-01    4.771518e-06
  1.210404e-01    4.395595e-06
  1.213393e-01    0.000000e+00
  1.216383e-01    0.000000e+00
  1.219372e-01    0.000000e+00
  1.222361e-01    0.000000e+00
  1.225351e-01    0.000000e+00
  1.228340e-01    0.000000e+00
  1.231329e-01    0.000000e+00
  1.234318e-01    0.000000e+00
  1.237308e-01    0.000000e+00
  1.240297e-01    0.000000e+00
  1.243286e-01    0.000000e+00
  1.246276e-01    0.000000e+00
  1.249265e-01    0.000000e+00
  1.252254e-01    0.000000e+00
  1.255244e-01    0.000000e+00
  1.258233e-01    0.000000e+00
  1.261222e-01    0.000000e+00
  1.264212e-01    0.000000e+00
  1.267201e-01    0.000000e+00
  1.270190e-01    0.000000e+00
  1.273179e-01    0.000000e+00
  1.276169e-01    0.000000e+00
  1.279158e-01    0.000000e+00
  1.282147e-01    0.000000e+00
  1.285137e-01    0.000000e+00
  1.288126e-01    0.000000e+00
  1.291115e-01    0.000000e+00
  1.294105e-01    0.000000e+00
  1.297094e-01    0.000000e+00
  1.300083e-01    0.000000e+00
  1.303072e-01    0.000000e+00
  1.306062e-01    0.000000e+00
  1.309051e-01    0.000000e+00
  1.312040e-01    0.000000e+00
  1.315030e-01    0.000000e+00
  1.318019e-01    0.000000e+00
  1.321008e-01    0.000000e+00
  1.323998e-01    0.000000e+00
  1.326987e-01    0.000000e+00
  1.329976e-01    0.000000e+00
  1.332965e-01    0.000000e+00
  1.335955e-01    0.000000e+00
  1.338944e-01    0.000000e+00
  1.341933e-01    0.000000e+00
  1.344923e-01    0.000000e+00
  1.347912e-01    0.000000e+00
  1.350901e-01    0.000000e+00
  1.353891e-01    0.000000e+00
  1.356880e-01    0.000000e+00
  1.359869e-01    0.000000e+00
  1.362859e-01    0.000000e+00
  1.365848e-01    0.000000e+00
  1.368837e-01    0.000000e+00
  1.371826e-01    0.000000e+00
  1.374816e-01    0.000000e+00
  1.377805e-01    0.000000e+00
  1.380794e-01    0.000000e+00
  1.383784e-01    0.000000e+00
  1.386773e-01    0.000000e+00
  1.389762e-01    0.000000e+00
  1.392752e-01    0.000000e+00
  1.395741e-01    0.000000e+00
  1.398730e-01    0.000000e+00
  1.401719e-01    0.000000e+00
  1.404709e-01    0.000000e+00
  1.407698e-01    0.000000e+00
  1.410687e-01    0.000000e+00
  1.413677e-01    0.000000e+00
  1.416666e-01    0.000000e+00
  1.419655e-01    0.000000e+00
  1.422645e-01    0.000000e+00
  1.425634e-01    0.000000e+00
  1.428623e-01    0.000000e+00
  1.431613e-01    0.000000e+00
  1.434602e-01    0.000000e+00
  1.437591e-01    0.000000e+00
  1.440580e-01    0.000000e+00
  1.443570e-01    0.000000e+00
  1.446559e-01    0.000000e+00
  1.449548e-01    0.000000e+00
  1.452538e-01    0.000000e+00
  1.455527e-01    0.000000e+00
  1.458516e-01    0.000000e+00
  1.461506e-01    0.000000e+00
  1.464495e-01    0.000000e+00
  1.467484e-01    0.000000e+00
  1.470473e-01    0.000000e+00
  1.473463e-01    0.000000e+00
  1.476452e-01    0.000000e+00
  1.479441e-01    0.000000e+00
  1.482431e-01    0.000000e+00
  1.485420e-01    0.000000e+00
  1.488409e-01    0.000000e+00
  1.491399e-01    0.000000e+00
  1.494388e-01    0.000000e+00
  1.497377e-01    0.000000e+00
  1.500367e-01    0.000000e+00
  1.503356e-01    0.000000e+00
  1.506345e-01    0.000000e+00
  1.509334e-01    0.000000e+00
  1.512324e-01    0.000000e+00
  1.515313e-01    0.000000e+00
  1.518302e-01    0.000000e+00
  1.521292e-01    0.000000e+00
  1.524281e-01    0.000000e+00
  1.527270e-01    0.000000e+00
  1.530260e-01    0.000000e+00
  1.533249e-01    0.000000e+00
  1.536238e-01    0.000000e+00
