# == pyFAI calibration ==
# Distance Sample to Detector: 2.266 m
# PONI: 5.659e-02, 4.293e-02 m
# Rotations: 0.000000 0.000000 0.000000 rad
# 
# == Fit2d calibration ==
# Distance Sample-beamCenter: 2266.000 mm
# Center: x=249.594, y=329.012 pix
# Tilt: 0.000 deg  TiltPlanRot: 0.000 deg
# 
# Detector Pilatus 300k	 PixelSize= 1.720e-04, 1.720e-04 m
#    Detector has a mask: True 
#    Detector has a dark current: False 
#    detector has a flat field: False 
# 
# Wavelength: 1.27818e-10 m
# Mask applied: user provided
# Dark current applied: False
# Flat field applied: False
# Polarization factor: None
# Normalization factor: 12742083.800000003
# --> MT-AL_F127_220228_e1d3a64e-f60c-4cd1-848a-de3270b5e4b1_1_r1d.csv
#        q_A^-1             I 
  4.457554e-03    1.971613e-03
  4.756484e-03    1.550875e-03
  5.055415e-03    1.106994e-03
  5.354345e-03    7.684118e-04
  5.653276e-03    5.856155e-04
  5.952206e-03    9.387699e-04
  6.251136e-03    8.592657e-04
  6.550067e-03    7.473133e-04
  6.848997e-03    6.375500e-04
  7.147927e-03    5.393268e-04
  7.446858e-03    4.605940e-04
  7.745788e-03    3.947828e-04
  8.044719e-03    3.395299e-04
  8.343649e-03    2.962625e-04
  8.642579e-03    2.588393e-04
  8.941510e-03    2.279688e-04
  9.240440e-03    2.023442e-04
  9.539371e-03    1.797391e-04
  9.838301e-03    1.600455e-04
  1.013723e-02    1.436332e-04
  1.043616e-02    1.288819e-04
  1.073509e-02    1.159543e-04
  1.103402e-02    1.051952e-04
  1.133295e-02    9.566814e-05
  1.163188e-02    8.719930e-05
  1.193081e-02    7.954398e-05
  1.222974e-02    7.271549e-05
  1.252867e-02    6.709918e-05
  1.282760e-02    6.178428e-05
  1.312654e-02    5.697578e-05
  1.342547e-02    5.268472e-05
  1.372440e-02    4.885312e-05
  1.402333e-02    4.530820e-05
  1.432226e-02    4.214459e-05
  1.462119e-02    3.933203e-05
  1.492012e-02    3.682508e-05
  1.521905e-02    3.445979e-05
  1.551798e-02    3.236574e-05
  1.581691e-02    3.046992e-05
  1.611584e-02    2.860712e-05
  1.641477e-02    2.709764e-05
  1.671370e-02    2.553389e-05
  1.701263e-02    2.418530e-05
  1.731156e-02    2.294596e-05
  1.761049e-02    2.185421e-05
  1.790942e-02    2.080871e-05
  1.820835e-02    1.977090e-05
  1.850728e-02    1.890343e-05
  1.880621e-02    1.811699e-05
  1.910514e-02    1.740370e-05
  1.940407e-02    1.668379e-05
  1.970300e-02    1.595020e-05
  2.000193e-02    1.531246e-05
  2.030086e-02    1.473874e-05
  2.059979e-02    1.431844e-05
  2.089873e-02    1.379962e-05
  2.119766e-02    1.329036e-05
  2.149659e-02    1.286604e-05
  2.179552e-02    1.245001e-05
  2.209445e-02    1.213125e-05
  2.239338e-02    1.178227e-05
  2.269231e-02    1.144885e-05
  2.299124e-02    1.110778e-05
  2.329017e-02    1.082905e-05
  2.358910e-02    1.056261e-05
  2.388803e-02    1.032592e-05
  2.418696e-02    1.011262e-05
  2.448589e-02    9.880477e-06
  2.478482e-02    9.648184e-06
  2.508375e-02    9.407339e-06
  2.538268e-02    9.268343e-06
  2.568161e-02    9.142644e-06
  2.598054e-02    8.974093e-06
  2.627947e-02    8.828874e-06
  2.657840e-02    8.660722e-06
  2.687733e-02    8.549564e-06
  2.717626e-02    8.417272e-06
  2.747519e-02    8.274185e-06
  2.777412e-02    8.120211e-06
  2.807305e-02    7.993019e-06
  2.837198e-02    7.916452e-06
  2.867092e-02    7.777599e-06
  2.896985e-02    7.684338e-06
  2.926878e-02    7.616709e-06
  2.956771e-02    7.532171e-06
  2.986664e-02    7.431286e-06
  3.016557e-02    7.370795e-06
  3.046450e-02    7.305920e-06
  3.076343e-02    7.219890e-06
  3.106236e-02    7.134812e-06
  3.136129e-02    7.056940e-06
  3.166022e-02    6.957296e-06
  3.195915e-02    6.954330e-06
  3.225808e-02    6.931571e-06
  3.255701e-02    6.793897e-06
  3.285594e-02    6.693958e-06
  3.315487e-02    6.685851e-06
  3.345380e-02    6.637707e-06
  3.375273e-02    6.567906e-06
  3.405166e-02    6.517198e-06
  3.435059e-02    6.475345e-06
  3.464952e-02    6.400280e-06
  3.494845e-02    6.357790e-06
  3.524738e-02    6.280505e-06
  3.554631e-02    6.232800e-06
  3.584524e-02    6.176623e-06
  3.614417e-02    6.121080e-06
  3.644310e-02    6.070503e-06
  3.674204e-02    5.989374e-06
  3.704097e-02    5.949377e-06
  3.733990e-02    5.938644e-06
  3.763883e-02    5.885203e-06
  3.793776e-02    5.836202e-06
  3.823669e-02    5.810889e-06
  3.853562e-02    5.784836e-06
  3.883455e-02    5.753726e-06
  3.913348e-02    5.675879e-06
  3.943241e-02    5.626698e-06
  3.973134e-02    5.592656e-06
  4.003027e-02    5.555719e-06
  4.032920e-02    5.559200e-06
  4.062813e-02    5.536901e-06
  4.092706e-02    5.520212e-06
  4.122599e-02    5.471493e-06
  4.152492e-02    5.417164e-06
  4.182385e-02    5.413302e-06
  4.212278e-02    5.412815e-06
  4.242171e-02    5.404596e-06
  4.272064e-02    5.406574e-06
  4.301957e-02    5.396968e-06
  4.331850e-02    5.330328e-06
  4.361743e-02    5.314519e-06
  4.391636e-02    5.345175e-06
  4.421529e-02    5.343784e-06
  4.451423e-02    5.312828e-06
  4.481316e-02    5.305737e-06
  4.511209e-02    5.284594e-06
  4.541102e-02    5.262891e-06
  4.570995e-02    5.276270e-06
  4.600888e-02    5.274860e-06
  4.630781e-02    5.276969e-06
  4.660674e-02    5.272218e-06
  4.690567e-02    5.264189e-06
  4.720460e-02    5.224916e-06
  4.750353e-02    5.225880e-06
  4.780246e-02    5.218310e-06
  4.810139e-02    5.207128e-06
  4.840032e-02    5.213880e-06
  4.869925e-02    5.188637e-06
  4.899818e-02    5.188258e-06
  4.929711e-02    5.176957e-06
  4.959604e-02    5.194153e-06
  4.989497e-02    5.226490e-06
  5.019390e-02    5.223166e-06
  5.049283e-02    5.180808e-06
  5.079176e-02    5.181304e-06
  5.109069e-02    5.194800e-06
  5.138962e-02    5.242506e-06
  5.168855e-02    5.355242e-06
  5.198748e-02    5.454805e-06
  5.228642e-02    5.389572e-06
  5.258535e-02    5.232470e-06
  5.288428e-02    5.189614e-06
  5.318321e-02    5.198716e-06
  5.348214e-02    5.165729e-06
  5.378107e-02    5.161846e-06
  5.408000e-02    5.164998e-06
  5.437893e-02    5.174285e-06
  5.467786e-02    5.164641e-06
  5.497679e-02    5.137139e-06
  5.527572e-02    5.141431e-06
  5.557465e-02    5.178557e-06
  5.587358e-02    5.192058e-06
  5.617251e-02    5.200174e-06
  5.647144e-02    5.209333e-06
  5.677037e-02    5.187975e-06
  5.706930e-02    5.186420e-06
  5.736823e-02    5.209322e-06
  5.766716e-02    5.197632e-06
  5.796609e-02    5.191319e-06
  5.826502e-02    5.201005e-06
  5.856395e-02    5.227057e-06
  5.886288e-02    5.237166e-06
  5.916181e-02    5.238091e-06
  5.946074e-02    5.236640e-06
  5.975967e-02    5.239547e-06
  6.005861e-02    5.242607e-06
  6.035754e-02    5.237081e-06
  6.065647e-02    5.293379e-06
  6.095540e-02    5.374655e-06
  6.125433e-02    5.424432e-06
  6.155326e-02    5.423195e-06
  6.185219e-02    5.359186e-06
  6.215112e-02    5.310952e-06
  6.245005e-02    5.320453e-06
  6.274898e-02    5.324118e-06
  6.304791e-02    5.304411e-06
  6.334684e-02    5.299538e-06
  6.364577e-02    5.336234e-06
  6.394470e-02    5.351325e-06
  6.424363e-02    5.362388e-06
  6.454256e-02    5.364937e-06
  6.484149e-02    5.351498e-06
  6.514042e-02    5.361463e-06
  6.543935e-02    5.376150e-06
  6.573828e-02    5.394151e-06
  6.603721e-02    5.389929e-06
  6.633614e-02    5.419623e-06
  6.663507e-02    5.432937e-06
  6.693400e-02    5.431165e-06
  6.723293e-02    5.436397e-06
  6.753186e-02    5.438294e-06
  6.783080e-02    5.462329e-06
  6.812973e-02    5.480993e-06
  6.842866e-02    5.450840e-06
  6.872759e-02    5.452920e-06
  6.902652e-02    5.475171e-06
  6.932545e-02    5.488707e-06
  6.962438e-02    5.507015e-06
  6.992331e-02    5.507327e-06
  7.022224e-02    5.516590e-06
  7.052117e-02    5.523853e-06
  7.082010e-02    5.537577e-06
  7.111903e-02    5.547729e-06
  7.141796e-02    5.569253e-06
  7.171689e-02    5.567449e-06
  7.201582e-02    5.555060e-06
  7.231475e-02    5.560920e-06
  7.261368e-02    5.554250e-06
  7.291261e-02    5.566888e-06
  7.321154e-02    5.576517e-06
  7.351047e-02    5.586265e-06
  7.380940e-02    5.586682e-06
  7.410833e-02    5.604340e-06
  7.440726e-02    5.625113e-06
  7.470619e-02    5.569135e-06
  7.500512e-02    5.582992e-06
  7.530405e-02    5.599957e-06
  7.560299e-02    5.585429e-06
  7.590192e-02    5.573555e-06
  7.620085e-02    5.595642e-06
  7.649978e-02    5.602609e-06
  7.679871e-02    5.630492e-06
  7.709764e-02    5.609901e-06
  7.739657e-02    5.576176e-06
  7.769550e-02    5.566085e-06
  7.799443e-02    5.573674e-06
  7.829336e-02    5.571867e-06
  7.859229e-02    5.564291e-06
  7.889122e-02    5.564517e-06
  7.919015e-02    5.571302e-06
  7.948908e-02    5.592567e-06
  7.978801e-02    5.588272e-06
  8.008694e-02    5.583451e-06
  8.038587e-02    5.581464e-06
  8.068480e-02    5.556059e-06
  8.098373e-02    5.539312e-06
  8.128266e-02    5.551953e-06
  8.158159e-02    5.549967e-06
  8.188052e-02    5.535781e-06
  8.217945e-02    5.524602e-06
  8.247838e-02    5.522091e-06
  8.277731e-02    5.523205e-06
  8.307624e-02    5.518530e-06
  8.337518e-02    5.520472e-06
  8.367411e-02    5.507334e-06
  8.397304e-02    5.500749e-06
  8.427197e-02    5.504421e-06
  8.457090e-02    5.500278e-06
  8.486983e-02    5.474736e-06
  8.516876e-02    5.474139e-06
  8.546769e-02    5.466874e-06
  8.576662e-02    5.442142e-06
  8.606555e-02    5.446112e-06
  8.636448e-02    5.459040e-06
  8.666341e-02    5.427702e-06
  8.696234e-02    5.397224e-06
  8.726127e-02    5.384603e-06
  8.756020e-02    5.379087e-06
  8.785913e-02    5.384089e-06
  8.815806e-02    5.375325e-06
  8.845699e-02    5.375768e-06
  8.875592e-02    5.373339e-06
  8.905485e-02    5.330378e-06
  8.935378e-02    5.333397e-06
  8.965271e-02    5.331098e-06
  8.995164e-02    5.332351e-06
  9.025057e-02    5.323584e-06
  9.054950e-02    5.298826e-06
  9.084843e-02    5.313123e-06
  9.114737e-02    5.291642e-06
  9.144630e-02    5.259872e-06
  9.174523e-02    5.268514e-06
  9.204416e-02    5.271707e-06
  9.234309e-02    5.228367e-06
  9.264202e-02    5.221072e-06
  9.294095e-02    5.212889e-06
  9.323988e-02    5.180294e-06
  9.353881e-02    5.178184e-06
  9.383774e-02    5.167949e-06
  9.413667e-02    5.175743e-06
  9.443560e-02    5.198916e-06
  9.473453e-02    5.194221e-06
  9.503346e-02    5.193772e-06
  9.533239e-02    5.194380e-06
  9.563132e-02    5.172290e-06
  9.593025e-02    5.167074e-06
  9.622918e-02    5.168602e-06
  9.652811e-02    5.175459e-06
  9.682704e-02    5.170834e-06
  9.712597e-02    5.188098e-06
  9.742490e-02    5.162030e-06
  9.772383e-02    5.114448e-06
  9.802276e-02    5.091798e-06
  9.832169e-02    5.068109e-06
  9.862062e-02    5.074282e-06
  9.891956e-02    5.044709e-06
  9.921849e-02    5.021715e-06
  9.951742e-02    5.043253e-06
  9.981635e-02    5.026621e-06
  1.001153e-01    5.004297e-06
  1.004142e-01    5.004606e-06
  1.007131e-01    4.978380e-06
  1.010121e-01    4.972254e-06
  1.013110e-01    4.964357e-06
  1.016099e-01    4.948198e-06
  1.019089e-01    4.933688e-06
  1.022078e-01    4.930966e-06
  1.025067e-01    4.938414e-06
  1.028057e-01    4.895818e-06
  1.031046e-01    4.899201e-06
  1.034035e-01    4.931058e-06
  1.037024e-01    4.912097e-06
  1.040014e-01    4.884790e-06
  1.043003e-01    4.875051e-06
  1.045992e-01    4.873762e-06
  1.048982e-01    4.858403e-06
  1.051971e-01    4.858939e-06
  1.054960e-01    4.824047e-06
  1.057950e-01    4.817976e-06
  1.060939e-01    4.794635e-06
  1.063928e-01    4.775884e-06
  1.066917e-01    4.775815e-06
  1.069907e-01    4.773222e-06
  1.072896e-01    4.773118e-06
  1.075885e-01    4.770121e-06
  1.078875e-01    4.751502e-06
  1.081864e-01    4.755315e-06
  1.084853e-01    4.731895e-06
  1.087843e-01    4.733120e-06
  1.090832e-01    4.742142e-06
  1.093821e-01    4.730429e-06
  1.096810e-01    4.707771e-06
  1.099800e-01    4.707429e-06
  1.102789e-01    4.664991e-06
  1.105778e-01    4.678360e-06
  1.108768e-01    4.670008e-06
  1.111757e-01    4.623286e-06
  1.114746e-01    4.593572e-06
  1.117736e-01    4.588975e-06
  1.120725e-01    4.656101e-06
  1.123714e-01    4.620073e-06
  1.126704e-01    4.553025e-06
  1.129693e-01    4.548237e-06
  1.132682e-01    4.536091e-06
  1.135671e-01    4.543403e-06
  1.138661e-01    4.517833e-06
  1.141650e-01    4.497397e-06
  1.144639e-01    4.494471e-06
  1.147629e-01    4.487331e-06
  1.150618e-01    4.506114e-06
  1.153607e-01    4.515889e-06
  1.156597e-01    4.491083e-06
  1.159586e-01    4.485429e-06
  1.162575e-01    4.507919e-06
  1.165564e-01    4.512760e-06
  1.168554e-01    4.490964e-06
  1.171543e-01    4.495532e-06
  1.174532e-01    4.439810e-06
  1.177522e-01    4.438327e-06
  1.180511e-01    4.488264e-06
  1.183500e-01    4.488887e-06
  1.186490e-01    4.465230e-06
  1.189479e-01    4.436180e-06
  1.192468e-01    4.472386e-06
  1.195458e-01    4.486497e-06
  1.198447e-01    4.468705e-06
  1.201436e-01    4.502267e-06
  1.204425e-01    4.204023e-06
  1.207415e-01    4.096298e-06
  1.210404e-01    4.241764e-06
  1.213393e-01    0.000000e+00
  1.216383e-01    0.000000e+00
  1.219372e-01    0.000000e+00
  1.222361e-01    0.000000e+00
  1.225351e-01    0.000000e+00
  1.228340e-01    0.000000e+00
  1.231329e-01    0.000000e+00
  1.234318e-01    0.000000e+00
  1.237308e-01    0.000000e+00
  1.240297e-01    0.000000e+00
  1.243286e-01    0.000000e+00
  1.246276e-01    0.000000e+00
  1.249265e-01    0.000000e+00
  1.252254e-01    0.000000e+00
  1.255244e-01    0.000000e+00
  1.258233e-01    0.000000e+00
  1.261222e-01    0.000000e+00
  1.264212e-01    0.000000e+00
  1.267201e-01    0.000000e+00
  1.270190e-01    0.000000e+00
  1.273179e-01    0.000000e+00
  1.276169e-01    0.000000e+00
  1.279158e-01    0.000000e+00
  1.282147e-01    0.000000e+00
  1.285137e-01    0.000000e+00
  1.288126e-01    0.000000e+00
  1.291115e-01    0.000000e+00
  1.294105e-01    0.000000e+00
  1.297094e-01    0.000000e+00
  1.300083e-01    0.000000e+00
  1.303072e-01    0.000000e+00
  1.306062e-01    0.000000e+00
  1.309051e-01    0.000000e+00
  1.312040e-01    0.000000e+00
  1.315030e-01    0.000000e+00
  1.318019e-01    0.000000e+00
  1.321008e-01    0.000000e+00
  1.323998e-01    0.000000e+00
  1.326987e-01    0.000000e+00
  1.329976e-01    0.000000e+00
  1.332965e-01    0.000000e+00
  1.335955e-01    0.000000e+00
  1.338944e-01    0.000000e+00
  1.341933e-01    0.000000e+00
  1.344923e-01    0.000000e+00
  1.347912e-01    0.000000e+00
  1.350901e-01    0.000000e+00
  1.353891e-01    0.000000e+00
  1.356880e-01    0.000000e+00
  1.359869e-01    0.000000e+00
  1.362859e-01    0.000000e+00
  1.365848e-01    0.000000e+00
  1.368837e-01    0.000000e+00
  1.371826e-01    0.000000e+00
  1.374816e-01    0.000000e+00
  1.377805e-01    0.000000e+00
  1.380794e-01    0.000000e+00
  1.383784e-01    0.000000e+00
  1.386773e-01    0.000000e+00
  1.389762e-01    0.000000e+00
  1.392752e-01    0.000000e+00
  1.395741e-01    0.000000e+00
  1.398730e-01    0.000000e+00
  1.401719e-01    0.000000e+00
  1.404709e-01    0.000000e+00
  1.407698e-01    0.000000e+00
  1.410687e-01    0.000000e+00
  1.413677e-01    0.000000e+00
  1.416666e-01    0.000000e+00
  1.419655e-01    0.000000e+00
  1.422645e-01    0.000000e+00
  1.425634e-01    0.000000e+00
  1.428623e-01    0.000000e+00
  1.431613e-01    0.000000e+00
  1.434602e-01    0.000000e+00
  1.437591e-01    0.000000e+00
  1.440580e-01    0.000000e+00
  1.443570e-01    0.000000e+00
  1.446559e-01    0.000000e+00
  1.449548e-01    0.000000e+00
  1.452538e-01    0.000000e+00
  1.455527e-01    0.000000e+00
  1.458516e-01    0.000000e+00
  1.461506e-01    0.000000e+00
  1.464495e-01    0.000000e+00
  1.467484e-01    0.000000e+00
  1.470473e-01    0.000000e+00
  1.473463e-01    0.000000e+00
  1.476452e-01    0.000000e+00
  1.479441e-01    0.000000e+00
  1.482431e-01    0.000000e+00
  1.485420e-01    0.000000e+00
  1.488409e-01    0.000000e+00
  1.491399e-01    0.000000e+00
  1.494388e-01    0.000000e+00
  1.497377e-01    0.000000e+00
  1.500367e-01    0.000000e+00
  1.503356e-01    0.000000e+00
  1.506345e-01    0.000000e+00
  1.509334e-01    0.000000e+00
  1.512324e-01    0.000000e+00
  1.515313e-01    0.000000e+00
  1.518302e-01    0.000000e+00
  1.521292e-01    0.000000e+00
  1.524281e-01    0.000000e+00
  1.527270e-01    0.000000e+00
  1.530260e-01    0.000000e+00
  1.533249e-01    0.000000e+00
  1.536238e-01    0.000000e+00
