# == pyFAI calibration ==
# Distance Sample to Detector: 2.266 m
# PONI: 5.659e-02, 4.293e-02 m
# Rotations: 0.000000 0.000000 0.000000 rad
# 
# == Fit2d calibration ==
# Distance Sample-beamCenter: 2266.000 mm
# Center: x=249.594, y=329.012 pix
# Tilt: 0.000 deg  TiltPlanRot: 0.000 deg
# 
# Detector Pilatus 300k	 PixelSize= 1.720e-04, 1.720e-04 m
#    Detector has a mask: True 
#    Detector has a dark current: False 
#    detector has a flat field: False 
# 
# Wavelength: 1.27818e-10 m
# Mask applied: user provided
# Dark current applied: False
# Flat field applied: False
# Polarization factor: None
# Normalization factor: 13627547.400000004
# --> MT-AL_F127_220226_ce0889f2-47c7-4135-ba5d-10a33a8bc7ca_2_r1d.csv
#        q_A^-1             I 
  4.457554e-03    2.027430e-03
  4.756484e-03    1.569598e-03
  5.055415e-03    1.096721e-03
  5.354345e-03    7.630231e-04
  5.653276e-03    5.820530e-04
  5.952206e-03    9.423193e-04
  6.251136e-03    8.611188e-04
  6.550067e-03    7.483204e-04
  6.848997e-03    6.354473e-04
  7.147927e-03    5.368826e-04
  7.446858e-03    4.579329e-04
  7.745788e-03    3.922035e-04
  8.044719e-03    3.377128e-04
  8.343649e-03    2.942864e-04
  8.642579e-03    2.564985e-04
  8.941510e-03    2.259467e-04
  9.240440e-03    1.999595e-04
  9.539371e-03    1.772625e-04
  9.838301e-03    1.579801e-04
  1.013723e-02    1.414784e-04
  1.043616e-02    1.274965e-04
  1.073509e-02    1.147874e-04
  1.103402e-02    1.038580e-04
  1.133295e-02    9.395838e-05
  1.163188e-02    8.541284e-05
  1.193081e-02    7.833920e-05
  1.222974e-02    7.176874e-05
  1.252867e-02    6.595821e-05
  1.282760e-02    6.081519e-05
  1.312654e-02    5.598319e-05
  1.342547e-02    5.171892e-05
  1.372440e-02    4.803910e-05
  1.402333e-02    4.454482e-05
  1.432226e-02    4.153074e-05
  1.462119e-02    3.874205e-05
  1.492012e-02    3.626488e-05
  1.521905e-02    3.391733e-05
  1.551798e-02    3.184208e-05
  1.581691e-02    2.993017e-05
  1.611584e-02    2.831039e-05
  1.641477e-02    2.660175e-05
  1.671370e-02    2.512116e-05
  1.701263e-02    2.394927e-05
  1.731156e-02    2.257589e-05
  1.761049e-02    2.147178e-05
  1.790942e-02    2.045945e-05
  1.820835e-02    1.944761e-05
  1.850728e-02    1.862211e-05
  1.880621e-02    1.783944e-05
  1.910514e-02    1.714957e-05
  1.940407e-02    1.639426e-05
  1.970300e-02    1.563617e-05
  2.000193e-02    1.510908e-05
  2.030086e-02    1.457425e-05
  2.059979e-02    1.408227e-05
  2.089873e-02    1.363949e-05
  2.119766e-02    1.315097e-05
  2.149659e-02    1.272797e-05
  2.179552e-02    1.230833e-05
  2.209445e-02    1.192985e-05
  2.239338e-02    1.158501e-05
  2.269231e-02    1.122397e-05
  2.299124e-02    1.093519e-05
  2.329017e-02    1.067549e-05
  2.358910e-02    1.038512e-05
  2.388803e-02    1.012495e-05
  2.418696e-02    9.878871e-06
  2.448589e-02    9.684993e-06
  2.478482e-02    9.472399e-06
  2.508375e-02    9.270680e-06
  2.538268e-02    9.075071e-06
  2.568161e-02    8.932902e-06
  2.598054e-02    8.757382e-06
  2.627947e-02    8.646731e-06
  2.657840e-02    8.506388e-06
  2.687733e-02    8.308608e-06
  2.717626e-02    8.203951e-06
  2.747519e-02    8.062607e-06
  2.777412e-02    7.992703e-06
  2.807305e-02    7.931430e-06
  2.837198e-02    7.832425e-06
  2.867092e-02    7.722366e-06
  2.896985e-02    7.556430e-06
  2.926878e-02    7.448162e-06
  2.956771e-02    7.392099e-06
  2.986664e-02    7.316142e-06
  3.016557e-02    7.218454e-06
  3.046450e-02    7.126999e-06
  3.076343e-02    7.090055e-06
  3.106236e-02    7.028114e-06
  3.136129e-02    6.993139e-06
  3.166022e-02    6.941333e-06
  3.195915e-02    6.874528e-06
  3.225808e-02    6.811635e-06
  3.255701e-02    6.741509e-06
  3.285594e-02    6.642585e-06
  3.315487e-02    6.605428e-06
  3.345380e-02    6.525817e-06
  3.375273e-02    6.431904e-06
  3.405166e-02    6.403669e-06
  3.435059e-02    6.321968e-06
  3.464952e-02    6.283182e-06
  3.494845e-02    6.209801e-06
  3.524738e-02    6.148764e-06
  3.554631e-02    6.140279e-06
  3.584524e-02    6.079310e-06
  3.614417e-02    6.020679e-06
  3.644310e-02    5.968716e-06
  3.674204e-02    5.883195e-06
  3.704097e-02    5.852037e-06
  3.733990e-02    5.819767e-06
  3.763883e-02    5.792312e-06
  3.793776e-02    5.719866e-06
  3.823669e-02    5.635442e-06
  3.853562e-02    5.637294e-06
  3.883455e-02    5.615260e-06
  3.913348e-02    5.612797e-06
  3.943241e-02    5.580883e-06
  3.973134e-02    5.535823e-06
  4.003027e-02    5.489696e-06
  4.032920e-02    5.472415e-06
  4.062813e-02    5.475195e-06
  4.092706e-02    5.433298e-06
  4.122599e-02    5.395254e-06
  4.152492e-02    5.382041e-06
  4.182385e-02    5.362066e-06
  4.212278e-02    5.333319e-06
  4.242171e-02    5.328296e-06
  4.272064e-02    5.319583e-06
  4.301957e-02    5.297039e-06
  4.331850e-02    5.281092e-06
  4.361743e-02    5.235137e-06
  4.391636e-02    5.197488e-06
  4.421529e-02    5.199454e-06
  4.451423e-02    5.219953e-06
  4.481316e-02    5.206144e-06
  4.511209e-02    5.182034e-06
  4.541102e-02    5.176586e-06
  4.570995e-02    5.182276e-06
  4.600888e-02    5.183581e-06
  4.630781e-02    5.208977e-06
  4.660674e-02    5.205256e-06
  4.690567e-02    5.176473e-06
  4.720460e-02    5.168140e-06
  4.750353e-02    5.189424e-06
  4.780246e-02    5.176420e-06
  4.810139e-02    5.175732e-06
  4.840032e-02    5.176194e-06
  4.869925e-02    5.158295e-06
  4.899818e-02    5.145864e-06
  4.929711e-02    5.148622e-06
  4.959604e-02    5.144902e-06
  4.989497e-02    5.162477e-06
  5.019390e-02    5.133061e-06
  5.049283e-02    5.135402e-06
  5.079176e-02    5.153781e-06
  5.109069e-02    5.177874e-06
  5.138962e-02    5.223851e-06
  5.168855e-02    5.291914e-06
  5.198748e-02    5.341027e-06
  5.228642e-02    5.313899e-06
  5.258535e-02    5.175802e-06
  5.288428e-02    5.129158e-06
  5.318321e-02    5.126701e-06
  5.348214e-02    5.106835e-06
  5.378107e-02    5.108078e-06
  5.408000e-02    5.119624e-06
  5.437893e-02    5.128609e-06
  5.467786e-02    5.165491e-06
  5.497679e-02    5.118408e-06
  5.527572e-02    5.099670e-06
  5.557465e-02    5.136756e-06
  5.587358e-02    5.156657e-06
  5.617251e-02    5.157051e-06
  5.647144e-02    5.173402e-06
  5.677037e-02    5.168930e-06
  5.706930e-02    5.163981e-06
  5.736823e-02    5.137235e-06
  5.766716e-02    5.152076e-06
  5.796609e-02    5.176987e-06
  5.826502e-02    5.186464e-06
  5.856395e-02    5.192634e-06
  5.886288e-02    5.169351e-06
  5.916181e-02    5.198155e-06
  5.946074e-02    5.203357e-06
  5.975967e-02    5.199805e-06
  6.005861e-02    5.239458e-06
  6.035754e-02    5.260682e-06
  6.065647e-02    5.282328e-06
  6.095540e-02    5.331189e-06
  6.125433e-02    5.401899e-06
  6.155326e-02    5.439349e-06
  6.185219e-02    5.365512e-06
  6.215112e-02    5.315555e-06
  6.245005e-02    5.296139e-06
  6.274898e-02    5.285503e-06
  6.304791e-02    5.303400e-06
  6.334684e-02    5.313721e-06
  6.364577e-02    5.319845e-06
  6.394470e-02    5.341358e-06
  6.424363e-02    5.362719e-06
  6.454256e-02    5.347487e-06
  6.484149e-02    5.346542e-06
  6.514042e-02    5.361411e-06
  6.543935e-02    5.369916e-06
  6.573828e-02    5.356575e-06
  6.603721e-02    5.370845e-06
  6.633614e-02    5.392074e-06
  6.663507e-02    5.391812e-06
  6.693400e-02    5.425367e-06
  6.723293e-02    5.427977e-06
  6.753186e-02    5.445931e-06
  6.783080e-02    5.456946e-06
  6.812973e-02    5.461738e-06
  6.842866e-02    5.454251e-06
  6.872759e-02    5.448318e-06
  6.902652e-02    5.454743e-06
  6.932545e-02    5.458292e-06
  6.962438e-02    5.483226e-06
  6.992331e-02    5.533856e-06
  7.022224e-02    5.541903e-06
  7.052117e-02    5.566943e-06
  7.082010e-02    5.553682e-06
  7.111903e-02    5.520582e-06
  7.141796e-02    5.529338e-06
  7.171689e-02    5.557594e-06
  7.201582e-02    5.566774e-06
  7.231475e-02    5.591893e-06
  7.261368e-02    5.590375e-06
  7.291261e-02    5.583812e-06
  7.321154e-02    5.609138e-06
  7.351047e-02    5.586947e-06
  7.380940e-02    5.565990e-06
  7.410833e-02    5.591628e-06
  7.440726e-02    5.589097e-06
  7.470619e-02    5.580860e-06
  7.500512e-02    5.599709e-06
  7.530405e-02    5.606694e-06
  7.560299e-02    5.616705e-06
  7.590192e-02    5.626316e-06
  7.620085e-02    5.598904e-06
  7.649978e-02    5.585868e-06
  7.679871e-02    5.581870e-06
  7.709764e-02    5.600559e-06
  7.739657e-02    5.597217e-06
  7.769550e-02    5.598998e-06
  7.799443e-02    5.594384e-06
  7.829336e-02    5.608645e-06
  7.859229e-02    5.622554e-06
  7.889122e-02    5.601841e-06
  7.919015e-02    5.596829e-06
  7.948908e-02    5.606814e-06
  7.978801e-02    5.608416e-06
  8.008694e-02    5.597714e-06
  8.038587e-02    5.598636e-06
  8.068480e-02    5.585278e-06
  8.098373e-02    5.581751e-06
  8.128266e-02    5.569127e-06
  8.158159e-02    5.548463e-06
  8.188052e-02    5.546790e-06
  8.217945e-02    5.575584e-06
  8.247838e-02    5.556085e-06
  8.277731e-02    5.530841e-06
  8.307624e-02    5.512195e-06
  8.337518e-02    5.513362e-06
  8.367411e-02    5.523645e-06
  8.397304e-02    5.526119e-06
  8.427197e-02    5.534650e-06
  8.457090e-02    5.531201e-06
  8.486983e-02    5.506301e-06
  8.516876e-02    5.486828e-06
  8.546769e-02    5.485970e-06
  8.576662e-02    5.474191e-06
  8.606555e-02    5.488942e-06
  8.636448e-02    5.483824e-06
  8.666341e-02    5.470247e-06
  8.696234e-02    5.448843e-06
  8.726127e-02    5.437711e-06
  8.756020e-02    5.417744e-06
  8.785913e-02    5.405502e-06
  8.815806e-02    5.403506e-06
  8.845699e-02    5.384760e-06
  8.875592e-02    5.383866e-06
  8.905485e-02    5.383279e-06
  8.935378e-02    5.404261e-06
  8.965271e-02    5.390786e-06
  8.995164e-02    5.359163e-06
  9.025057e-02    5.366599e-06
  9.054950e-02    5.342851e-06
  9.084843e-02    5.306773e-06
  9.114737e-02    5.305813e-06
  9.144630e-02    5.320930e-06
  9.174523e-02    5.318494e-06
  9.204416e-02    5.301239e-06
  9.234309e-02    5.292432e-06
  9.264202e-02    5.265026e-06
  9.294095e-02    5.235327e-06
  9.323988e-02    5.234730e-06
  9.353881e-02    5.250703e-06
  9.383774e-02    5.230264e-06
  9.413667e-02    5.191283e-06
  9.443560e-02    5.189185e-06
  9.473453e-02    5.202513e-06
  9.503346e-02    5.196666e-06
  9.533239e-02    5.163197e-06
  9.563132e-02    5.140184e-06
  9.593025e-02    5.166256e-06
  9.622918e-02    5.203642e-06
  9.652811e-02    5.173209e-06
  9.682704e-02    5.166893e-06
  9.712597e-02    5.183743e-06
  9.742490e-02    5.167143e-06
  9.772383e-02    5.143725e-06
  9.802276e-02    5.118251e-06
  9.832169e-02    5.090122e-06
  9.862062e-02    5.104597e-06
  9.891956e-02    5.071664e-06
  9.921849e-02    5.038268e-06
  9.951742e-02    5.033676e-06
  9.981635e-02    5.031231e-06
  1.001153e-01    4.999850e-06
  1.004142e-01    4.990419e-06
  1.007131e-01    4.995301e-06
  1.010121e-01    4.981826e-06
  1.013110e-01    4.972399e-06
  1.016099e-01    4.959859e-06
  1.019089e-01    4.944024e-06
  1.022078e-01    4.934318e-06
  1.025067e-01    4.921611e-06
  1.028057e-01    4.907528e-06
  1.031046e-01    4.909162e-06
  1.034035e-01    4.908165e-06
  1.037024e-01    4.901532e-06
  1.040014e-01    4.888911e-06
  1.043003e-01    4.859113e-06
  1.045992e-01    4.857719e-06
  1.048982e-01    4.868581e-06
  1.051971e-01    4.858740e-06
  1.054960e-01    4.844626e-06
  1.057950e-01    4.822699e-06
  1.060939e-01    4.839186e-06
  1.063928e-01    4.827669e-06
  1.066917e-01    4.822351e-06
  1.069907e-01    4.808534e-06
  1.072896e-01    4.788260e-06
  1.075885e-01    4.748314e-06
  1.078875e-01    4.759099e-06
  1.081864e-01    4.780495e-06
  1.084853e-01    4.762079e-06
  1.087843e-01    4.755758e-06
  1.090832e-01    4.755773e-06
  1.093821e-01    4.747506e-06
  1.096810e-01    4.736124e-06
  1.099800e-01    4.691529e-06
  1.102789e-01    4.652368e-06
  1.105778e-01    4.647166e-06
  1.108768e-01    4.636771e-06
  1.111757e-01    4.633255e-06
  1.114746e-01    4.627542e-06
  1.117736e-01    4.610316e-06
  1.120725e-01    4.625091e-06
  1.123714e-01    4.626017e-06
  1.126704e-01    4.583495e-06
  1.129693e-01    4.543928e-06
  1.132682e-01    4.528719e-06
  1.135671e-01    4.509189e-06
  1.138661e-01    4.521550e-06
  1.141650e-01    4.518643e-06
  1.144639e-01    4.492096e-06
  1.147629e-01    4.489457e-06
  1.150618e-01    4.477282e-06
  1.153607e-01    4.509998e-06
  1.156597e-01    4.491754e-06
  1.159586e-01    4.472915e-06
  1.162575e-01    4.482954e-06
  1.165564e-01    4.487440e-06
  1.168554e-01    4.477386e-06
  1.171543e-01    4.451373e-06
  1.174532e-01    4.420273e-06
  1.177522e-01    4.456986e-06
  1.180511e-01    4.502896e-06
  1.183500e-01    4.421181e-06
  1.186490e-01    4.400534e-06
  1.189479e-01    4.445340e-06
  1.192468e-01    4.485130e-06
  1.195458e-01    4.482398e-06
  1.198447e-01    4.449557e-06
  1.201436e-01    4.443102e-06
  1.204425e-01    4.392017e-06
  1.207415e-01    4.366449e-06
  1.210404e-01    3.231679e-06
  1.213393e-01    0.000000e+00
  1.216383e-01    0.000000e+00
  1.219372e-01    0.000000e+00
  1.222361e-01    0.000000e+00
  1.225351e-01    0.000000e+00
  1.228340e-01    0.000000e+00
  1.231329e-01    0.000000e+00
  1.234318e-01    0.000000e+00
  1.237308e-01    0.000000e+00
  1.240297e-01    0.000000e+00
  1.243286e-01    0.000000e+00
  1.246276e-01    0.000000e+00
  1.249265e-01    0.000000e+00
  1.252254e-01    0.000000e+00
  1.255244e-01    0.000000e+00
  1.258233e-01    0.000000e+00
  1.261222e-01    0.000000e+00
  1.264212e-01    0.000000e+00
  1.267201e-01    0.000000e+00
  1.270190e-01    0.000000e+00
  1.273179e-01    0.000000e+00
  1.276169e-01    0.000000e+00
  1.279158e-01    0.000000e+00
  1.282147e-01    0.000000e+00
  1.285137e-01    0.000000e+00
  1.288126e-01    0.000000e+00
  1.291115e-01    0.000000e+00
  1.294105e-01    0.000000e+00
  1.297094e-01    0.000000e+00
  1.300083e-01    0.000000e+00
  1.303072e-01    0.000000e+00
  1.306062e-01    0.000000e+00
  1.309051e-01    0.000000e+00
  1.312040e-01    0.000000e+00
  1.315030e-01    0.000000e+00
  1.318019e-01    0.000000e+00
  1.321008e-01    0.000000e+00
  1.323998e-01    0.000000e+00
  1.326987e-01    0.000000e+00
  1.329976e-01    0.000000e+00
  1.332965e-01    0.000000e+00
  1.335955e-01    0.000000e+00
  1.338944e-01    0.000000e+00
  1.341933e-01    0.000000e+00
  1.344923e-01    0.000000e+00
  1.347912e-01    0.000000e+00
  1.350901e-01    0.000000e+00
  1.353891e-01    0.000000e+00
  1.356880e-01    0.000000e+00
  1.359869e-01    0.000000e+00
  1.362859e-01    0.000000e+00
  1.365848e-01    0.000000e+00
  1.368837e-01    0.000000e+00
  1.371826e-01    0.000000e+00
  1.374816e-01    0.000000e+00
  1.377805e-01    0.000000e+00
  1.380794e-01    0.000000e+00
  1.383784e-01    0.000000e+00
  1.386773e-01    0.000000e+00
  1.389762e-01    0.000000e+00
  1.392752e-01    0.000000e+00
  1.395741e-01    0.000000e+00
  1.398730e-01    0.000000e+00
  1.401719e-01    0.000000e+00
  1.404709e-01    0.000000e+00
  1.407698e-01    0.000000e+00
  1.410687e-01    0.000000e+00
  1.413677e-01    0.000000e+00
  1.416666e-01    0.000000e+00
  1.419655e-01    0.000000e+00
  1.422645e-01    0.000000e+00
  1.425634e-01    0.000000e+00
  1.428623e-01    0.000000e+00
  1.431613e-01    0.000000e+00
  1.434602e-01    0.000000e+00
  1.437591e-01    0.000000e+00
  1.440580e-01    0.000000e+00
  1.443570e-01    0.000000e+00
  1.446559e-01    0.000000e+00
  1.449548e-01    0.000000e+00
  1.452538e-01    0.000000e+00
  1.455527e-01    0.000000e+00
  1.458516e-01    0.000000e+00
  1.461506e-01    0.000000e+00
  1.464495e-01    0.000000e+00
  1.467484e-01    0.000000e+00
  1.470473e-01    0.000000e+00
  1.473463e-01    0.000000e+00
  1.476452e-01    0.000000e+00
  1.479441e-01    0.000000e+00
  1.482431e-01    0.000000e+00
  1.485420e-01    0.000000e+00
  1.488409e-01    0.000000e+00
  1.491399e-01    0.000000e+00
  1.494388e-01    0.000000e+00
  1.497377e-01    0.000000e+00
  1.500367e-01    0.000000e+00
  1.503356e-01    0.000000e+00
  1.506345e-01    0.000000e+00
  1.509334e-01    0.000000e+00
  1.512324e-01    0.000000e+00
  1.515313e-01    0.000000e+00
  1.518302e-01    0.000000e+00
  1.521292e-01    0.000000e+00
  1.524281e-01    0.000000e+00
  1.527270e-01    0.000000e+00
  1.530260e-01    0.000000e+00
  1.533249e-01    0.000000e+00
  1.536238e-01    0.000000e+00
