# == pyFAI calibration ==
# Distance Sample to Detector: 2.266 m
# PONI: 5.659e-02, 4.293e-02 m
# Rotations: 0.000000 0.000000 0.000000 rad
# 
# == Fit2d calibration ==
# Distance Sample-beamCenter: 2266.000 mm
# Center: x=249.594, y=329.012 pix
# Tilt: 0.000 deg  TiltPlanRot: 0.000 deg
# 
# Detector Pilatus 300k	 PixelSize= 1.720e-04, 1.720e-04 m
#    Detector has a mask: True 
#    Detector has a dark current: False 
#    detector has a flat field: False 
# 
# Wavelength: 1.27818e-10 m
# Mask applied: user provided
# Dark current applied: False
# Flat field applied: False
# Polarization factor: None
# Normalization factor: 17505720.6
# --> MT-AL_F127_220226_339f6aec-2ec1-4bde-9e1d-5c6efadc6f5d_2_r1d.csv
#        q_A^-1             I 
  4.457554e-03    1.853541e-03
  4.756484e-03    1.470764e-03
  5.055415e-03    1.061129e-03
  5.354345e-03    7.586123e-04
  5.653276e-03    5.942589e-04
  5.952206e-03    9.635414e-04
  6.251136e-03    8.796818e-04
  6.550067e-03    7.625854e-04
  6.848997e-03    6.474509e-04
  7.147927e-03    5.473240e-04
  7.446858e-03    4.686361e-04
  7.745788e-03    4.017654e-04
  8.044719e-03    3.461813e-04
  8.343649e-03    3.025265e-04
  8.642579e-03    2.650598e-04
  8.941510e-03    2.331524e-04
  9.240440e-03    2.068101e-04
  9.539371e-03    1.833821e-04
  9.838301e-03    1.630788e-04
  1.013723e-02    1.461625e-04
  1.043616e-02    1.316557e-04
  1.073509e-02    1.180464e-04
  1.103402e-02    1.068711e-04
  1.133295e-02    9.697692e-05
  1.163188e-02    8.846110e-05
  1.193081e-02    8.069837e-05
  1.222974e-02    7.386362e-05
  1.252867e-02    6.771591e-05
  1.282760e-02    6.224940e-05
  1.312654e-02    5.737489e-05
  1.342547e-02    5.298650e-05
  1.372440e-02    4.900973e-05
  1.402333e-02    4.565143e-05
  1.432226e-02    4.251105e-05
  1.462119e-02    3.954212e-05
  1.492012e-02    3.690907e-05
  1.521905e-02    3.452264e-05
  1.551798e-02    3.233439e-05
  1.581691e-02    3.024190e-05
  1.611584e-02    2.841946e-05
  1.641477e-02    2.690320e-05
  1.671370e-02    2.539900e-05
  1.701263e-02    2.403866e-05
  1.731156e-02    2.279144e-05
  1.761049e-02    2.158654e-05
  1.790942e-02    2.054460e-05
  1.820835e-02    1.958243e-05
  1.850728e-02    1.858394e-05
  1.880621e-02    1.775513e-05
  1.910514e-02    1.701454e-05
  1.940407e-02    1.633845e-05
  1.970300e-02    1.563583e-05
  2.000193e-02    1.500824e-05
  2.030086e-02    1.446349e-05
  2.059979e-02    1.389714e-05
  2.089873e-02    1.337334e-05
  2.119766e-02    1.286406e-05
  2.149659e-02    1.239998e-05
  2.179552e-02    1.204725e-05
  2.209445e-02    1.170967e-05
  2.239338e-02    1.132415e-05
  2.269231e-02    1.099225e-05
  2.299124e-02    1.071382e-05
  2.329017e-02    1.043236e-05
  2.358910e-02    1.013401e-05
  2.388803e-02    9.870079e-06
  2.418696e-02    9.628918e-06
  2.448589e-02    9.383045e-06
  2.478482e-02    9.219160e-06
  2.508375e-02    9.024790e-06
  2.538268e-02    8.829870e-06
  2.568161e-02    8.664704e-06
  2.598054e-02    8.476086e-06
  2.627947e-02    8.338160e-06
  2.657840e-02    8.174591e-06
  2.687733e-02    8.063892e-06
  2.717626e-02    7.923124e-06
  2.747519e-02    7.791527e-06
  2.777412e-02    7.695684e-06
  2.807305e-02    7.589473e-06
  2.837198e-02    7.465290e-06
  2.867092e-02    7.339348e-06
  2.896985e-02    7.258497e-06
  2.926878e-02    7.171384e-06
  2.956771e-02    7.100100e-06
  2.986664e-02    6.993015e-06
  3.016557e-02    6.883784e-06
  3.046450e-02    6.799311e-06
  3.076343e-02    6.741946e-06
  3.106236e-02    6.721087e-06
  3.136129e-02    6.652127e-06
  3.166022e-02    6.547787e-06
  3.195915e-02    6.475931e-06
  3.225808e-02    6.381664e-06
  3.255701e-02    6.299282e-06
  3.285594e-02    6.280798e-06
  3.315487e-02    6.218283e-06
  3.345380e-02    6.149459e-06
  3.375273e-02    6.041204e-06
  3.405166e-02    5.978732e-06
  3.435059e-02    5.947109e-06
  3.464952e-02    5.907484e-06
  3.494845e-02    5.897493e-06
  3.524738e-02    5.869699e-06
  3.554631e-02    5.784423e-06
  3.584524e-02    5.720918e-06
  3.614417e-02    5.708830e-06
  3.644310e-02    5.659248e-06
  3.674204e-02    5.606621e-06
  3.704097e-02    5.546219e-06
  3.733990e-02    5.486354e-06
  3.763883e-02    5.454563e-06
  3.793776e-02    5.413246e-06
  3.823669e-02    5.382418e-06
  3.853562e-02    5.355549e-06
  3.883455e-02    5.316182e-06
  3.913348e-02    5.256911e-06
  3.943241e-02    5.233900e-06
  3.973134e-02    5.188383e-06
  4.003027e-02    5.179130e-06
  4.032920e-02    5.158705e-06
  4.062813e-02    5.143670e-06
  4.092706e-02    5.144871e-06
  4.122599e-02    5.091489e-06
  4.152492e-02    5.082744e-06
  4.182385e-02    5.089248e-06
  4.212278e-02    5.069098e-06
  4.242171e-02    5.012206e-06
  4.272064e-02    5.035833e-06
  4.301957e-02    5.028491e-06
  4.331850e-02    4.975224e-06
  4.361743e-02    4.964473e-06
  4.391636e-02    4.954013e-06
  4.421529e-02    4.915568e-06
  4.451423e-02    4.907019e-06
  4.481316e-02    4.917820e-06
  4.511209e-02    4.934102e-06
  4.541102e-02    4.902258e-06
  4.570995e-02    4.871614e-06
  4.600888e-02    4.869424e-06
  4.630781e-02    4.856743e-06
  4.660674e-02    4.878291e-06
  4.690567e-02    4.904514e-06
  4.720460e-02    4.887790e-06
  4.750353e-02    4.871467e-06
  4.780246e-02    4.854690e-06
  4.810139e-02    4.845992e-06
  4.840032e-02    4.820107e-06
  4.869925e-02    4.811799e-06
  4.899818e-02    4.833341e-06
  4.929711e-02    4.839643e-06
  4.959604e-02    4.836258e-06
  4.989497e-02    4.842185e-06
  5.019390e-02    4.845311e-06
  5.049283e-02    4.868271e-06
  5.079176e-02    4.852875e-06
  5.109069e-02    4.852943e-06
  5.138962e-02    4.882343e-06
  5.168855e-02    4.949366e-06
  5.198748e-02    5.035190e-06
  5.228642e-02    5.008055e-06
  5.258535e-02    4.899844e-06
  5.288428e-02    4.835010e-06
  5.318321e-02    4.820715e-06
  5.348214e-02    4.819186e-06
  5.378107e-02    4.811751e-06
  5.408000e-02    4.814792e-06
  5.437893e-02    4.839532e-06
  5.467786e-02    4.837683e-06
  5.497679e-02    4.822090e-06
  5.527572e-02    4.809363e-06
  5.557465e-02    4.837152e-06
  5.587358e-02    4.845806e-06
  5.617251e-02    4.857366e-06
  5.647144e-02    4.854282e-06
  5.677037e-02    4.847149e-06
  5.706930e-02    4.842437e-06
  5.736823e-02    4.855542e-06
  5.766716e-02    4.877597e-06
  5.796609e-02    4.882080e-06
  5.826502e-02    4.901300e-06
  5.856395e-02    4.898226e-06
  5.886288e-02    4.886346e-06
  5.916181e-02    4.910447e-06
  5.946074e-02    4.919200e-06
  5.975967e-02    4.911167e-06
  6.005861e-02    4.903667e-06
  6.035754e-02    4.945074e-06
  6.065647e-02    4.972425e-06
  6.095540e-02    5.010096e-06
  6.125433e-02    5.050286e-06
  6.155326e-02    5.068923e-06
  6.185219e-02    5.018580e-06
  6.215112e-02    4.977315e-06
  6.245005e-02    4.991753e-06
  6.274898e-02    4.997898e-06
  6.304791e-02    4.995526e-06
  6.334684e-02    4.996372e-06
  6.364577e-02    4.999180e-06
  6.394470e-02    5.008191e-06
  6.424363e-02    5.024594e-06
  6.454256e-02    5.045704e-06
  6.484149e-02    5.039995e-06
  6.514042e-02    5.050068e-06
  6.543935e-02    5.080831e-06
  6.573828e-02    5.078685e-06
  6.603721e-02    5.061567e-06
  6.633614e-02    5.063761e-06
  6.663507e-02    5.072838e-06
  6.693400e-02    5.102345e-06
  6.723293e-02    5.107507e-06
  6.753186e-02    5.105411e-06
  6.783080e-02    5.119057e-06
  6.812973e-02    5.126010e-06
  6.842866e-02    5.123371e-06
  6.872759e-02    5.137939e-06
  6.902652e-02    5.142389e-06
  6.932545e-02    5.151426e-06
  6.962438e-02    5.161466e-06
  6.992331e-02    5.173628e-06
  7.022224e-02    5.190145e-06
  7.052117e-02    5.207074e-06
  7.082010e-02    5.195805e-06
  7.111903e-02    5.208579e-06
  7.141796e-02    5.195587e-06
  7.171689e-02    5.201610e-06
  7.201582e-02    5.217622e-06
  7.231475e-02    5.237904e-06
  7.261368e-02    5.243733e-06
  7.291261e-02    5.253198e-06
  7.321154e-02    5.262666e-06
  7.351047e-02    5.248837e-06
  7.380940e-02    5.238690e-06
  7.410833e-02    5.240213e-06
  7.440726e-02    5.242066e-06
  7.470619e-02    5.240730e-06
  7.500512e-02    5.263450e-06
  7.530405e-02    5.265736e-06
  7.560299e-02    5.251137e-06
  7.590192e-02    5.257396e-06
  7.620085e-02    5.259153e-06
  7.649978e-02    5.259728e-06
  7.679871e-02    5.253653e-06
  7.709764e-02    5.247634e-06
  7.739657e-02    5.258957e-06
  7.769550e-02    5.259441e-06
  7.799443e-02    5.258665e-06
  7.829336e-02    5.262978e-06
  7.859229e-02    5.267976e-06
  7.889122e-02    5.253626e-06
  7.919015e-02    5.261647e-06
  7.948908e-02    5.256526e-06
  7.978801e-02    5.246767e-06
  8.008694e-02    5.242208e-06
  8.038587e-02    5.233775e-06
  8.068480e-02    5.227086e-06
  8.098373e-02    5.218473e-06
  8.128266e-02    5.230270e-06
  8.158159e-02    5.213293e-06
  8.188052e-02    5.210882e-06
  8.217945e-02    5.207067e-06
  8.247838e-02    5.202467e-06
  8.277731e-02    5.215649e-06
  8.307624e-02    5.234414e-06
  8.337518e-02    5.216339e-06
  8.367411e-02    5.184407e-06
  8.397304e-02    5.184992e-06
  8.427197e-02    5.173121e-06
  8.457090e-02    5.170596e-06
  8.486983e-02    5.177227e-06
  8.516876e-02    5.169960e-06
  8.546769e-02    5.133857e-06
  8.576662e-02    5.122633e-06
  8.606555e-02    5.136467e-06
  8.636448e-02    5.122796e-06
  8.666341e-02    5.115862e-06
  8.696234e-02    5.112233e-06
  8.726127e-02    5.101388e-06
  8.756020e-02    5.098649e-06
  8.785913e-02    5.089761e-06
  8.815806e-02    5.086295e-06
  8.845699e-02    5.078953e-06
  8.875592e-02    5.076973e-06
  8.905485e-02    5.065905e-06
  8.935378e-02    5.043093e-06
  8.965271e-02    5.047958e-06
  8.995164e-02    5.033943e-06
  9.025057e-02    5.035010e-06
  9.054950e-02    5.030493e-06
  9.084843e-02    5.010011e-06
  9.114737e-02    4.998739e-06
  9.144630e-02    4.982746e-06
  9.174523e-02    4.955984e-06
  9.204416e-02    4.939545e-06
  9.234309e-02    4.930184e-06
  9.264202e-02    4.933524e-06
  9.294095e-02    4.931236e-06
  9.323988e-02    4.936803e-06
  9.353881e-02    4.915678e-06
  9.383774e-02    4.899297e-06
  9.413667e-02    4.897274e-06
  9.443560e-02    4.894643e-06
  9.473453e-02    4.880698e-06
  9.503346e-02    4.864691e-06
  9.533239e-02    4.867280e-06
  9.563132e-02    4.866700e-06
  9.593025e-02    4.866729e-06
  9.622918e-02    4.859734e-06
  9.652811e-02    4.859448e-06
  9.682704e-02    4.867481e-06
  9.712597e-02    4.877989e-06
  9.742490e-02    4.859975e-06
  9.772383e-02    4.845640e-06
  9.802276e-02    4.810225e-06
  9.832169e-02    4.784130e-06
  9.862062e-02    4.767946e-06
  9.891956e-02    4.781321e-06
  9.921849e-02    4.757032e-06
  9.951742e-02    4.727083e-06
  9.981635e-02    4.710872e-06
  1.001153e-01    4.705683e-06
  1.004142e-01    4.685081e-06
  1.007131e-01    4.698670e-06
  1.010121e-01    4.699330e-06
  1.013110e-01    4.706984e-06
  1.016099e-01    4.677757e-06
  1.019089e-01    4.647735e-06
  1.022078e-01    4.629038e-06
  1.025067e-01    4.645155e-06
  1.028057e-01    4.670941e-06
  1.031046e-01    4.636828e-06
  1.034035e-01    4.602611e-06
  1.037024e-01    4.602527e-06
  1.040014e-01    4.599028e-06
  1.043003e-01    4.586279e-06
  1.045992e-01    4.600297e-06
  1.048982e-01    4.599326e-06
  1.051971e-01    4.558500e-06
  1.054960e-01    4.532549e-06
  1.057950e-01    4.539502e-06
  1.060939e-01    4.536512e-06
  1.063928e-01    4.515040e-06
  1.066917e-01    4.509151e-06
  1.069907e-01    4.521113e-06
  1.072896e-01    4.489035e-06
  1.075885e-01    4.492354e-06
  1.078875e-01    4.491407e-06
  1.081864e-01    4.465590e-06
  1.084853e-01    4.469850e-06
  1.087843e-01    4.472852e-06
  1.090832e-01    4.455434e-06
  1.093821e-01    4.447496e-06
  1.096810e-01    4.438710e-06
  1.099800e-01    4.413771e-06
  1.102789e-01    4.375600e-06
  1.105778e-01    4.371197e-06
  1.108768e-01    4.361173e-06
  1.111757e-01    4.342499e-06
  1.114746e-01    4.351232e-06
  1.117736e-01    4.330652e-06
  1.120725e-01    4.329846e-06
  1.123714e-01    4.333939e-06
  1.126704e-01    4.317318e-06
  1.129693e-01    4.294398e-06
  1.132682e-01    4.289947e-06
  1.135671e-01    4.276981e-06
  1.138661e-01    4.261706e-06
  1.141650e-01    4.247674e-06
  1.144639e-01    4.224788e-06
  1.147629e-01    4.240594e-06
  1.150618e-01    4.245415e-06
  1.153607e-01    4.231135e-06
  1.156597e-01    4.198023e-06
  1.159586e-01    4.181128e-06
  1.162575e-01    4.199935e-06
  1.165564e-01    4.192092e-06
  1.168554e-01    4.188777e-06
  1.171543e-01    4.190018e-06
  1.174532e-01    4.204315e-06
  1.177522e-01    4.223063e-06
  1.180511e-01    4.204836e-06
  1.183500e-01    4.186424e-06
  1.186490e-01    4.187321e-06
  1.189479e-01    4.178788e-06
  1.192468e-01    4.144773e-06
  1.195458e-01    4.138956e-06
  1.198447e-01    4.173958e-06
  1.201436e-01    4.133102e-06
  1.204425e-01    3.896437e-06
  1.207415e-01    3.738116e-06
  1.210404e-01    3.544908e-06
  1.213393e-01    0.000000e+00
  1.216383e-01    0.000000e+00
  1.219372e-01    0.000000e+00
  1.222361e-01    0.000000e+00
  1.225351e-01    0.000000e+00
  1.228340e-01    0.000000e+00
  1.231329e-01    0.000000e+00
  1.234318e-01    0.000000e+00
  1.237308e-01    0.000000e+00
  1.240297e-01    0.000000e+00
  1.243286e-01    0.000000e+00
  1.246276e-01    0.000000e+00
  1.249265e-01    0.000000e+00
  1.252254e-01    0.000000e+00
  1.255244e-01    0.000000e+00
  1.258233e-01    0.000000e+00
  1.261222e-01    0.000000e+00
  1.264212e-01    0.000000e+00
  1.267201e-01    0.000000e+00
  1.270190e-01    0.000000e+00
  1.273179e-01    0.000000e+00
  1.276169e-01    0.000000e+00
  1.279158e-01    0.000000e+00
  1.282147e-01    0.000000e+00
  1.285137e-01    0.000000e+00
  1.288126e-01    0.000000e+00
  1.291115e-01    0.000000e+00
  1.294105e-01    0.000000e+00
  1.297094e-01    0.000000e+00
  1.300083e-01    0.000000e+00
  1.303072e-01    0.000000e+00
  1.306062e-01    0.000000e+00
  1.309051e-01    0.000000e+00
  1.312040e-01    0.000000e+00
  1.315030e-01    0.000000e+00
  1.318019e-01    0.000000e+00
  1.321008e-01    0.000000e+00
  1.323998e-01    0.000000e+00
  1.326987e-01    0.000000e+00
  1.329976e-01    0.000000e+00
  1.332965e-01    0.000000e+00
  1.335955e-01    0.000000e+00
  1.338944e-01    0.000000e+00
  1.341933e-01    0.000000e+00
  1.344923e-01    0.000000e+00
  1.347912e-01    0.000000e+00
  1.350901e-01    0.000000e+00
  1.353891e-01    0.000000e+00
  1.356880e-01    0.000000e+00
  1.359869e-01    0.000000e+00
  1.362859e-01    0.000000e+00
  1.365848e-01    0.000000e+00
  1.368837e-01    0.000000e+00
  1.371826e-01    0.000000e+00
  1.374816e-01    0.000000e+00
  1.377805e-01    0.000000e+00
  1.380794e-01    0.000000e+00
  1.383784e-01    0.000000e+00
  1.386773e-01    0.000000e+00
  1.389762e-01    0.000000e+00
  1.392752e-01    0.000000e+00
  1.395741e-01    0.000000e+00
  1.398730e-01    0.000000e+00
  1.401719e-01    0.000000e+00
  1.404709e-01    0.000000e+00
  1.407698e-01    0.000000e+00
  1.410687e-01    0.000000e+00
  1.413677e-01    0.000000e+00
  1.416666e-01    0.000000e+00
  1.419655e-01    0.000000e+00
  1.422645e-01    0.000000e+00
  1.425634e-01    0.000000e+00
  1.428623e-01    0.000000e+00
  1.431613e-01    0.000000e+00
  1.434602e-01    0.000000e+00
  1.437591e-01    0.000000e+00
  1.440580e-01    0.000000e+00
  1.443570e-01    0.000000e+00
  1.446559e-01    0.000000e+00
  1.449548e-01    0.000000e+00
  1.452538e-01    0.000000e+00
  1.455527e-01    0.000000e+00
  1.458516e-01    0.000000e+00
  1.461506e-01    0.000000e+00
  1.464495e-01    0.000000e+00
  1.467484e-01    0.000000e+00
  1.470473e-01    0.000000e+00
  1.473463e-01    0.000000e+00
  1.476452e-01    0.000000e+00
  1.479441e-01    0.000000e+00
  1.482431e-01    0.000000e+00
  1.485420e-01    0.000000e+00
  1.488409e-01    0.000000e+00
  1.491399e-01    0.000000e+00
  1.494388e-01    0.000000e+00
  1.497377e-01    0.000000e+00
  1.500367e-01    0.000000e+00
  1.503356e-01    0.000000e+00
  1.506345e-01    0.000000e+00
  1.509334e-01    0.000000e+00
  1.512324e-01    0.000000e+00
  1.515313e-01    0.000000e+00
  1.518302e-01    0.000000e+00
  1.521292e-01    0.000000e+00
  1.524281e-01    0.000000e+00
  1.527270e-01    0.000000e+00
  1.530260e-01    0.000000e+00
  1.533249e-01    0.000000e+00
  1.536238e-01    0.000000e+00
