# == pyFAI calibration ==
# Distance Sample to Detector: 2.266 m
# PONI: 5.659e-02, 4.293e-02 m
# Rotations: 0.000000 0.000000 0.000000 rad
# 
# == Fit2d calibration ==
# Distance Sample-beamCenter: 2266.000 mm
# Center: x=249.594, y=329.012 pix
# Tilt: 0.000 deg  TiltPlanRot: 0.000 deg
# 
# Detector Pilatus 300k	 PixelSize= 1.720e-04, 1.720e-04 m
#    Detector has a mask: True 
#    Detector has a dark current: False 
#    detector has a flat field: False 
# 
# Wavelength: 1.27818e-10 m
# Mask applied: user provided
# Dark current applied: False
# Flat field applied: False
# Polarization factor: None
# Normalization factor: 9996186.0
# --> MT-AL_F127_220225_7a290ccd-b70b-46e5-816c-8e60d65f798e_0_r1d.csv
#        q_A^-1             I 
  4.457554e-03    1.165887e-03
  4.756484e-03    9.052788e-04
  5.055415e-03    6.286119e-04
  5.354345e-03    4.345057e-04
  5.653276e-03    3.318219e-04
  5.952206e-03    5.388504e-04
  6.251136e-03    4.943790e-04
  6.550067e-03    4.319182e-04
  6.848997e-03    3.678380e-04
  7.147927e-03    3.093718e-04
  7.446858e-03    2.638529e-04
  7.745788e-03    2.268451e-04
  8.044719e-03    1.952361e-04
  8.343649e-03    1.703321e-04
  8.642579e-03    1.487254e-04
  8.941510e-03    1.313583e-04
  9.240440e-03    1.159591e-04
  9.539371e-03    1.026806e-04
  9.838301e-03    9.165741e-05
  1.013723e-02    8.221126e-05
  1.043616e-02    7.356745e-05
  1.073509e-02    6.595913e-05
  1.103402e-02    5.985689e-05
  1.133295e-02    5.440431e-05
  1.163188e-02    4.959373e-05
  1.193081e-02    4.527360e-05
  1.222974e-02    4.150343e-05
  1.252867e-02    3.809860e-05
  1.282760e-02    3.512462e-05
  1.312654e-02    3.242370e-05
  1.342547e-02    2.998664e-05
  1.372440e-02    2.781278e-05
  1.402333e-02    2.579174e-05
  1.432226e-02    2.382308e-05
  1.462119e-02    2.223225e-05
  1.492012e-02    2.080867e-05
  1.521905e-02    1.963617e-05
  1.551798e-02    1.853397e-05
  1.581691e-02    1.725974e-05
  1.611584e-02    1.624464e-05
  1.641477e-02    1.538585e-05
  1.671370e-02    1.454799e-05
  1.701263e-02    1.373259e-05
  1.731156e-02    1.309775e-05
  1.761049e-02    1.241020e-05
  1.790942e-02    1.176468e-05
  1.820835e-02    1.122064e-05
  1.850728e-02    1.077209e-05
  1.880621e-02    1.038603e-05
  1.910514e-02    9.912351e-06
  1.940407e-02    9.426249e-06
  1.970300e-02    9.037550e-06
  2.000193e-02    8.686615e-06
  2.030086e-02    8.364884e-06
  2.059979e-02    8.102077e-06
  2.089873e-02    7.884802e-06
  2.119766e-02    7.670349e-06
  2.149659e-02    7.475999e-06
  2.179552e-02    7.160168e-06
  2.209445e-02    6.908388e-06
  2.239338e-02    6.831538e-06
  2.269231e-02    6.643314e-06
  2.299124e-02    6.476937e-06
  2.329017e-02    6.258133e-06
  2.358910e-02    6.078807e-06
  2.388803e-02    5.904190e-06
  2.418696e-02    5.778544e-06
  2.448589e-02    5.676197e-06
  2.478482e-02    5.553292e-06
  2.508375e-02    5.466998e-06
  2.538268e-02    5.395934e-06
  2.568161e-02    5.267575e-06
  2.598054e-02    5.187924e-06
  2.627947e-02    5.115968e-06
  2.657840e-02    5.024819e-06
  2.687733e-02    4.898835e-06
  2.717626e-02    4.856811e-06
  2.747519e-02    4.777191e-06
  2.777412e-02    4.726365e-06
  2.807305e-02    4.652379e-06
  2.837198e-02    4.574864e-06
  2.867092e-02    4.537373e-06
  2.896985e-02    4.500038e-06
  2.926878e-02    4.455403e-06
  2.956771e-02    4.375804e-06
  2.986664e-02    4.311199e-06
  3.016557e-02    4.233528e-06
  3.046450e-02    4.189793e-06
  3.076343e-02    4.176907e-06
  3.106236e-02    4.109667e-06
  3.136129e-02    4.062007e-06
  3.166022e-02    4.076584e-06
  3.195915e-02    4.062635e-06
  3.225808e-02    4.035989e-06
  3.255701e-02    4.009836e-06
  3.285594e-02    3.948608e-06
  3.315487e-02    3.908539e-06
  3.345380e-02    3.858032e-06
  3.375273e-02    3.810574e-06
  3.405166e-02    3.754397e-06
  3.435059e-02    3.716302e-06
  3.464952e-02    3.728024e-06
  3.494845e-02    3.696791e-06
  3.524738e-02    3.627936e-06
  3.554631e-02    3.607856e-06
  3.584524e-02    3.577887e-06
  3.614417e-02    3.533101e-06
  3.644310e-02    3.499148e-06
  3.674204e-02    3.473071e-06
  3.704097e-02    3.449319e-06
  3.733990e-02    3.433652e-06
  3.763883e-02    3.418820e-06
  3.793776e-02    3.366086e-06
  3.823669e-02    3.331321e-06
  3.853562e-02    3.341542e-06
  3.883455e-02    3.313185e-06
  3.913348e-02    3.286203e-06
  3.943241e-02    3.260074e-06
  3.973134e-02    3.228263e-06
  4.003027e-02    3.233491e-06
  4.032920e-02    3.233488e-06
  4.062813e-02    3.192606e-06
  4.092706e-02    3.146170e-06
  4.122599e-02    3.133380e-06
  4.152492e-02    3.142094e-06
  4.182385e-02    3.117729e-06
  4.212278e-02    3.090471e-06
  4.242171e-02    3.060428e-06
  4.272064e-02    3.035403e-06
  4.301957e-02    3.033497e-06
  4.331850e-02    3.016746e-06
  4.361743e-02    3.029814e-06
  4.391636e-02    3.022480e-06
  4.421529e-02    2.996171e-06
  4.451423e-02    2.991962e-06
  4.481316e-02    2.985817e-06
  4.511209e-02    3.004965e-06
  4.541102e-02    2.989634e-06
  4.570995e-02    2.973838e-06
  4.600888e-02    2.972605e-06
  4.630781e-02    2.974828e-06
  4.660674e-02    2.965560e-06
  4.690567e-02    2.954590e-06
  4.720460e-02    2.979858e-06
  4.750353e-02    2.963132e-06
  4.780246e-02    2.937348e-06
  4.810139e-02    2.942510e-06
  4.840032e-02    2.937920e-06
  4.869925e-02    2.933511e-06
  4.899818e-02    2.921489e-06
  4.929711e-02    2.949282e-06
  4.959604e-02    2.951825e-06
  4.989497e-02    2.948409e-06
  5.019390e-02    2.918666e-06
  5.049283e-02    2.936493e-06
  5.079176e-02    2.952542e-06
  5.109069e-02    2.971227e-06
  5.138962e-02    2.992856e-06
  5.168855e-02    3.063715e-06
  5.198748e-02    3.124541e-06
  5.228642e-02    3.087147e-06
  5.258535e-02    2.967546e-06
  5.288428e-02    2.936905e-06
  5.318321e-02    2.923124e-06
  5.348214e-02    2.906636e-06
  5.378107e-02    2.898339e-06
  5.408000e-02    2.904555e-06
  5.437893e-02    2.916972e-06
  5.467786e-02    2.916205e-06
  5.497679e-02    2.909491e-06
  5.527572e-02    2.916172e-06
  5.557465e-02    2.906428e-06
  5.587358e-02    2.888760e-06
  5.617251e-02    2.890115e-06
  5.647144e-02    2.912467e-06
  5.677037e-02    2.962190e-06
  5.706930e-02    2.938153e-06
  5.736823e-02    2.917947e-06
  5.766716e-02    2.920147e-06
  5.796609e-02    2.921686e-06
  5.826502e-02    2.937350e-06
  5.856395e-02    2.910592e-06
  5.886288e-02    2.921885e-06
  5.916181e-02    2.939100e-06
  5.946074e-02    2.937215e-06
  5.975967e-02    2.945260e-06
  6.005861e-02    2.942153e-06
  6.035754e-02    2.960828e-06
  6.065647e-02    2.968412e-06
  6.095540e-02    2.986561e-06
  6.125433e-02    3.040604e-06
  6.155326e-02    3.065043e-06
  6.185219e-02    3.005149e-06
  6.215112e-02    2.987733e-06
  6.245005e-02    2.994510e-06
  6.274898e-02    2.975036e-06
  6.304791e-02    2.967481e-06
  6.334684e-02    2.959548e-06
  6.364577e-02    2.964593e-06
  6.394470e-02    2.955754e-06
  6.424363e-02    2.960948e-06
  6.454256e-02    2.943908e-06
  6.484149e-02    2.970847e-06
  6.514042e-02    2.975606e-06
  6.543935e-02    2.970320e-06
  6.573828e-02    2.985811e-06
  6.603721e-02    2.982649e-06
  6.633614e-02    2.993448e-06
  6.663507e-02    3.026988e-06
  6.693400e-02    3.024182e-06
  6.723293e-02    2.988909e-06
  6.753186e-02    2.986358e-06
  6.783080e-02    2.996543e-06
  6.812973e-02    3.009895e-06
  6.842866e-02    3.030710e-06
  6.872759e-02    3.035021e-06
  6.902652e-02    3.018756e-06
  6.932545e-02    3.024587e-06
  6.962438e-02    3.037363e-06
  6.992331e-02    3.039847e-06
  7.022224e-02    3.034530e-06
  7.052117e-02    3.021698e-06
  7.082010e-02    3.037819e-06
  7.111903e-02    3.043591e-06
  7.141796e-02    3.037565e-06
  7.171689e-02    3.037498e-06
  7.201582e-02    3.052353e-06
  7.231475e-02    3.059281e-06
  7.261368e-02    3.053395e-06
  7.291261e-02    3.055968e-06
  7.321154e-02    3.069095e-06
  7.351047e-02    3.084815e-06
  7.380940e-02    3.069882e-06
  7.410833e-02    3.055632e-06
  7.440726e-02    3.063124e-06
  7.470619e-02    3.060938e-06
  7.500512e-02    3.049213e-06
  7.530405e-02    3.079137e-06
  7.560299e-02    3.087452e-06
  7.590192e-02    3.060854e-06
  7.620085e-02    3.064648e-06
  7.649978e-02    3.067521e-06
  7.679871e-02    3.044365e-06
  7.709764e-02    3.042957e-06
  7.739657e-02    3.039549e-06
  7.769550e-02    3.042357e-06
  7.799443e-02    3.053364e-06
  7.829336e-02    3.058697e-06
  7.859229e-02    3.040846e-06
  7.889122e-02    3.018944e-06
  7.919015e-02    3.039112e-06
  7.948908e-02    3.039117e-06
  7.978801e-02    3.041712e-06
  8.008694e-02    3.027502e-06
  8.038587e-02    3.027758e-06
  8.068480e-02    3.017283e-06
  8.098373e-02    3.012483e-06
  8.128266e-02    3.036488e-06
  8.158159e-02    3.011230e-06
  8.188052e-02    3.009136e-06
  8.217945e-02    3.018386e-06
  8.247838e-02    3.011766e-06
  8.277731e-02    3.003864e-06
  8.307624e-02    2.982361e-06
  8.337518e-02    3.001402e-06
  8.367411e-02    3.010463e-06
  8.397304e-02    2.989207e-06
  8.427197e-02    2.965465e-06
  8.457090e-02    2.973112e-06
  8.486983e-02    2.960530e-06
  8.516876e-02    2.967464e-06
  8.546769e-02    2.976083e-06
  8.576662e-02    2.967902e-06
  8.606555e-02    2.947407e-06
  8.636448e-02    2.954259e-06
  8.666341e-02    2.952672e-06
  8.696234e-02    2.933331e-06
  8.726127e-02    2.921375e-06
  8.756020e-02    2.910340e-06
  8.785913e-02    2.904525e-06
  8.815806e-02    2.887832e-06
  8.845699e-02    2.900850e-06
  8.875592e-02    2.918257e-06
  8.905485e-02    2.903145e-06
  8.935378e-02    2.880901e-06
  8.965271e-02    2.887334e-06
  8.995164e-02    2.892270e-06
  9.025057e-02    2.875000e-06
  9.054950e-02    2.888483e-06
  9.084843e-02    2.874382e-06
  9.114737e-02    2.847393e-06
  9.144630e-02    2.841915e-06
  9.174523e-02    2.845298e-06
  9.204416e-02    2.839749e-06
  9.234309e-02    2.829669e-06
  9.264202e-02    2.821571e-06
  9.294095e-02    2.811791e-06
  9.323988e-02    2.820916e-06
  9.353881e-02    2.802675e-06
  9.383774e-02    2.807190e-06
  9.413667e-02    2.827744e-06
  9.443560e-02    2.828494e-06
  9.473453e-02    2.811031e-06
  9.503346e-02    2.784172e-06
  9.533239e-02    2.779246e-06
  9.563132e-02    2.774891e-06
  9.593025e-02    2.785027e-06
  9.622918e-02    2.806287e-06
  9.652811e-02    2.807547e-06
  9.682704e-02    2.796590e-06
  9.712597e-02    2.782075e-06
  9.742490e-02    2.758060e-06
  9.772383e-02    2.775557e-06
  9.802276e-02    2.781313e-06
  9.832169e-02    2.753378e-06
  9.862062e-02    2.751894e-06
  9.891956e-02    2.752442e-06
  9.921849e-02    2.752392e-06
  9.951742e-02    2.717253e-06
  9.981635e-02    2.701860e-06
  1.001153e-01    2.725407e-06
  1.004142e-01    2.724623e-06
  1.007131e-01    2.707564e-06
  1.010121e-01    2.694260e-06
  1.013110e-01    2.683932e-06
  1.016099e-01    2.695978e-06
  1.019089e-01    2.680926e-06
  1.022078e-01    2.657541e-06
  1.025067e-01    2.663632e-06
  1.028057e-01    2.654291e-06
  1.031046e-01    2.638334e-06
  1.034035e-01    2.640628e-06
  1.037024e-01    2.642149e-06
  1.040014e-01    2.649020e-06
  1.043003e-01    2.661260e-06
  1.045992e-01    2.658104e-06
  1.048982e-01    2.629117e-06
  1.051971e-01    2.635911e-06
  1.054960e-01    2.623756e-06
  1.057950e-01    2.628394e-06
  1.060939e-01    2.627379e-06
  1.063928e-01    2.606187e-06
  1.066917e-01    2.606174e-06
  1.069907e-01    2.611667e-06
  1.072896e-01    2.600936e-06
  1.075885e-01    2.592478e-06
  1.078875e-01    2.589022e-06
  1.081864e-01    2.596124e-06
  1.084853e-01    2.600582e-06
  1.087843e-01    2.601229e-06
  1.090832e-01    2.606025e-06
  1.093821e-01    2.591976e-06
  1.096810e-01    2.564830e-06
  1.099800e-01    2.555220e-06
  1.102789e-01    2.549003e-06
  1.105778e-01    2.543629e-06
  1.108768e-01    2.542373e-06
  1.111757e-01    2.515944e-06
  1.114746e-01    2.508743e-06
  1.117736e-01    2.520633e-06
  1.120725e-01    2.516147e-06
  1.123714e-01    2.511247e-06
  1.126704e-01    2.492751e-06
  1.129693e-01    2.462574e-06
  1.132682e-01    2.437572e-06
  1.135671e-01    2.446329e-06
  1.138661e-01    2.443181e-06
  1.141650e-01    2.434569e-06
  1.144639e-01    2.457962e-06
  1.147629e-01    2.439849e-06
  1.150618e-01    2.441002e-06
  1.153607e-01    2.454506e-06
  1.156597e-01    2.429304e-06
  1.159586e-01    2.414987e-06
  1.162575e-01    2.411104e-06
  1.165564e-01    2.415556e-06
  1.168554e-01    2.383925e-06
  1.171543e-01    2.360237e-06
  1.174532e-01    2.405454e-06
  1.177522e-01    2.427677e-06
  1.180511e-01    2.382503e-06
  1.183500e-01    2.356232e-06
  1.186490e-01    2.396250e-06
  1.189479e-01    2.425021e-06
  1.192468e-01    2.430619e-06
  1.195458e-01    2.424227e-06
  1.198447e-01    2.338610e-06
  1.201436e-01    2.311578e-06
  1.204425e-01    2.375342e-06
  1.207415e-01    2.240333e-06
  1.210404e-01    2.102704e-06
  1.213393e-01    0.000000e+00
  1.216383e-01    0.000000e+00
  1.219372e-01    0.000000e+00
  1.222361e-01    0.000000e+00
  1.225351e-01    0.000000e+00
  1.228340e-01    0.000000e+00
  1.231329e-01    0.000000e+00
  1.234318e-01    0.000000e+00
  1.237308e-01    0.000000e+00
  1.240297e-01    0.000000e+00
  1.243286e-01    0.000000e+00
  1.246276e-01    0.000000e+00
  1.249265e-01    0.000000e+00
  1.252254e-01    0.000000e+00
  1.255244e-01    0.000000e+00
  1.258233e-01    0.000000e+00
  1.261222e-01    0.000000e+00
  1.264212e-01    0.000000e+00
  1.267201e-01    0.000000e+00
  1.270190e-01    0.000000e+00
  1.273179e-01    0.000000e+00
  1.276169e-01    0.000000e+00
  1.279158e-01    0.000000e+00
  1.282147e-01    0.000000e+00
  1.285137e-01    0.000000e+00
  1.288126e-01    0.000000e+00
  1.291115e-01    0.000000e+00
  1.294105e-01    0.000000e+00
  1.297094e-01    0.000000e+00
  1.300083e-01    0.000000e+00
  1.303072e-01    0.000000e+00
  1.306062e-01    0.000000e+00
  1.309051e-01    0.000000e+00
  1.312040e-01    0.000000e+00
  1.315030e-01    0.000000e+00
  1.318019e-01    0.000000e+00
  1.321008e-01    0.000000e+00
  1.323998e-01    0.000000e+00
  1.326987e-01    0.000000e+00
  1.329976e-01    0.000000e+00
  1.332965e-01    0.000000e+00
  1.335955e-01    0.000000e+00
  1.338944e-01    0.000000e+00
  1.341933e-01    0.000000e+00
  1.344923e-01    0.000000e+00
  1.347912e-01    0.000000e+00
  1.350901e-01    0.000000e+00
  1.353891e-01    0.000000e+00
  1.356880e-01    0.000000e+00
  1.359869e-01    0.000000e+00
  1.362859e-01    0.000000e+00
  1.365848e-01    0.000000e+00
  1.368837e-01    0.000000e+00
  1.371826e-01    0.000000e+00
  1.374816e-01    0.000000e+00
  1.377805e-01    0.000000e+00
  1.380794e-01    0.000000e+00
  1.383784e-01    0.000000e+00
  1.386773e-01    0.000000e+00
  1.389762e-01    0.000000e+00
  1.392752e-01    0.000000e+00
  1.395741e-01    0.000000e+00
  1.398730e-01    0.000000e+00
  1.401719e-01    0.000000e+00
  1.404709e-01    0.000000e+00
  1.407698e-01    0.000000e+00
  1.410687e-01    0.000000e+00
  1.413677e-01    0.000000e+00
  1.416666e-01    0.000000e+00
  1.419655e-01    0.000000e+00
  1.422645e-01    0.000000e+00
  1.425634e-01    0.000000e+00
  1.428623e-01    0.000000e+00
  1.431613e-01    0.000000e+00
  1.434602e-01    0.000000e+00
  1.437591e-01    0.000000e+00
  1.440580e-01    0.000000e+00
  1.443570e-01    0.000000e+00
  1.446559e-01    0.000000e+00
  1.449548e-01    0.000000e+00
  1.452538e-01    0.000000e+00
  1.455527e-01    0.000000e+00
  1.458516e-01    0.000000e+00
  1.461506e-01    0.000000e+00
  1.464495e-01    0.000000e+00
  1.467484e-01    0.000000e+00
  1.470473e-01    0.000000e+00
  1.473463e-01    0.000000e+00
  1.476452e-01    0.000000e+00
  1.479441e-01    0.000000e+00
  1.482431e-01    0.000000e+00
  1.485420e-01    0.000000e+00
  1.488409e-01    0.000000e+00
  1.491399e-01    0.000000e+00
  1.494388e-01    0.000000e+00
  1.497377e-01    0.000000e+00
  1.500367e-01    0.000000e+00
  1.503356e-01    0.000000e+00
  1.506345e-01    0.000000e+00
  1.509334e-01    0.000000e+00
  1.512324e-01    0.000000e+00
  1.515313e-01    0.000000e+00
  1.518302e-01    0.000000e+00
  1.521292e-01    0.000000e+00
  1.524281e-01    0.000000e+00
  1.527270e-01    0.000000e+00
  1.530260e-01    0.000000e+00
  1.533249e-01    0.000000e+00
  1.536238e-01    0.000000e+00
