# == pyFAI calibration ==
# Distance Sample to Detector: 2.266 m
# PONI: 5.659e-02, 4.293e-02 m
# Rotations: 0.000000 0.000000 0.000000 rad
# 
# == Fit2d calibration ==
# Distance Sample-beamCenter: 2266.000 mm
# Center: x=249.594, y=329.012 pix
# Tilt: 0.000 deg  TiltPlanRot: 0.000 deg
# 
# Detector Pilatus 300k	 PixelSize= 1.720e-04, 1.720e-04 m
#    Detector has a mask: True 
#    Detector has a dark current: False 
#    detector has a flat field: False 
# 
# Wavelength: 1.27818e-10 m
# Mask applied: user provided
# Dark current applied: False
# Flat field applied: False
# Polarization factor: None
# Normalization factor: 13440965.200000001
# --> MT-AL_F127_220226_9c5cac4b-ccee-4540-814d-c525b378021d_1_r1d.csv
#        q_A^-1             I 
  4.457554e-03    1.889893e-03
  4.756484e-03    1.484004e-03
  5.055415e-03    1.049403e-03
  5.354345e-03    7.266491e-04
  5.653276e-03    5.569152e-04
  5.952206e-03    9.234916e-04
  6.251136e-03    8.436759e-04
  6.550067e-03    7.311175e-04
  6.848997e-03    6.203508e-04
  7.147927e-03    5.229450e-04
  7.446858e-03    4.461081e-04
  7.745788e-03    3.817126e-04
  8.044719e-03    3.284022e-04
  8.343649e-03    2.863565e-04
  8.642579e-03    2.502148e-04
  8.941510e-03    2.198506e-04
  9.240440e-03    1.948569e-04
  9.539371e-03    1.729871e-04
  9.838301e-03    1.536485e-04
  1.013723e-02    1.374510e-04
  1.043616e-02    1.235699e-04
  1.073509e-02    1.108421e-04
  1.103402e-02    1.004800e-04
  1.133295e-02    9.106019e-05
  1.163188e-02    8.304996e-05
  1.193081e-02    7.590463e-05
  1.222974e-02    6.941391e-05
  1.252867e-02    6.376518e-05
  1.282760e-02    5.874578e-05
  1.312654e-02    5.421398e-05
  1.342547e-02    5.027539e-05
  1.372440e-02    4.662538e-05
  1.402333e-02    4.309711e-05
  1.432226e-02    4.010117e-05
  1.462119e-02    3.736277e-05
  1.492012e-02    3.486297e-05
  1.521905e-02    3.258646e-05
  1.551798e-02    3.074552e-05
  1.581691e-02    2.899743e-05
  1.611584e-02    2.723952e-05
  1.641477e-02    2.570584e-05
  1.671370e-02    2.432043e-05
  1.701263e-02    2.301492e-05
  1.731156e-02    2.188882e-05
  1.761049e-02    2.084172e-05
  1.790942e-02    1.983911e-05
  1.820835e-02    1.886724e-05
  1.850728e-02    1.799785e-05
  1.880621e-02    1.722582e-05
  1.910514e-02    1.643702e-05
  1.940407e-02    1.580552e-05
  1.970300e-02    1.522367e-05
  2.000193e-02    1.459963e-05
  2.030086e-02    1.404278e-05
  2.059979e-02    1.354352e-05
  2.089873e-02    1.313368e-05
  2.119766e-02    1.278289e-05
  2.149659e-02    1.237093e-05
  2.179552e-02    1.193267e-05
  2.209445e-02    1.157881e-05
  2.239338e-02    1.118754e-05
  2.269231e-02    1.081454e-05
  2.299124e-02    1.057889e-05
  2.329017e-02    1.030149e-05
  2.358910e-02    1.003338e-05
  2.388803e-02    9.885207e-06
  2.418696e-02    9.654454e-06
  2.448589e-02    9.451966e-06
  2.478482e-02    9.233388e-06
  2.508375e-02    9.057741e-06
  2.538268e-02    8.876170e-06
  2.568161e-02    8.729812e-06
  2.598054e-02    8.571074e-06
  2.627947e-02    8.384639e-06
  2.657840e-02    8.247882e-06
  2.687733e-02    8.137618e-06
  2.717626e-02    8.011692e-06
  2.747519e-02    7.868952e-06
  2.777412e-02    7.772071e-06
  2.807305e-02    7.720675e-06
  2.837198e-02    7.646790e-06
  2.867092e-02    7.532745e-06
  2.896985e-02    7.405447e-06
  2.926878e-02    7.276682e-06
  2.956771e-02    7.221024e-06
  2.986664e-02    7.147138e-06
  3.016557e-02    7.080633e-06
  3.046450e-02    6.993822e-06
  3.076343e-02    6.929699e-06
  3.106236e-02    6.882614e-06
  3.136129e-02    6.778156e-06
  3.166022e-02    6.703314e-06
  3.195915e-02    6.652009e-06
  3.225808e-02    6.632381e-06
  3.255701e-02    6.559380e-06
  3.285594e-02    6.516223e-06
  3.315487e-02    6.468551e-06
  3.345380e-02    6.397235e-06
  3.375273e-02    6.321503e-06
  3.405166e-02    6.279985e-06
  3.435059e-02    6.174623e-06
  3.464952e-02    6.161647e-06
  3.494845e-02    6.124968e-06
  3.524738e-02    6.055328e-06
  3.554631e-02    6.035856e-06
  3.584524e-02    5.972596e-06
  3.614417e-02    5.876479e-06
  3.644310e-02    5.855808e-06
  3.674204e-02    5.812192e-06
  3.704097e-02    5.756622e-06
  3.733990e-02    5.743338e-06
  3.763883e-02    5.701313e-06
  3.793776e-02    5.628324e-06
  3.823669e-02    5.565445e-06
  3.853562e-02    5.514920e-06
  3.883455e-02    5.523436e-06
  3.913348e-02    5.494840e-06
  3.943241e-02    5.425575e-06
  3.973134e-02    5.412558e-06
  4.003027e-02    5.387876e-06
  4.032920e-02    5.382414e-06
  4.062813e-02    5.357962e-06
  4.092706e-02    5.324092e-06
  4.122599e-02    5.311681e-06
  4.152492e-02    5.280364e-06
  4.182385e-02    5.295318e-06
  4.212278e-02    5.246504e-06
  4.242171e-02    5.225842e-06
  4.272064e-02    5.211041e-06
  4.301957e-02    5.192784e-06
  4.331850e-02    5.181128e-06
  4.361743e-02    5.147832e-06
  4.391636e-02    5.115675e-06
  4.421529e-02    5.152859e-06
  4.451423e-02    5.142896e-06
  4.481316e-02    5.130770e-06
  4.511209e-02    5.148969e-06
  4.541102e-02    5.167071e-06
  4.570995e-02    5.159812e-06
  4.600888e-02    5.117756e-06
  4.630781e-02    5.106854e-06
  4.660674e-02    5.112902e-06
  4.690567e-02    5.071652e-06
  4.720460e-02    5.049990e-06
  4.750353e-02    5.063435e-06
  4.780246e-02    5.096220e-06
  4.810139e-02    5.095057e-06
  4.840032e-02    5.085072e-06
  4.869925e-02    5.079782e-06
  4.899818e-02    5.053081e-06
  4.929711e-02    5.044092e-06
  4.959604e-02    5.055144e-06
  4.989497e-02    5.093893e-06
  5.019390e-02    5.099074e-06
  5.049283e-02    5.080159e-06
  5.079176e-02    5.080848e-06
  5.109069e-02    5.111308e-06
  5.138962e-02    5.123361e-06
  5.168855e-02    5.213739e-06
  5.198748e-02    5.339139e-06
  5.228642e-02    5.284264e-06
  5.258535e-02    5.098255e-06
  5.288428e-02    5.035095e-06
  5.318321e-02    5.045522e-06
  5.348214e-02    5.031877e-06
  5.378107e-02    5.050781e-06
  5.408000e-02    5.077794e-06
  5.437893e-02    5.076555e-06
  5.467786e-02    5.067775e-06
  5.497679e-02    5.037517e-06
  5.527572e-02    5.059172e-06
  5.557465e-02    5.086634e-06
  5.587358e-02    5.095606e-06
  5.617251e-02    5.110350e-06
  5.647144e-02    5.085807e-06
  5.677037e-02    5.079261e-06
  5.706930e-02    5.091503e-06
  5.736823e-02    5.104484e-06
  5.766716e-02    5.093547e-06
  5.796609e-02    5.110658e-06
  5.826502e-02    5.134582e-06
  5.856395e-02    5.119283e-06
  5.886288e-02    5.132425e-06
  5.916181e-02    5.136567e-06
  5.946074e-02    5.127979e-06
  5.975967e-02    5.151539e-06
  6.005861e-02    5.165879e-06
  6.035754e-02    5.179772e-06
  6.065647e-02    5.184147e-06
  6.095540e-02    5.209955e-06
  6.125433e-02    5.289094e-06
  6.155326e-02    5.342699e-06
  6.185219e-02    5.278629e-06
  6.215112e-02    5.239337e-06
  6.245005e-02    5.209927e-06
  6.274898e-02    5.202244e-06
  6.304791e-02    5.208318e-06
  6.334684e-02    5.246322e-06
  6.364577e-02    5.231557e-06
  6.394470e-02    5.231312e-06
  6.424363e-02    5.254704e-06
  6.454256e-02    5.253271e-06
  6.484149e-02    5.259608e-06
  6.514042e-02    5.264832e-06
  6.543935e-02    5.269777e-06
  6.573828e-02    5.305840e-06
  6.603721e-02    5.297579e-06
  6.633614e-02    5.303183e-06
  6.663507e-02    5.299775e-06
  6.693400e-02    5.301518e-06
  6.723293e-02    5.313064e-06
  6.753186e-02    5.331677e-06
  6.783080e-02    5.359964e-06
  6.812973e-02    5.348854e-06
  6.842866e-02    5.361716e-06
  6.872759e-02    5.366349e-06
  6.902652e-02    5.396920e-06
  6.932545e-02    5.396631e-06
  6.962438e-02    5.401469e-06
  6.992331e-02    5.387401e-06
  7.022224e-02    5.415144e-06
  7.052117e-02    5.425535e-06
  7.082010e-02    5.411150e-06
  7.111903e-02    5.417366e-06
  7.141796e-02    5.415235e-06
  7.171689e-02    5.425165e-06
  7.201582e-02    5.480790e-06
  7.231475e-02    5.467223e-06
  7.261368e-02    5.442417e-06
  7.291261e-02    5.446247e-06
  7.321154e-02    5.451323e-06
  7.351047e-02    5.430966e-06
  7.380940e-02    5.455042e-06
  7.410833e-02    5.471891e-06
  7.440726e-02    5.470993e-06
  7.470619e-02    5.477806e-06
  7.500512e-02    5.465131e-06
  7.530405e-02    5.458307e-06
  7.560299e-02    5.444322e-06
  7.590192e-02    5.453339e-06
  7.620085e-02    5.455714e-06
  7.649978e-02    5.461862e-06
  7.679871e-02    5.476016e-06
  7.709764e-02    5.456348e-06
  7.739657e-02    5.452141e-06
  7.769550e-02    5.455176e-06
  7.799443e-02    5.444766e-06
  7.829336e-02    5.452391e-06
  7.859229e-02    5.423919e-06
  7.889122e-02    5.414388e-06
  7.919015e-02    5.434296e-06
  7.948908e-02    5.433854e-06
  7.978801e-02    5.451438e-06
  8.008694e-02    5.439080e-06
  8.038587e-02    5.429769e-06
  8.068480e-02    5.431269e-06
  8.098373e-02    5.418011e-06
  8.128266e-02    5.421236e-06
  8.158159e-02    5.399881e-06
  8.188052e-02    5.371939e-06
  8.217945e-02    5.393110e-06
  8.247838e-02    5.386902e-06
  8.277731e-02    5.389448e-06
  8.307624e-02    5.389804e-06
  8.337518e-02    5.374225e-06
  8.367411e-02    5.344532e-06
  8.397304e-02    5.333084e-06
  8.427197e-02    5.342025e-06
  8.457090e-02    5.347737e-06
  8.486983e-02    5.328364e-06
  8.516876e-02    5.317375e-06
  8.546769e-02    5.313761e-06
  8.576662e-02    5.319360e-06
  8.606555e-02    5.314045e-06
  8.636448e-02    5.303375e-06
  8.666341e-02    5.276236e-06
  8.696234e-02    5.252802e-06
  8.726127e-02    5.253283e-06
  8.756020e-02    5.268384e-06
  8.785913e-02    5.268701e-06
  8.815806e-02    5.261304e-06
  8.845699e-02    5.235597e-06
  8.875592e-02    5.210807e-06
  8.905485e-02    5.185062e-06
  8.935378e-02    5.182594e-06
  8.965271e-02    5.181438e-06
  8.995164e-02    5.163743e-06
  9.025057e-02    5.168897e-06
  9.054950e-02    5.159206e-06
  9.084843e-02    5.131566e-06
  9.114737e-02    5.131099e-06
  9.144630e-02    5.118956e-06
  9.174523e-02    5.101178e-06
  9.204416e-02    5.098002e-06
  9.234309e-02    5.085155e-06
  9.264202e-02    5.081957e-06
  9.294095e-02    5.089380e-06
  9.323988e-02    5.055089e-06
  9.353881e-02    5.055635e-06
  9.383774e-02    5.043620e-06
  9.413667e-02    5.043975e-06
  9.443560e-02    5.057288e-06
  9.473453e-02    5.031303e-06
  9.503346e-02    5.035326e-06
  9.533239e-02    5.035150e-06
  9.563132e-02    5.021124e-06
  9.593025e-02    5.019629e-06
  9.622918e-02    5.015561e-06
  9.652811e-02    5.039410e-06
  9.682704e-02    5.041882e-06
  9.712597e-02    5.036462e-06
  9.742490e-02    5.040053e-06
  9.772383e-02    4.984959e-06
  9.802276e-02    4.944014e-06
  9.832169e-02    4.926926e-06
  9.862062e-02    4.915884e-06
  9.891956e-02    4.901028e-06
  9.921849e-02    4.908414e-06
  9.951742e-02    4.900609e-06
  9.981635e-02    4.895492e-06
  1.001153e-01    4.862239e-06
  1.004142e-01    4.849875e-06
  1.007131e-01    4.839830e-06
  1.010121e-01    4.832264e-06
  1.013110e-01    4.824280e-06
  1.016099e-01    4.815247e-06
  1.019089e-01    4.786522e-06
  1.022078e-01    4.769206e-06
  1.025067e-01    4.763939e-06
  1.028057e-01    4.758303e-06
  1.031046e-01    4.771844e-06
  1.034035e-01    4.764789e-06
  1.037024e-01    4.765607e-06
  1.040014e-01    4.749957e-06
  1.043003e-01    4.725627e-06
  1.045992e-01    4.733771e-06
  1.048982e-01    4.730399e-06
  1.051971e-01    4.712318e-06
  1.054960e-01    4.692619e-06
  1.057950e-01    4.684778e-06
  1.060939e-01    4.694026e-06
  1.063928e-01    4.675438e-06
  1.066917e-01    4.679122e-06
  1.069907e-01    4.664003e-06
  1.072896e-01    4.666276e-06
  1.075885e-01    4.634763e-06
  1.078875e-01    4.614054e-06
  1.081864e-01    4.632452e-06
  1.084853e-01    4.636281e-06
  1.087843e-01    4.638020e-06
  1.090832e-01    4.648642e-06
  1.093821e-01    4.633005e-06
  1.096810e-01    4.575051e-06
  1.099800e-01    4.527859e-06
  1.102789e-01    4.531806e-06
  1.105778e-01    4.540765e-06
  1.108768e-01    4.503240e-06
  1.111757e-01    4.458685e-06
  1.114746e-01    4.470450e-06
  1.117736e-01    4.465992e-06
  1.120725e-01    4.455430e-06
  1.123714e-01    4.463803e-06
  1.126704e-01    4.494735e-06
  1.129693e-01    4.462755e-06
  1.132682e-01    4.391762e-06
  1.135671e-01    4.391444e-06
  1.138661e-01    4.373153e-06
  1.141650e-01    4.375745e-06
  1.144639e-01    4.402631e-06
  1.147629e-01    4.412804e-06
  1.150618e-01    4.387158e-06
  1.153607e-01    4.364962e-06
  1.156597e-01    4.361002e-06
  1.159586e-01    4.334744e-06
  1.162575e-01    4.306698e-06
  1.165564e-01    4.336364e-06
  1.168554e-01    4.340982e-06
  1.171543e-01    4.342678e-06
  1.174532e-01    4.367935e-06
  1.177522e-01    4.352088e-06
  1.180511e-01    4.311792e-06
  1.183500e-01    4.333669e-06
  1.186490e-01    4.339081e-06
  1.189479e-01    4.293062e-06
  1.192468e-01    4.247449e-06
  1.195458e-01    4.284204e-06
  1.198447e-01    4.301596e-06
  1.201436e-01    4.253950e-06
  1.204425e-01    4.137461e-06
  1.207415e-01    4.040005e-06
  1.210404e-01    4.393542e-06
  1.213393e-01    0.000000e+00
  1.216383e-01    0.000000e+00
  1.219372e-01    0.000000e+00
  1.222361e-01    0.000000e+00
  1.225351e-01    0.000000e+00
  1.228340e-01    0.000000e+00
  1.231329e-01    0.000000e+00
  1.234318e-01    0.000000e+00
  1.237308e-01    0.000000e+00
  1.240297e-01    0.000000e+00
  1.243286e-01    0.000000e+00
  1.246276e-01    0.000000e+00
  1.249265e-01    0.000000e+00
  1.252254e-01    0.000000e+00
  1.255244e-01    0.000000e+00
  1.258233e-01    0.000000e+00
  1.261222e-01    0.000000e+00
  1.264212e-01    0.000000e+00
  1.267201e-01    0.000000e+00
  1.270190e-01    0.000000e+00
  1.273179e-01    0.000000e+00
  1.276169e-01    0.000000e+00
  1.279158e-01    0.000000e+00
  1.282147e-01    0.000000e+00
  1.285137e-01    0.000000e+00
  1.288126e-01    0.000000e+00
  1.291115e-01    0.000000e+00
  1.294105e-01    0.000000e+00
  1.297094e-01    0.000000e+00
  1.300083e-01    0.000000e+00
  1.303072e-01    0.000000e+00
  1.306062e-01    0.000000e+00
  1.309051e-01    0.000000e+00
  1.312040e-01    0.000000e+00
  1.315030e-01    0.000000e+00
  1.318019e-01    0.000000e+00
  1.321008e-01    0.000000e+00
  1.323998e-01    0.000000e+00
  1.326987e-01    0.000000e+00
  1.329976e-01    0.000000e+00
  1.332965e-01    0.000000e+00
  1.335955e-01    0.000000e+00
  1.338944e-01    0.000000e+00
  1.341933e-01    0.000000e+00
  1.344923e-01    0.000000e+00
  1.347912e-01    0.000000e+00
  1.350901e-01    0.000000e+00
  1.353891e-01    0.000000e+00
  1.356880e-01    0.000000e+00
  1.359869e-01    0.000000e+00
  1.362859e-01    0.000000e+00
  1.365848e-01    0.000000e+00
  1.368837e-01    0.000000e+00
  1.371826e-01    0.000000e+00
  1.374816e-01    0.000000e+00
  1.377805e-01    0.000000e+00
  1.380794e-01    0.000000e+00
  1.383784e-01    0.000000e+00
  1.386773e-01    0.000000e+00
  1.389762e-01    0.000000e+00
  1.392752e-01    0.000000e+00
  1.395741e-01    0.000000e+00
  1.398730e-01    0.000000e+00
  1.401719e-01    0.000000e+00
  1.404709e-01    0.000000e+00
  1.407698e-01    0.000000e+00
  1.410687e-01    0.000000e+00
  1.413677e-01    0.000000e+00
  1.416666e-01    0.000000e+00
  1.419655e-01    0.000000e+00
  1.422645e-01    0.000000e+00
  1.425634e-01    0.000000e+00
  1.428623e-01    0.000000e+00
  1.431613e-01    0.000000e+00
  1.434602e-01    0.000000e+00
  1.437591e-01    0.000000e+00
  1.440580e-01    0.000000e+00
  1.443570e-01    0.000000e+00
  1.446559e-01    0.000000e+00
  1.449548e-01    0.000000e+00
  1.452538e-01    0.000000e+00
  1.455527e-01    0.000000e+00
  1.458516e-01    0.000000e+00
  1.461506e-01    0.000000e+00
  1.464495e-01    0.000000e+00
  1.467484e-01    0.000000e+00
  1.470473e-01    0.000000e+00
  1.473463e-01    0.000000e+00
  1.476452e-01    0.000000e+00
  1.479441e-01    0.000000e+00
  1.482431e-01    0.000000e+00
  1.485420e-01    0.000000e+00
  1.488409e-01    0.000000e+00
  1.491399e-01    0.000000e+00
  1.494388e-01    0.000000e+00
  1.497377e-01    0.000000e+00
  1.500367e-01    0.000000e+00
  1.503356e-01    0.000000e+00
  1.506345e-01    0.000000e+00
  1.509334e-01    0.000000e+00
  1.512324e-01    0.000000e+00
  1.515313e-01    0.000000e+00
  1.518302e-01    0.000000e+00
  1.521292e-01    0.000000e+00
  1.524281e-01    0.000000e+00
  1.527270e-01    0.000000e+00
  1.530260e-01    0.000000e+00
  1.533249e-01    0.000000e+00
  1.536238e-01    0.000000e+00
