# == pyFAI calibration ==
# Distance Sample to Detector: 2.266 m
# PONI: 5.659e-02, 4.293e-02 m
# Rotations: 0.000000 0.000000 0.000000 rad
# 
# == Fit2d calibration ==
# Distance Sample-beamCenter: 2266.000 mm
# Center: x=249.594, y=329.012 pix
# Tilt: 0.000 deg  TiltPlanRot: 0.000 deg
# 
# Detector Pilatus 300k	 PixelSize= 1.720e-04, 1.720e-04 m
#    Detector has a mask: True 
#    Detector has a dark current: False 
#    detector has a flat field: False 
# 
# Wavelength: 1.27818e-10 m
# Mask applied: user provided
# Dark current applied: False
# Flat field applied: False
# Polarization factor: None
# Normalization factor: 33906.8
# --> MT-AL_DowExpt1_220227_cbe845c4-cbf9-4800-a703-36844f10c452_0_r1d.csv
#        q_A^-1             I 
  4.457554e-03    3.815446e-02
  4.756484e-03    3.069272e-02
  5.055415e-03    2.184143e-02
  5.354345e-03    1.499681e-02
  5.653276e-03    1.159221e-02
  5.952206e-03    1.853718e-02
  6.251136e-03    1.682743e-02
  6.550067e-03    1.460976e-02
  6.848997e-03    1.252770e-02
  7.147927e-03    1.057406e-02
  7.446858e-03    8.953449e-03
  7.745788e-03    7.635890e-03
  8.044719e-03    6.590070e-03
  8.343649e-03    5.759795e-03
  8.642579e-03    5.005212e-03
  8.941510e-03    4.392421e-03
  9.240440e-03    3.889037e-03
  9.539371e-03    3.476280e-03
  9.838301e-03    3.056257e-03
  1.013723e-02    2.740164e-03
  1.043616e-02    2.498662e-03
  1.073509e-02    2.215042e-03
  1.103402e-02    1.999305e-03
  1.133295e-02    1.815555e-03
  1.163188e-02    1.664761e-03
  1.193081e-02    1.518887e-03
  1.222974e-02    1.370893e-03
  1.252867e-02    1.252254e-03
  1.282760e-02    1.150030e-03
  1.312654e-02    1.077487e-03
  1.342547e-02    1.005217e-03
  1.372440e-02    9.234873e-04
  1.402333e-02    8.582982e-04
  1.432226e-02    8.054717e-04
  1.462119e-02    7.484098e-04
  1.492012e-02    6.953281e-04
  1.521905e-02    6.513687e-04
  1.551798e-02    6.174163e-04
  1.581691e-02    5.723776e-04
  1.611584e-02    5.307886e-04
  1.641477e-02    5.071181e-04
  1.671370e-02    4.801586e-04
  1.701263e-02    4.545015e-04
  1.731156e-02    4.289862e-04
  1.761049e-02    4.042643e-04
  1.790942e-02    3.849327e-04
  1.820835e-02    3.677928e-04
  1.850728e-02    3.499400e-04
  1.880621e-02    3.392739e-04
  1.910514e-02    3.279207e-04
  1.940407e-02    3.138559e-04
  1.970300e-02    3.012765e-04
  2.000193e-02    2.861379e-04
  2.030086e-02    2.759869e-04
  2.059979e-02    2.672261e-04
  2.089873e-02    2.561487e-04
  2.119766e-02    2.444433e-04
  2.149659e-02    2.320600e-04
  2.179552e-02    2.275913e-04
  2.209445e-02    2.242016e-04
  2.239338e-02    2.228645e-04
  2.269231e-02    2.144520e-04
  2.299124e-02    2.032006e-04
  2.329017e-02    2.000992e-04
  2.358910e-02    1.979136e-04
  2.388803e-02    1.879135e-04
  2.418696e-02    1.813248e-04
  2.448589e-02    1.765077e-04
  2.478482e-02    1.772178e-04
  2.508375e-02    1.765583e-04
  2.538268e-02    1.756533e-04
  2.568161e-02    1.725271e-04
  2.598054e-02    1.633127e-04
  2.627947e-02    1.589924e-04
  2.657840e-02    1.575543e-04
  2.687733e-02    1.534135e-04
  2.717626e-02    1.532308e-04
  2.747519e-02    1.515500e-04
  2.777412e-02    1.460044e-04
  2.807305e-02    1.474709e-04
  2.837198e-02    1.491040e-04
  2.867092e-02    1.475137e-04
  2.896985e-02    1.410468e-04
  2.926878e-02    1.394461e-04
  2.956771e-02    1.348988e-04
  2.986664e-02    1.342077e-04
  3.016557e-02    1.365587e-04
  3.046450e-02    1.335364e-04
  3.076343e-02    1.328747e-04
  3.106236e-02    1.337404e-04
  3.136129e-02    1.312921e-04
  3.166022e-02    1.277576e-04
  3.195915e-02    1.271308e-04
  3.225808e-02    1.282021e-04
  3.255701e-02    1.264202e-04
  3.285594e-02    1.232661e-04
  3.315487e-02    1.199962e-04
  3.345380e-02    1.185371e-04
  3.375273e-02    1.181357e-04
  3.405166e-02    1.159755e-04
  3.435059e-02    1.138628e-04
  3.464952e-02    1.149294e-04
  3.494845e-02    1.168057e-04
  3.524738e-02    1.173957e-04
  3.554631e-02    1.144852e-04
  3.584524e-02    1.157805e-04
  3.614417e-02    1.138227e-04
  3.644310e-02    1.128256e-04
  3.674204e-02    1.127276e-04
  3.704097e-02    1.113922e-04
  3.733990e-02    1.107516e-04
  3.763883e-02    1.100744e-04
  3.793776e-02    1.076520e-04
  3.823669e-02    1.089461e-04
  3.853562e-02    1.088881e-04
  3.883455e-02    1.039199e-04
  3.913348e-02    1.044974e-04
  3.943241e-02    1.053152e-04
  3.973134e-02    1.049300e-04
  4.003027e-02    1.032622e-04
  4.032920e-02    1.024869e-04
  4.062813e-02    1.026450e-04
  4.092706e-02    1.018764e-04
  4.122599e-02    9.957586e-05
  4.152492e-02    9.746009e-05
  4.182385e-02    9.732111e-05
  4.212278e-02    9.962943e-05
  4.242171e-02    1.025083e-04
  4.272064e-02    1.012817e-04
  4.301957e-02    9.963373e-05
  4.331850e-02    9.925086e-05
  4.361743e-02    9.976587e-05
  4.391636e-02    9.788571e-05
  4.421529e-02    9.647468e-05
  4.451423e-02    9.866061e-05
  4.481316e-02    1.023548e-04
  4.511209e-02    9.782409e-05
  4.541102e-02    9.408218e-05
  4.570995e-02    9.355725e-05
  4.600888e-02    9.690181e-05
  4.630781e-02    9.610409e-05
  4.660674e-02    9.408753e-05
  4.690567e-02    9.530762e-05
  4.720460e-02    9.849749e-05
  4.750353e-02    1.001738e-04
  4.780246e-02    9.920712e-05
  4.810139e-02    9.829470e-05
  4.840032e-02    9.699211e-05
  4.869925e-02    9.618004e-05
  4.899818e-02    9.681619e-05
  4.929711e-02    9.513673e-05
  4.959604e-02    9.401271e-05
  4.989497e-02    9.391670e-05
  5.019390e-02    9.654892e-05
  5.049283e-02    9.789338e-05
  5.079176e-02    9.757072e-05
  5.109069e-02    9.490679e-05
  5.138962e-02    9.618457e-05
  5.168855e-02    9.601009e-05
  5.198748e-02    9.841114e-05
  5.228642e-02    9.882169e-05
  5.258535e-02    9.578996e-05
  5.288428e-02    9.649505e-05
  5.318321e-02    9.635879e-05
  5.348214e-02    9.711554e-05
  5.378107e-02    9.458250e-05
  5.408000e-02    9.507694e-05
  5.437893e-02    9.813420e-05
  5.467786e-02    9.793454e-05
  5.497679e-02    9.543981e-05
  5.527572e-02    9.273484e-05
  5.557465e-02    9.210427e-05
  5.587358e-02    9.532859e-05
  5.617251e-02    9.469553e-05
  5.647144e-02    9.693799e-05
  5.677037e-02    9.654583e-05
  5.706930e-02    9.485428e-05
  5.736823e-02    9.592305e-05
  5.766716e-02    9.777144e-05
  5.796609e-02    9.445961e-05
  5.826502e-02    9.738012e-05
  5.856395e-02    9.673482e-05
  5.886288e-02    9.905848e-05
  5.916181e-02    1.002130e-04
  5.946074e-02    9.701776e-05
  5.975967e-02    9.455867e-05
  6.005861e-02    9.713273e-05
  6.035754e-02    9.552274e-05
  6.065647e-02    9.762398e-05
  6.095540e-02    9.864071e-05
  6.125433e-02    9.921555e-05
  6.155326e-02    1.011471e-04
  6.185219e-02    1.006030e-04
  6.215112e-02    9.915221e-05
  6.245005e-02    9.888610e-05
  6.274898e-02    9.928448e-05
  6.304791e-02    9.837507e-05
  6.334684e-02    9.896180e-05
  6.364577e-02    9.873823e-05
  6.394470e-02    9.860010e-05
  6.424363e-02    9.862008e-05
  6.454256e-02    9.955998e-05
  6.484149e-02    9.905484e-05
  6.514042e-02    9.851315e-05
  6.543935e-02    1.000298e-04
  6.573828e-02    9.933718e-05
  6.603721e-02    9.992784e-05
  6.633614e-02    1.032726e-04
  6.663507e-02    1.042116e-04
  6.693400e-02    1.020861e-04
  6.723293e-02    1.018425e-04
  6.753186e-02    1.018041e-04
  6.783080e-02    1.002827e-04
  6.812973e-02    9.870113e-05
  6.842866e-02    1.000031e-04
  6.872759e-02    1.013142e-04
  6.902652e-02    1.014938e-04
  6.932545e-02    1.006157e-04
  6.962438e-02    1.034658e-04
  6.992331e-02    1.028501e-04
  7.022224e-02    1.032829e-04
  7.052117e-02    1.018603e-04
  7.082010e-02    9.901157e-05
  7.111903e-02    1.007326e-04
  7.141796e-02    1.035642e-04
  7.171689e-02    1.041686e-04
  7.201582e-02    1.012629e-04
  7.231475e-02    1.020618e-04
  7.261368e-02    1.033225e-04
  7.291261e-02    1.030010e-04
  7.321154e-02    1.044695e-04
  7.351047e-02    1.021432e-04
  7.380940e-02    1.028931e-04
  7.410833e-02    1.025137e-04
  7.440726e-02    1.023307e-04
  7.470619e-02    1.011445e-04
  7.500512e-02    1.020042e-04
  7.530405e-02    1.025347e-04
  7.560299e-02    1.023242e-04
  7.590192e-02    1.015051e-04
  7.620085e-02    1.025876e-04
  7.649978e-02    1.010497e-04
  7.679871e-02    1.015814e-04
  7.709764e-02    1.017710e-04
  7.739657e-02    1.014389e-04
  7.769550e-02    1.013554e-04
  7.799443e-02    1.008053e-04
  7.829336e-02    1.017754e-04
  7.859229e-02    1.016568e-04
  7.889122e-02    1.009524e-04
  7.919015e-02    1.007084e-04
  7.948908e-02    1.014133e-04
  7.978801e-02    1.020825e-04
  8.008694e-02    1.006138e-04
  8.038587e-02    1.014369e-04
  8.068480e-02    1.023483e-04
  8.098373e-02    1.035172e-04
  8.128266e-02    1.016730e-04
  8.158159e-02    1.011838e-04
  8.188052e-02    9.943281e-05
  8.217945e-02    9.713042e-05
  8.247838e-02    9.760151e-05
  8.277731e-02    9.873664e-05
  8.307624e-02    9.758161e-05
  8.337518e-02    9.820019e-05
  8.367411e-02    9.865547e-05
  8.397304e-02    9.896884e-05
  8.427197e-02    9.786689e-05
  8.457090e-02    9.699297e-05
  8.486983e-02    9.751978e-05
  8.516876e-02    1.000974e-04
  8.546769e-02    9.967236e-05
  8.576662e-02    9.887807e-05
  8.606555e-02    1.000413e-04
  8.636448e-02    9.863380e-05
  8.666341e-02    9.803702e-05
  8.696234e-02    9.986907e-05
  8.726127e-02    9.897985e-05
  8.756020e-02    9.767883e-05
  8.785913e-02    9.658703e-05
  8.815806e-02    9.714557e-05
  8.845699e-02    9.764606e-05
  8.875592e-02    9.654270e-05
  8.905485e-02    9.538551e-05
  8.935378e-02    9.568455e-05
  8.965271e-02    9.497143e-05
  8.995164e-02    9.578773e-05
  9.025057e-02    9.671612e-05
  9.054950e-02    9.664998e-05
  9.084843e-02    9.549240e-05
  9.114737e-02    9.863455e-05
  9.144630e-02    9.591327e-05
  9.174523e-02    9.285675e-05
  9.204416e-02    9.263687e-05
  9.234309e-02    9.368340e-05
  9.264202e-02    9.737104e-05
  9.294095e-02    9.470264e-05
  9.323988e-02    9.235259e-05
  9.353881e-02    9.338606e-05
  9.383774e-02    9.349005e-05
  9.413667e-02    9.128238e-05
  9.443560e-02    9.168460e-05
  9.473453e-02    9.196996e-05
  9.503346e-02    9.376190e-05
  9.533239e-02    9.483210e-05
  9.563132e-02    9.336075e-05
  9.593025e-02    9.217015e-05
  9.622918e-02    9.211593e-05
  9.652811e-02    9.295969e-05
  9.682704e-02    9.381054e-05
  9.712597e-02    9.403319e-05
  9.742490e-02    9.275058e-05
  9.772383e-02    9.316255e-05
  9.802276e-02    9.177423e-05
  9.832169e-02    9.148136e-05
  9.862062e-02    9.040732e-05
  9.891956e-02    8.914347e-05
  9.921849e-02    9.080729e-05
  9.951742e-02    9.040163e-05
  9.981635e-02    8.858051e-05
  1.001153e-01    8.877220e-05
  1.004142e-01    8.955840e-05
  1.007131e-01    8.777613e-05
  1.010121e-01    8.879096e-05
  1.013110e-01    9.021124e-05
  1.016099e-01    8.764170e-05
  1.019089e-01    8.943350e-05
  1.022078e-01    9.096491e-05
  1.025067e-01    8.754888e-05
  1.028057e-01    8.758924e-05
  1.031046e-01    8.935229e-05
  1.034035e-01    8.778071e-05
  1.037024e-01    8.585746e-05
  1.040014e-01    8.853331e-05
  1.043003e-01    8.767567e-05
  1.045992e-01    8.714527e-05
  1.048982e-01    8.711489e-05
  1.051971e-01    8.833925e-05
  1.054960e-01    8.908087e-05
  1.057950e-01    8.718733e-05
  1.060939e-01    8.764488e-05
  1.063928e-01    9.050236e-05
  1.066917e-01    9.026277e-05
  1.069907e-01    8.649859e-05
  1.072896e-01    8.529090e-05
  1.075885e-01    8.545957e-05
  1.078875e-01    8.528835e-05
  1.081864e-01    8.491774e-05
  1.084853e-01    8.655793e-05
  1.087843e-01    8.775257e-05
  1.090832e-01    8.746330e-05
  1.093821e-01    8.683556e-05
  1.096810e-01    8.576312e-05
  1.099800e-01    8.538830e-05
  1.102789e-01    8.494590e-05
  1.105778e-01    8.402146e-05
  1.108768e-01    8.330984e-05
  1.111757e-01    8.310431e-05
  1.114746e-01    8.530520e-05
  1.117736e-01    8.411850e-05
  1.120725e-01    8.307348e-05
  1.123714e-01    8.506999e-05
  1.126704e-01    8.504273e-05
  1.129693e-01    8.260065e-05
  1.132682e-01    8.133571e-05
  1.135671e-01    8.039483e-05
  1.138661e-01    8.003243e-05
  1.141650e-01    8.053221e-05
  1.144639e-01    8.130102e-05
  1.147629e-01    8.050281e-05
  1.150618e-01    7.847266e-05
  1.153607e-01    8.409954e-05
  1.156597e-01    8.481049e-05
  1.159586e-01    8.125035e-05
  1.162575e-01    8.200330e-05
  1.165564e-01    8.203751e-05
  1.168554e-01    7.943757e-05
  1.171543e-01    8.156012e-05
  1.174532e-01    8.387413e-05
  1.177522e-01    8.587738e-05
  1.180511e-01    8.447174e-05
  1.183500e-01    7.718818e-05
  1.186490e-01    7.408277e-05
  1.189479e-01    8.202749e-05
  1.192468e-01    8.535531e-05
  1.195458e-01    8.383251e-05
  1.198447e-01    8.237512e-05
  1.201436e-01    7.902476e-05
  1.204425e-01    7.705075e-05
  1.207415e-01    8.806986e-05
  1.210404e-01    1.180773e-04
  1.213393e-01    0.000000e+00
  1.216383e-01    0.000000e+00
  1.219372e-01    0.000000e+00
  1.222361e-01    0.000000e+00
  1.225351e-01    0.000000e+00
  1.228340e-01    0.000000e+00
  1.231329e-01    0.000000e+00
  1.234318e-01    0.000000e+00
  1.237308e-01    0.000000e+00
  1.240297e-01    0.000000e+00
  1.243286e-01    0.000000e+00
  1.246276e-01    0.000000e+00
  1.249265e-01    0.000000e+00
  1.252254e-01    0.000000e+00
  1.255244e-01    0.000000e+00
  1.258233e-01    0.000000e+00
  1.261222e-01    0.000000e+00
  1.264212e-01    0.000000e+00
  1.267201e-01    0.000000e+00
  1.270190e-01    0.000000e+00
  1.273179e-01    0.000000e+00
  1.276169e-01    0.000000e+00
  1.279158e-01    0.000000e+00
  1.282147e-01    0.000000e+00
  1.285137e-01    0.000000e+00
  1.288126e-01    0.000000e+00
  1.291115e-01    0.000000e+00
  1.294105e-01    0.000000e+00
  1.297094e-01    0.000000e+00
  1.300083e-01    0.000000e+00
  1.303072e-01    0.000000e+00
  1.306062e-01    0.000000e+00
  1.309051e-01    0.000000e+00
  1.312040e-01    0.000000e+00
  1.315030e-01    0.000000e+00
  1.318019e-01    0.000000e+00
  1.321008e-01    0.000000e+00
  1.323998e-01    0.000000e+00
  1.326987e-01    0.000000e+00
  1.329976e-01    0.000000e+00
  1.332965e-01    0.000000e+00
  1.335955e-01    0.000000e+00
  1.338944e-01    0.000000e+00
  1.341933e-01    0.000000e+00
  1.344923e-01    0.000000e+00
  1.347912e-01    0.000000e+00
  1.350901e-01    0.000000e+00
  1.353891e-01    0.000000e+00
  1.356880e-01    0.000000e+00
  1.359869e-01    0.000000e+00
  1.362859e-01    0.000000e+00
  1.365848e-01    0.000000e+00
  1.368837e-01    0.000000e+00
  1.371826e-01    0.000000e+00
  1.374816e-01    0.000000e+00
  1.377805e-01    0.000000e+00
  1.380794e-01    0.000000e+00
  1.383784e-01    0.000000e+00
  1.386773e-01    0.000000e+00
  1.389762e-01    0.000000e+00
  1.392752e-01    0.000000e+00
  1.395741e-01    0.000000e+00
  1.398730e-01    0.000000e+00
  1.401719e-01    0.000000e+00
  1.404709e-01    0.000000e+00
  1.407698e-01    0.000000e+00
  1.410687e-01    0.000000e+00
  1.413677e-01    0.000000e+00
  1.416666e-01    0.000000e+00
  1.419655e-01    0.000000e+00
  1.422645e-01    0.000000e+00
  1.425634e-01    0.000000e+00
  1.428623e-01    0.000000e+00
  1.431613e-01    0.000000e+00
  1.434602e-01    0.000000e+00
  1.437591e-01    0.000000e+00
  1.440580e-01    0.000000e+00
  1.443570e-01    0.000000e+00
  1.446559e-01    0.000000e+00
  1.449548e-01    0.000000e+00
  1.452538e-01    0.000000e+00
  1.455527e-01    0.000000e+00
  1.458516e-01    0.000000e+00
  1.461506e-01    0.000000e+00
  1.464495e-01    0.000000e+00
  1.467484e-01    0.000000e+00
  1.470473e-01    0.000000e+00
  1.473463e-01    0.000000e+00
  1.476452e-01    0.000000e+00
  1.479441e-01    0.000000e+00
  1.482431e-01    0.000000e+00
  1.485420e-01    0.000000e+00
  1.488409e-01    0.000000e+00
  1.491399e-01    0.000000e+00
  1.494388e-01    0.000000e+00
  1.497377e-01    0.000000e+00
  1.500367e-01    0.000000e+00
  1.503356e-01    0.000000e+00
  1.506345e-01    0.000000e+00
  1.509334e-01    0.000000e+00
  1.512324e-01    0.000000e+00
  1.515313e-01    0.000000e+00
  1.518302e-01    0.000000e+00
  1.521292e-01    0.000000e+00
  1.524281e-01    0.000000e+00
  1.527270e-01    0.000000e+00
  1.530260e-01    0.000000e+00
  1.533249e-01    0.000000e+00
  1.536238e-01    0.000000e+00
