# == pyFAI calibration ==
# Distance Sample to Detector: 2.266 m
# PONI: 5.659e-02, 4.293e-02 m
# Rotations: 0.000000 0.000000 0.000000 rad
# 
# == Fit2d calibration ==
# Distance Sample-beamCenter: 2266.000 mm
# Center: x=249.594, y=329.012 pix
# Tilt: 0.000 deg  TiltPlanRot: 0.000 deg
# 
# Detector Pilatus 300k	 PixelSize= 1.720e-04, 1.720e-04 m
#    Detector has a mask: True 
#    Detector has a dark current: False 
#    detector has a flat field: False 
# 
# Wavelength: 1.27818e-10 m
# Mask applied: user provided
# Dark current applied: False
# Flat field applied: False
# Polarization factor: None
# Normalization factor: 2105792.4
# --> MT-AL_F127_220225_f5225ef4-05b0-4573-9a38-6a1c5f5a9da4_2_r1d.csv
#        q_A^-1             I 
  4.457554e-03    2.432448e-03
  4.756484e-03    1.913240e-03
  5.055415e-03    1.358625e-03
  5.354345e-03    9.612475e-04
  5.653276e-03    7.410588e-04
  5.952206e-03    1.186480e-03
  6.251136e-03    1.087867e-03
  6.550067e-03    9.474106e-04
  6.848997e-03    8.098016e-04
  7.147927e-03    6.862759e-04
  7.446858e-03    5.877222e-04
  7.745788e-03    5.052619e-04
  8.044719e-03    4.352261e-04
  8.343649e-03    3.799527e-04
  8.642579e-03    3.325313e-04
  8.941510e-03    2.909980e-04
  9.240440e-03    2.580029e-04
  9.539371e-03    2.296751e-04
  9.838301e-03    2.050385e-04
  1.013723e-02    1.829460e-04
  1.043616e-02    1.638556e-04
  1.073509e-02    1.469595e-04
  1.103402e-02    1.338424e-04
  1.133295e-02    1.215045e-04
  1.163188e-02    1.097078e-04
  1.193081e-02    9.997682e-05
  1.222974e-02    9.139474e-05
  1.252867e-02    8.369815e-05
  1.282760e-02    7.701484e-05
  1.312654e-02    7.094018e-05
  1.342547e-02    6.574299e-05
  1.372440e-02    6.079052e-05
  1.402333e-02    5.577945e-05
  1.432226e-02    5.169244e-05
  1.462119e-02    4.806430e-05
  1.492012e-02    4.497411e-05
  1.521905e-02    4.233180e-05
  1.551798e-02    3.988054e-05
  1.581691e-02    3.718608e-05
  1.611584e-02    3.471926e-05
  1.641477e-02    3.256557e-05
  1.671370e-02    3.096941e-05
  1.701263e-02    2.936491e-05
  1.731156e-02    2.773023e-05
  1.761049e-02    2.617820e-05
  1.790942e-02    2.498236e-05
  1.820835e-02    2.396060e-05
  1.850728e-02    2.260936e-05
  1.880621e-02    2.132122e-05
  1.910514e-02    2.052787e-05
  1.940407e-02    1.963666e-05
  1.970300e-02    1.871811e-05
  2.000193e-02    1.807100e-05
  2.030086e-02    1.734539e-05
  2.059979e-02    1.661752e-05
  2.089873e-02    1.610354e-05
  2.119766e-02    1.556572e-05
  2.149659e-02    1.521530e-05
  2.179552e-02    1.463594e-05
  2.209445e-02    1.409414e-05
  2.239338e-02    1.376939e-05
  2.269231e-02    1.326093e-05
  2.299124e-02    1.287084e-05
  2.329017e-02    1.239476e-05
  2.358910e-02    1.208086e-05
  2.388803e-02    1.181233e-05
  2.418696e-02    1.148454e-05
  2.448589e-02    1.116252e-05
  2.478482e-02    1.104620e-05
  2.508375e-02    1.087765e-05
  2.538268e-02    1.055610e-05
  2.568161e-02    1.031195e-05
  2.598054e-02    1.019850e-05
  2.627947e-02    1.003596e-05
  2.657840e-02    9.936530e-06
  2.687733e-02    9.775655e-06
  2.717626e-02    9.591065e-06
  2.747519e-02    9.332866e-06
  2.777412e-02    9.187232e-06
  2.807305e-02    9.176390e-06
  2.837198e-02    9.120978e-06
  2.867092e-02    9.031575e-06
  2.896985e-02    8.795035e-06
  2.926878e-02    8.710901e-06
  2.956771e-02    8.678876e-06
  2.986664e-02    8.446927e-06
  3.016557e-02    8.264100e-06
  3.046450e-02    8.213910e-06
  3.076343e-02    8.118802e-06
  3.106236e-02    8.053008e-06
  3.136129e-02    8.074201e-06
  3.166022e-02    7.991123e-06
  3.195915e-02    7.952075e-06
  3.225808e-02    7.847760e-06
  3.255701e-02    7.727434e-06
  3.285594e-02    7.708527e-06
  3.315487e-02    7.563473e-06
  3.345380e-02    7.409803e-06
  3.375273e-02    7.372392e-06
  3.405166e-02    7.342259e-06
  3.435059e-02    7.234131e-06
  3.464952e-02    7.181042e-06
  3.494845e-02    7.145212e-06
  3.524738e-02    7.075940e-06
  3.554631e-02    6.920366e-06
  3.584524e-02    6.840788e-06
  3.614417e-02    6.862450e-06
  3.644310e-02    6.684205e-06
  3.674204e-02    6.504561e-06
  3.704097e-02    6.492665e-06
  3.733990e-02    6.432877e-06
  3.763883e-02    6.451539e-06
  3.793776e-02    6.401423e-06
  3.823669e-02    6.403720e-06
  3.853562e-02    6.399037e-06
  3.883455e-02    6.189219e-06
  3.913348e-02    6.239865e-06
  3.943241e-02    6.204290e-06
  3.973134e-02    6.113809e-06
  4.003027e-02    6.048156e-06
  4.032920e-02    6.049991e-06
  4.062813e-02    5.967367e-06
  4.092706e-02    5.969619e-06
  4.122599e-02    5.982221e-06
  4.152492e-02    5.881952e-06
  4.182385e-02    5.863939e-06
  4.212278e-02    5.813547e-06
  4.242171e-02    5.788500e-06
  4.272064e-02    5.700683e-06
  4.301957e-02    5.745509e-06
  4.331850e-02    5.723292e-06
  4.361743e-02    5.805434e-06
  4.391636e-02    5.731838e-06
  4.421529e-02    5.630033e-06
  4.451423e-02    5.570086e-06
  4.481316e-02    5.610539e-06
  4.511209e-02    5.756394e-06
  4.541102e-02    5.695581e-06
  4.570995e-02    5.636286e-06
  4.600888e-02    5.604871e-06
  4.630781e-02    5.553954e-06
  4.660674e-02    5.559340e-06
  4.690567e-02    5.523967e-06
  4.720460e-02    5.519374e-06
  4.750353e-02    5.608517e-06
  4.780246e-02    5.551231e-06
  4.810139e-02    5.473090e-06
  4.840032e-02    5.474776e-06
  4.869925e-02    5.446102e-06
  4.899818e-02    5.427035e-06
  4.929711e-02    5.489929e-06
  4.959604e-02    5.508294e-06
  4.989497e-02    5.464717e-06
  5.019390e-02    5.459392e-06
  5.049283e-02    5.559788e-06
  5.079176e-02    5.534633e-06
  5.109069e-02    5.476068e-06
  5.138962e-02    5.588508e-06
  5.168855e-02    5.769002e-06
  5.198748e-02    5.879233e-06
  5.228642e-02    5.694115e-06
  5.258535e-02    5.423871e-06
  5.288428e-02    5.375323e-06
  5.318321e-02    5.436895e-06
  5.348214e-02    5.418728e-06
  5.378107e-02    5.462191e-06
  5.408000e-02    5.425864e-06
  5.437893e-02    5.328267e-06
  5.467786e-02    5.368574e-06
  5.497679e-02    5.345004e-06
  5.527572e-02    5.331040e-06
  5.557465e-02    5.327852e-06
  5.587358e-02    5.265475e-06
  5.617251e-02    5.361274e-06
  5.647144e-02    5.374374e-06
  5.677037e-02    5.391064e-06
  5.706930e-02    5.358985e-06
  5.736823e-02    5.424135e-06
  5.766716e-02    5.509265e-06
  5.796609e-02    5.491336e-06
  5.826502e-02    5.432685e-06
  5.856395e-02    5.446073e-06
  5.886288e-02    5.436912e-06
  5.916181e-02    5.467081e-06
  5.946074e-02    5.528334e-06
  5.975967e-02    5.442408e-06
  6.005861e-02    5.485583e-06
  6.035754e-02    5.475727e-06
  6.065647e-02    5.502954e-06
  6.095540e-02    5.601575e-06
  6.125433e-02    5.677910e-06
  6.155326e-02    5.740160e-06
  6.185219e-02    5.581620e-06
  6.215112e-02    5.475684e-06
  6.245005e-02    5.511866e-06
  6.274898e-02    5.511893e-06
  6.304791e-02    5.500601e-06
  6.334684e-02    5.454787e-06
  6.364577e-02    5.535869e-06
  6.394470e-02    5.534652e-06
  6.424363e-02    5.531964e-06
  6.454256e-02    5.578690e-06
  6.484149e-02    5.479467e-06
  6.514042e-02    5.516650e-06
  6.543935e-02    5.606386e-06
  6.573828e-02    5.610355e-06
  6.603721e-02    5.600214e-06
  6.633614e-02    5.621650e-06
  6.663507e-02    5.622896e-06
  6.693400e-02    5.593242e-06
  6.723293e-02    5.594323e-06
  6.753186e-02    5.596999e-06
  6.783080e-02    5.609348e-06
  6.812973e-02    5.658334e-06
  6.842866e-02    5.631108e-06
  6.872759e-02    5.700586e-06
  6.902652e-02    5.762506e-06
  6.932545e-02    5.669330e-06
  6.962438e-02    5.630955e-06
  6.992331e-02    5.747475e-06
  7.022224e-02    5.771349e-06
  7.052117e-02    5.732410e-06
  7.082010e-02    5.712783e-06
  7.111903e-02    5.755051e-06
  7.141796e-02    5.739907e-06
  7.171689e-02    5.772075e-06
  7.201582e-02    5.764002e-06
  7.231475e-02    5.724536e-06
  7.261368e-02    5.729154e-06
  7.291261e-02    5.726590e-06
  7.321154e-02    5.741008e-06
  7.351047e-02    5.817551e-06
  7.380940e-02    5.760248e-06
  7.410833e-02    5.726623e-06
  7.440726e-02    5.759563e-06
  7.470619e-02    5.814228e-06
  7.500512e-02    5.769502e-06
  7.530405e-02    5.746656e-06
  7.560299e-02    5.788009e-06
  7.590192e-02    5.797959e-06
  7.620085e-02    5.755703e-06
  7.649978e-02    5.753204e-06
  7.679871e-02    5.805711e-06
  7.709764e-02    5.805177e-06
  7.739657e-02    5.766727e-06
  7.769550e-02    5.788646e-06
  7.799443e-02    5.803712e-06
  7.829336e-02    5.823329e-06
  7.859229e-02    5.779371e-06
  7.889122e-02    5.766026e-06
  7.919015e-02    5.762770e-06
  7.948908e-02    5.718665e-06
  7.978801e-02    5.765114e-06
  8.008694e-02    5.768652e-06
  8.038587e-02    5.647252e-06
  8.068480e-02    5.708274e-06
  8.098373e-02    5.797616e-06
  8.128266e-02    5.780877e-06
  8.158159e-02    5.747439e-06
  8.188052e-02    5.742665e-06
  8.217945e-02    5.709623e-06
  8.247838e-02    5.657232e-06
  8.277731e-02    5.643256e-06
  8.307624e-02    5.654825e-06
  8.337518e-02    5.669282e-06
  8.367411e-02    5.639087e-06
  8.397304e-02    5.596912e-06
  8.427197e-02    5.596009e-06
  8.457090e-02    5.641951e-06
  8.486983e-02    5.662752e-06
  8.516876e-02    5.608440e-06
  8.546769e-02    5.586719e-06
  8.576662e-02    5.550065e-06
  8.606555e-02    5.641535e-06
  8.636448e-02    5.657288e-06
  8.666341e-02    5.615392e-06
  8.696234e-02    5.606140e-06
  8.726127e-02    5.593576e-06
  8.756020e-02    5.533635e-06
  8.785913e-02    5.509924e-06
  8.815806e-02    5.533290e-06
  8.845699e-02    5.523063e-06
  8.875592e-02    5.535311e-06
  8.905485e-02    5.508578e-06
  8.935378e-02    5.448637e-06
  8.965271e-02    5.379611e-06
  8.995164e-02    5.402745e-06
  9.025057e-02    5.444698e-06
  9.054950e-02    5.397236e-06
  9.084843e-02    5.456798e-06
  9.114737e-02    5.427553e-06
  9.144630e-02    5.442397e-06
  9.174523e-02    5.440930e-06
  9.204416e-02    5.340779e-06
  9.234309e-02    5.346900e-06
  9.264202e-02    5.337050e-06
  9.294095e-02    5.295415e-06
  9.323988e-02    5.342621e-06
  9.353881e-02    5.339738e-06
  9.383774e-02    5.320048e-06
  9.413667e-02    5.317397e-06
  9.443560e-02    5.322168e-06
  9.473453e-02    5.289240e-06
  9.503346e-02    5.267913e-06
  9.533239e-02    5.250817e-06
  9.563132e-02    5.238576e-06
  9.593025e-02    5.238653e-06
  9.622918e-02    5.275680e-06
  9.652811e-02    5.310269e-06
  9.682704e-02    5.347315e-06
  9.712597e-02    5.362476e-06
  9.742490e-02    5.271144e-06
  9.772383e-02    5.272293e-06
  9.802276e-02    5.258681e-06
  9.832169e-02    5.163108e-06
  9.862062e-02    5.167572e-06
  9.891956e-02    5.217036e-06
  9.921849e-02    5.183805e-06
  9.951742e-02    5.107910e-06
  9.981635e-02    5.084312e-06
  1.001153e-01    5.071132e-06
  1.004142e-01    5.062340e-06
  1.007131e-01    5.095073e-06
  1.010121e-01    5.053268e-06
  1.013110e-01    5.084801e-06
  1.016099e-01    5.046400e-06
  1.019089e-01    5.004978e-06
  1.022078e-01    4.998909e-06
  1.025067e-01    4.959721e-06
  1.028057e-01    5.001117e-06
  1.031046e-01    4.993758e-06
  1.034035e-01    4.964996e-06
  1.037024e-01    4.969510e-06
  1.040014e-01    4.928188e-06
  1.043003e-01    4.874556e-06
  1.045992e-01    4.912807e-06
  1.048982e-01    4.916629e-06
  1.051971e-01    4.945360e-06
  1.054960e-01    4.925800e-06
  1.057950e-01    4.905016e-06
  1.060939e-01    4.888769e-06
  1.063928e-01    4.932465e-06
  1.066917e-01    4.900037e-06
  1.069907e-01    4.900548e-06
  1.072896e-01    4.867285e-06
  1.075885e-01    4.853256e-06
  1.078875e-01    4.883403e-06
  1.081864e-01    4.886416e-06
  1.084853e-01    4.900265e-06
  1.087843e-01    4.888404e-06
  1.090832e-01    4.945720e-06
  1.093821e-01    4.859852e-06
  1.096810e-01    4.774762e-06
  1.099800e-01    4.777288e-06
  1.102789e-01    4.811885e-06
  1.105778e-01    4.830304e-06
  1.108768e-01    4.800056e-06
  1.111757e-01    4.803492e-06
  1.114746e-01    4.721428e-06
  1.117736e-01    4.689188e-06
  1.120725e-01    4.663055e-06
  1.123714e-01    4.703875e-06
  1.126704e-01    4.731833e-06
  1.129693e-01    4.742414e-06
  1.132682e-01    4.714090e-06
  1.135671e-01    4.594624e-06
  1.138661e-01    4.620360e-06
  1.141650e-01    4.676418e-06
  1.144639e-01    4.671915e-06
  1.147629e-01    4.571544e-06
  1.150618e-01    4.655337e-06
  1.153607e-01    4.641173e-06
  1.156597e-01    4.632102e-06
  1.159586e-01    4.574315e-06
  1.162575e-01    4.511501e-06
  1.165564e-01    4.625622e-06
  1.168554e-01    4.649514e-06
  1.171543e-01    4.631924e-06
  1.174532e-01    4.730144e-06
  1.177522e-01    4.718970e-06
  1.180511e-01    4.669072e-06
  1.183500e-01    4.598729e-06
  1.186490e-01    4.541835e-06
  1.189479e-01    4.634814e-06
  1.192468e-01    4.682004e-06
  1.195458e-01    4.573786e-06
  1.198447e-01    4.720280e-06
  1.201436e-01    4.704968e-06
  1.204425e-01    4.429798e-06
  1.207415e-01    4.484484e-06
  1.210404e-01    5.703729e-06
  1.213393e-01    0.000000e+00
  1.216383e-01    0.000000e+00
  1.219372e-01    0.000000e+00
  1.222361e-01    0.000000e+00
  1.225351e-01    0.000000e+00
  1.228340e-01    0.000000e+00
  1.231329e-01    0.000000e+00
  1.234318e-01    0.000000e+00
  1.237308e-01    0.000000e+00
  1.240297e-01    0.000000e+00
  1.243286e-01    0.000000e+00
  1.246276e-01    0.000000e+00
  1.249265e-01    0.000000e+00
  1.252254e-01    0.000000e+00
  1.255244e-01    0.000000e+00
  1.258233e-01    0.000000e+00
  1.261222e-01    0.000000e+00
  1.264212e-01    0.000000e+00
  1.267201e-01    0.000000e+00
  1.270190e-01    0.000000e+00
  1.273179e-01    0.000000e+00
  1.276169e-01    0.000000e+00
  1.279158e-01    0.000000e+00
  1.282147e-01    0.000000e+00
  1.285137e-01    0.000000e+00
  1.288126e-01    0.000000e+00
  1.291115e-01    0.000000e+00
  1.294105e-01    0.000000e+00
  1.297094e-01    0.000000e+00
  1.300083e-01    0.000000e+00
  1.303072e-01    0.000000e+00
  1.306062e-01    0.000000e+00
  1.309051e-01    0.000000e+00
  1.312040e-01    0.000000e+00
  1.315030e-01    0.000000e+00
  1.318019e-01    0.000000e+00
  1.321008e-01    0.000000e+00
  1.323998e-01    0.000000e+00
  1.326987e-01    0.000000e+00
  1.329976e-01    0.000000e+00
  1.332965e-01    0.000000e+00
  1.335955e-01    0.000000e+00
  1.338944e-01    0.000000e+00
  1.341933e-01    0.000000e+00
  1.344923e-01    0.000000e+00
  1.347912e-01    0.000000e+00
  1.350901e-01    0.000000e+00
  1.353891e-01    0.000000e+00
  1.356880e-01    0.000000e+00
  1.359869e-01    0.000000e+00
  1.362859e-01    0.000000e+00
  1.365848e-01    0.000000e+00
  1.368837e-01    0.000000e+00
  1.371826e-01    0.000000e+00
  1.374816e-01    0.000000e+00
  1.377805e-01    0.000000e+00
  1.380794e-01    0.000000e+00
  1.383784e-01    0.000000e+00
  1.386773e-01    0.000000e+00
  1.389762e-01    0.000000e+00
  1.392752e-01    0.000000e+00
  1.395741e-01    0.000000e+00
  1.398730e-01    0.000000e+00
  1.401719e-01    0.000000e+00
  1.404709e-01    0.000000e+00
  1.407698e-01    0.000000e+00
  1.410687e-01    0.000000e+00
  1.413677e-01    0.000000e+00
  1.416666e-01    0.000000e+00
  1.419655e-01    0.000000e+00
  1.422645e-01    0.000000e+00
  1.425634e-01    0.000000e+00
  1.428623e-01    0.000000e+00
  1.431613e-01    0.000000e+00
  1.434602e-01    0.000000e+00
  1.437591e-01    0.000000e+00
  1.440580e-01    0.000000e+00
  1.443570e-01    0.000000e+00
  1.446559e-01    0.000000e+00
  1.449548e-01    0.000000e+00
  1.452538e-01    0.000000e+00
  1.455527e-01    0.000000e+00
  1.458516e-01    0.000000e+00
  1.461506e-01    0.000000e+00
  1.464495e-01    0.000000e+00
  1.467484e-01    0.000000e+00
  1.470473e-01    0.000000e+00
  1.473463e-01    0.000000e+00
  1.476452e-01    0.000000e+00
  1.479441e-01    0.000000e+00
  1.482431e-01    0.000000e+00
  1.485420e-01    0.000000e+00
  1.488409e-01    0.000000e+00
  1.491399e-01    0.000000e+00
  1.494388e-01    0.000000e+00
  1.497377e-01    0.000000e+00
  1.500367e-01    0.000000e+00
  1.503356e-01    0.000000e+00
  1.506345e-01    0.000000e+00
  1.509334e-01    0.000000e+00
  1.512324e-01    0.000000e+00
  1.515313e-01    0.000000e+00
  1.518302e-01    0.000000e+00
  1.521292e-01    0.000000e+00
  1.524281e-01    0.000000e+00
  1.527270e-01    0.000000e+00
  1.530260e-01    0.000000e+00
  1.533249e-01    0.000000e+00
  1.536238e-01    0.000000e+00
