# == pyFAI calibration ==
# Distance Sample to Detector: 2.266 m
# PONI: 5.659e-02, 4.293e-02 m
# Rotations: 0.000000 0.000000 0.000000 rad
# 
# == Fit2d calibration ==
# Distance Sample-beamCenter: 2266.000 mm
# Center: x=249.594, y=329.012 pix
# Tilt: 0.000 deg  TiltPlanRot: 0.000 deg
# 
# Detector Pilatus 300k	 PixelSize= 1.720e-04, 1.720e-04 m
#    Detector has a mask: True 
#    Detector has a dark current: False 
#    detector has a flat field: False 
# 
# Wavelength: 1.27818e-10 m
# Mask applied: user provided
# Dark current applied: False
# Flat field applied: False
# Polarization factor: None
# Normalization factor: 2207765.6
# --> MT-AL_F127_220226_890168c6-143f-41d6-84ea-ccbd49284653_2_r1d.csv
#        q_A^-1             I 
  4.457554e-03    2.390666e-03
  4.756484e-03    1.849481e-03
  5.055415e-03    1.287373e-03
  5.354345e-03    8.980599e-04
  5.653276e-03    6.931077e-04
  5.952206e-03    1.077681e-03
  6.251136e-03    9.927929e-04
  6.550067e-03    8.679694e-04
  6.848997e-03    7.405020e-04
  7.147927e-03    6.275733e-04
  7.446858e-03    5.366668e-04
  7.745788e-03    4.610460e-04
  8.044719e-03    3.977134e-04
  8.343649e-03    3.473172e-04
  8.642579e-03    3.047017e-04
  8.941510e-03    2.680459e-04
  9.240440e-03    2.384518e-04
  9.539371e-03    2.120969e-04
  9.838301e-03    1.878284e-04
  1.013723e-02    1.682816e-04
  1.043616e-02    1.508579e-04
  1.073509e-02    1.352234e-04
  1.103402e-02    1.234440e-04
  1.133295e-02    1.114675e-04
  1.163188e-02    1.013054e-04
  1.193081e-02    9.293855e-05
  1.222974e-02    8.474333e-05
  1.252867e-02    7.781172e-05
  1.282760e-02    7.194904e-05
  1.312654e-02    6.626430e-05
  1.342547e-02    6.082988e-05
  1.372440e-02    5.611039e-05
  1.402333e-02    5.202917e-05
  1.432226e-02    4.843445e-05
  1.462119e-02    4.545775e-05
  1.492012e-02    4.248421e-05
  1.521905e-02    3.946825e-05
  1.551798e-02    3.702126e-05
  1.581691e-02    3.484908e-05
  1.611584e-02    3.269394e-05
  1.641477e-02    3.073642e-05
  1.671370e-02    2.891725e-05
  1.701263e-02    2.765352e-05
  1.731156e-02    2.606445e-05
  1.761049e-02    2.459844e-05
  1.790942e-02    2.335654e-05
  1.820835e-02    2.226457e-05
  1.850728e-02    2.129730e-05
  1.880621e-02    2.014374e-05
  1.910514e-02    1.926848e-05
  1.940407e-02    1.858218e-05
  1.970300e-02    1.782510e-05
  2.000193e-02    1.702244e-05
  2.030086e-02    1.633357e-05
  2.059979e-02    1.585522e-05
  2.089873e-02    1.514681e-05
  2.119766e-02    1.468854e-05
  2.149659e-02    1.428253e-05
  2.179552e-02    1.371741e-05
  2.209445e-02    1.319636e-05
  2.239338e-02    1.292703e-05
  2.269231e-02    1.261097e-05
  2.299124e-02    1.228035e-05
  2.329017e-02    1.189840e-05
  2.358910e-02    1.152945e-05
  2.388803e-02    1.124535e-05
  2.418696e-02    1.095808e-05
  2.448589e-02    1.062435e-05
  2.478482e-02    1.035512e-05
  2.508375e-02    1.021429e-05
  2.538268e-02    1.004451e-05
  2.568161e-02    9.853019e-06
  2.598054e-02    9.652577e-06
  2.627947e-02    9.507633e-06
  2.657840e-02    9.460507e-06
  2.687733e-02    9.364028e-06
  2.717626e-02    9.279297e-06
  2.747519e-02    9.199320e-06
  2.777412e-02    8.978504e-06
  2.807305e-02    8.710112e-06
  2.837198e-02    8.633442e-06
  2.867092e-02    8.576680e-06
  2.896985e-02    8.476918e-06
  2.926878e-02    8.374519e-06
  2.956771e-02    8.267538e-06
  2.986664e-02    8.085903e-06
  3.016557e-02    8.084357e-06
  3.046450e-02    8.056137e-06
  3.076343e-02    7.983804e-06
  3.106236e-02    7.871798e-06
  3.136129e-02    7.712143e-06
  3.166022e-02    7.636625e-06
  3.195915e-02    7.703407e-06
  3.225808e-02    7.612210e-06
  3.255701e-02    7.470760e-06
  3.285594e-02    7.360519e-06
  3.315487e-02    7.324054e-06
  3.345380e-02    7.268861e-06
  3.375273e-02    7.200339e-06
  3.405166e-02    7.115904e-06
  3.435059e-02    7.002151e-06
  3.464952e-02    6.910563e-06
  3.494845e-02    6.794686e-06
  3.524738e-02    6.729463e-06
  3.554631e-02    6.627562e-06
  3.584524e-02    6.563978e-06
  3.614417e-02    6.512797e-06
  3.644310e-02    6.569163e-06
  3.674204e-02    6.494227e-06
  3.704097e-02    6.409856e-06
  3.733990e-02    6.315287e-06
  3.763883e-02    6.229969e-06
  3.793776e-02    6.146839e-06
  3.823669e-02    6.183294e-06
  3.853562e-02    6.169634e-06
  3.883455e-02    6.061501e-06
  3.913348e-02    5.987358e-06
  3.943241e-02    6.035653e-06
  3.973134e-02    5.943252e-06
  4.003027e-02    5.844427e-06
  4.032920e-02    5.814864e-06
  4.062813e-02    5.728138e-06
  4.092706e-02    5.662335e-06
  4.122599e-02    5.650175e-06
  4.152492e-02    5.636636e-06
  4.182385e-02    5.661132e-06
  4.212278e-02    5.623029e-06
  4.242171e-02    5.590237e-06
  4.272064e-02    5.648425e-06
  4.301957e-02    5.616282e-06
  4.331850e-02    5.546238e-06
  4.361743e-02    5.494772e-06
  4.391636e-02    5.551396e-06
  4.421529e-02    5.496936e-06
  4.451423e-02    5.450568e-06
  4.481316e-02    5.492911e-06
  4.511209e-02    5.469423e-06
  4.541102e-02    5.416487e-06
  4.570995e-02    5.366584e-06
  4.600888e-02    5.379666e-06
  4.630781e-02    5.480303e-06
  4.660674e-02    5.434660e-06
  4.690567e-02    5.380981e-06
  4.720460e-02    5.359166e-06
  4.750353e-02    5.337272e-06
  4.780246e-02    5.350050e-06
  4.810139e-02    5.350696e-06
  4.840032e-02    5.393210e-06
  4.869925e-02    5.374692e-06
  4.899818e-02    5.324669e-06
  4.929711e-02    5.297673e-06
  4.959604e-02    5.314022e-06
  4.989497e-02    5.369845e-06
  5.019390e-02    5.407719e-06
  5.049283e-02    5.337909e-06
  5.079176e-02    5.297892e-06
  5.109069e-02    5.370811e-06
  5.138962e-02    5.413825e-06
  5.168855e-02    5.573133e-06
  5.198748e-02    5.766994e-06
  5.228642e-02    5.686284e-06
  5.258535e-02    5.437029e-06
  5.288428e-02    5.306558e-06
  5.318321e-02    5.270729e-06
  5.348214e-02    5.252826e-06
  5.378107e-02    5.238752e-06
  5.408000e-02    5.275082e-06
  5.437893e-02    5.269718e-06
  5.467786e-02    5.301335e-06
  5.497679e-02    5.284359e-06
  5.527572e-02    5.256763e-06
  5.557465e-02    5.172994e-06
  5.587358e-02    5.181037e-06
  5.617251e-02    5.282289e-06
  5.647144e-02    5.311718e-06
  5.677037e-02    5.312836e-06
  5.706930e-02    5.264526e-06
  5.736823e-02    5.247476e-06
  5.766716e-02    5.301073e-06
  5.796609e-02    5.294303e-06
  5.826502e-02    5.241686e-06
  5.856395e-02    5.231073e-06
  5.886288e-02    5.233966e-06
  5.916181e-02    5.255421e-06
  5.946074e-02    5.273817e-06
  5.975967e-02    5.289856e-06
  6.005861e-02    5.311298e-06
  6.035754e-02    5.308778e-06
  6.065647e-02    5.341240e-06
  6.095540e-02    5.409191e-06
  6.125433e-02    5.546888e-06
  6.155326e-02    5.562576e-06
  6.185219e-02    5.431764e-06
  6.215112e-02    5.333309e-06
  6.245005e-02    5.360187e-06
  6.274898e-02    5.337820e-06
  6.304791e-02    5.328724e-06
  6.334684e-02    5.359883e-06
  6.364577e-02    5.352016e-06
  6.394470e-02    5.367051e-06
  6.424363e-02    5.315897e-06
  6.454256e-02    5.386679e-06
  6.484149e-02    5.438607e-06
  6.514042e-02    5.413950e-06
  6.543935e-02    5.382632e-06
  6.573828e-02    5.356622e-06
  6.603721e-02    5.337461e-06
  6.633614e-02    5.440776e-06
  6.663507e-02    5.521729e-06
  6.693400e-02    5.498263e-06
  6.723293e-02    5.497532e-06
  6.753186e-02    5.555105e-06
  6.783080e-02    5.524327e-06
  6.812973e-02    5.477075e-06
  6.842866e-02    5.420460e-06
  6.872759e-02    5.442685e-06
  6.902652e-02    5.473842e-06
  6.932545e-02    5.493559e-06
  6.962438e-02    5.513010e-06
  6.992331e-02    5.533764e-06
  7.022224e-02    5.602481e-06
  7.052117e-02    5.612942e-06
  7.082010e-02    5.553450e-06
  7.111903e-02    5.595653e-06
  7.141796e-02    5.614464e-06
  7.171689e-02    5.636874e-06
  7.201582e-02    5.627899e-06
  7.231475e-02    5.597395e-06
  7.261368e-02    5.617529e-06
  7.291261e-02    5.651228e-06
  7.321154e-02    5.709188e-06
  7.351047e-02    5.663462e-06
  7.380940e-02    5.640547e-06
  7.410833e-02    5.668129e-06
  7.440726e-02    5.599463e-06
  7.470619e-02    5.523111e-06
  7.500512e-02    5.629214e-06
  7.530405e-02    5.676235e-06
  7.560299e-02    5.623496e-06
  7.590192e-02    5.541921e-06
  7.620085e-02    5.593772e-06
  7.649978e-02    5.610631e-06
  7.679871e-02    5.633752e-06
  7.709764e-02    5.629667e-06
  7.739657e-02    5.638522e-06
  7.769550e-02    5.639938e-06
  7.799443e-02    5.644352e-06
  7.829336e-02    5.669909e-06
  7.859229e-02    5.597109e-06
  7.889122e-02    5.519614e-06
  7.919015e-02    5.621638e-06
  7.948908e-02    5.643969e-06
  7.978801e-02    5.619927e-06
  8.008694e-02    5.589859e-06
  8.038587e-02    5.601670e-06
  8.068480e-02    5.603501e-06
  8.098373e-02    5.612251e-06
  8.128266e-02    5.584913e-06
  8.158159e-02    5.575170e-06
  8.188052e-02    5.585277e-06
  8.217945e-02    5.585830e-06
  8.247838e-02    5.541577e-06
  8.277731e-02    5.558357e-06
  8.307624e-02    5.486676e-06
  8.337518e-02    5.416069e-06
  8.367411e-02    5.474985e-06
  8.397304e-02    5.514541e-06
  8.427197e-02    5.535578e-06
  8.457090e-02    5.452237e-06
  8.486983e-02    5.479169e-06
  8.516876e-02    5.494589e-06
  8.546769e-02    5.483733e-06
  8.576662e-02    5.497806e-06
  8.606555e-02    5.494330e-06
  8.636448e-02    5.422283e-06
  8.666341e-02    5.391408e-06
  8.696234e-02    5.460121e-06
  8.726127e-02    5.449550e-06
  8.756020e-02    5.389861e-06
  8.785913e-02    5.390959e-06
  8.815806e-02    5.390896e-06
  8.845699e-02    5.349510e-06
  8.875592e-02    5.357866e-06
  8.905485e-02    5.352231e-06
  8.935378e-02    5.337002e-06
  8.965271e-02    5.262994e-06
  8.995164e-02    5.293528e-06
  9.025057e-02    5.305829e-06
  9.054950e-02    5.299060e-06
  9.084843e-02    5.262587e-06
  9.114737e-02    5.251355e-06
  9.144630e-02    5.237055e-06
  9.174523e-02    5.267561e-06
  9.204416e-02    5.219581e-06
  9.234309e-02    5.232123e-06
  9.264202e-02    5.238207e-06
  9.294095e-02    5.175744e-06
  9.323988e-02    5.155193e-06
  9.353881e-02    5.234472e-06
  9.383774e-02    5.181493e-06
  9.413667e-02    5.129851e-06
  9.443560e-02    5.119472e-06
  9.473453e-02    5.163594e-06
  9.503346e-02    5.126047e-06
  9.533239e-02    5.070528e-06
  9.563132e-02    5.143541e-06
  9.593025e-02    5.190487e-06
  9.622918e-02    5.193831e-06
  9.652811e-02    5.185157e-06
  9.682704e-02    5.217469e-06
  9.712597e-02    5.152989e-06
  9.742490e-02    5.142665e-06
  9.772383e-02    5.189776e-06
  9.802276e-02    5.140199e-06
  9.832169e-02    5.019982e-06
  9.862062e-02    4.996839e-06
  9.891956e-02    5.010332e-06
  9.921849e-02    4.924322e-06
  9.951742e-02    4.850647e-06
  9.981635e-02    4.862100e-06
  1.001153e-01    4.943720e-06
  1.004142e-01    4.975966e-06
  1.007131e-01    4.955677e-06
  1.010121e-01    4.904917e-06
  1.013110e-01    4.881540e-06
  1.016099e-01    4.911840e-06
  1.019089e-01    4.886529e-06
  1.022078e-01    4.893877e-06
  1.025067e-01    4.946159e-06
  1.028057e-01    4.915853e-06
  1.031046e-01    4.840236e-06
  1.034035e-01    4.807418e-06
  1.037024e-01    4.793736e-06
  1.040014e-01    4.855048e-06
  1.043003e-01    4.841099e-06
  1.045992e-01    4.772862e-06
  1.048982e-01    4.824032e-06
  1.051971e-01    4.799073e-06
  1.054960e-01    4.807187e-06
  1.057950e-01    4.841345e-06
  1.060939e-01    4.744109e-06
  1.063928e-01    4.735551e-06
  1.066917e-01    4.778355e-06
  1.069907e-01    4.761041e-06
  1.072896e-01    4.781867e-06
  1.075885e-01    4.731989e-06
  1.078875e-01    4.665852e-06
  1.081864e-01    4.749374e-06
  1.084853e-01    4.793076e-06
  1.087843e-01    4.742246e-06
  1.090832e-01    4.711359e-06
  1.093821e-01    4.646501e-06
  1.096810e-01    4.606763e-06
  1.099800e-01    4.615299e-06
  1.102789e-01    4.597372e-06
  1.105778e-01    4.630597e-06
  1.108768e-01    4.645520e-06
  1.111757e-01    4.614976e-06
  1.114746e-01    4.565471e-06
  1.117736e-01    4.515516e-06
  1.120725e-01    4.561203e-06
  1.123714e-01    4.580832e-06
  1.126704e-01    4.547402e-06
  1.129693e-01    4.564339e-06
  1.132682e-01    4.569984e-06
  1.135671e-01    4.604901e-06
  1.138661e-01    4.590632e-06
  1.141650e-01    4.616049e-06
  1.144639e-01    4.560705e-06
  1.147629e-01    4.433693e-06
  1.150618e-01    4.365821e-06
  1.153607e-01    4.421238e-06
  1.156597e-01    4.495020e-06
  1.159586e-01    4.552005e-06
  1.162575e-01    4.473261e-06
  1.165564e-01    4.482916e-06
  1.168554e-01    4.453750e-06
  1.171543e-01    4.394926e-06
  1.174532e-01    4.460979e-06
  1.177522e-01    4.558447e-06
  1.180511e-01    4.457202e-06
  1.183500e-01    4.487894e-06
  1.186490e-01    4.478249e-06
  1.189479e-01    4.349712e-06
  1.192468e-01    4.295221e-06
  1.195458e-01    4.265507e-06
  1.198447e-01    4.423140e-06
  1.201436e-01    4.536952e-06
  1.204425e-01    4.482989e-06
  1.207415e-01    4.131405e-06
  1.210404e-01    4.986926e-06
  1.213393e-01    0.000000e+00
  1.216383e-01    0.000000e+00
  1.219372e-01    0.000000e+00
  1.222361e-01    0.000000e+00
  1.225351e-01    0.000000e+00
  1.228340e-01    0.000000e+00
  1.231329e-01    0.000000e+00
  1.234318e-01    0.000000e+00
  1.237308e-01    0.000000e+00
  1.240297e-01    0.000000e+00
  1.243286e-01    0.000000e+00
  1.246276e-01    0.000000e+00
  1.249265e-01    0.000000e+00
  1.252254e-01    0.000000e+00
  1.255244e-01    0.000000e+00
  1.258233e-01    0.000000e+00
  1.261222e-01    0.000000e+00
  1.264212e-01    0.000000e+00
  1.267201e-01    0.000000e+00
  1.270190e-01    0.000000e+00
  1.273179e-01    0.000000e+00
  1.276169e-01    0.000000e+00
  1.279158e-01    0.000000e+00
  1.282147e-01    0.000000e+00
  1.285137e-01    0.000000e+00
  1.288126e-01    0.000000e+00
  1.291115e-01    0.000000e+00
  1.294105e-01    0.000000e+00
  1.297094e-01    0.000000e+00
  1.300083e-01    0.000000e+00
  1.303072e-01    0.000000e+00
  1.306062e-01    0.000000e+00
  1.309051e-01    0.000000e+00
  1.312040e-01    0.000000e+00
  1.315030e-01    0.000000e+00
  1.318019e-01    0.000000e+00
  1.321008e-01    0.000000e+00
  1.323998e-01    0.000000e+00
  1.326987e-01    0.000000e+00
  1.329976e-01    0.000000e+00
  1.332965e-01    0.000000e+00
  1.335955e-01    0.000000e+00
  1.338944e-01    0.000000e+00
  1.341933e-01    0.000000e+00
  1.344923e-01    0.000000e+00
  1.347912e-01    0.000000e+00
  1.350901e-01    0.000000e+00
  1.353891e-01    0.000000e+00
  1.356880e-01    0.000000e+00
  1.359869e-01    0.000000e+00
  1.362859e-01    0.000000e+00
  1.365848e-01    0.000000e+00
  1.368837e-01    0.000000e+00
  1.371826e-01    0.000000e+00
  1.374816e-01    0.000000e+00
  1.377805e-01    0.000000e+00
  1.380794e-01    0.000000e+00
  1.383784e-01    0.000000e+00
  1.386773e-01    0.000000e+00
  1.389762e-01    0.000000e+00
  1.392752e-01    0.000000e+00
  1.395741e-01    0.000000e+00
  1.398730e-01    0.000000e+00
  1.401719e-01    0.000000e+00
  1.404709e-01    0.000000e+00
  1.407698e-01    0.000000e+00
  1.410687e-01    0.000000e+00
  1.413677e-01    0.000000e+00
  1.416666e-01    0.000000e+00
  1.419655e-01    0.000000e+00
  1.422645e-01    0.000000e+00
  1.425634e-01    0.000000e+00
  1.428623e-01    0.000000e+00
  1.431613e-01    0.000000e+00
  1.434602e-01    0.000000e+00
  1.437591e-01    0.000000e+00
  1.440580e-01    0.000000e+00
  1.443570e-01    0.000000e+00
  1.446559e-01    0.000000e+00
  1.449548e-01    0.000000e+00
  1.452538e-01    0.000000e+00
  1.455527e-01    0.000000e+00
  1.458516e-01    0.000000e+00
  1.461506e-01    0.000000e+00
  1.464495e-01    0.000000e+00
  1.467484e-01    0.000000e+00
  1.470473e-01    0.000000e+00
  1.473463e-01    0.000000e+00
  1.476452e-01    0.000000e+00
  1.479441e-01    0.000000e+00
  1.482431e-01    0.000000e+00
  1.485420e-01    0.000000e+00
  1.488409e-01    0.000000e+00
  1.491399e-01    0.000000e+00
  1.494388e-01    0.000000e+00
  1.497377e-01    0.000000e+00
  1.500367e-01    0.000000e+00
  1.503356e-01    0.000000e+00
  1.506345e-01    0.000000e+00
  1.509334e-01    0.000000e+00
  1.512324e-01    0.000000e+00
  1.515313e-01    0.000000e+00
  1.518302e-01    0.000000e+00
  1.521292e-01    0.000000e+00
  1.524281e-01    0.000000e+00
  1.527270e-01    0.000000e+00
  1.530260e-01    0.000000e+00
  1.533249e-01    0.000000e+00
  1.536238e-01    0.000000e+00
