# == pyFAI calibration ==
# Distance Sample to Detector: 2.266 m
# PONI: 5.659e-02, 4.293e-02 m
# Rotations: 0.000000 0.000000 0.000000 rad
# 
# == Fit2d calibration ==
# Distance Sample-beamCenter: 2266.000 mm
# Center: x=249.594, y=329.012 pix
# Tilt: 0.000 deg  TiltPlanRot: 0.000 deg
# 
# Detector Pilatus 300k	 PixelSize= 1.720e-04, 1.720e-04 m
#    Detector has a mask: True 
#    Detector has a dark current: False 
#    detector has a flat field: False 
# 
# Wavelength: 1.27818e-10 m
# Mask applied: user provided
# Dark current applied: False
# Flat field applied: False
# Polarization factor: None
# Normalization factor: 17478860.6
# --> MT-AL_F127_220226_cae0bc7d-6808-4317-9190-c459fa1f3c0b_1_r1d.csv
#        q_A^-1             I 
  4.457554e-03    1.810777e-03
  4.756484e-03    1.416241e-03
  5.055415e-03    1.009923e-03
  5.354345e-03    7.119377e-04
  5.653276e-03    5.499839e-04
  5.952206e-03    9.063972e-04
  6.251136e-03    8.256383e-04
  6.550067e-03    7.153176e-04
  6.848997e-03    6.056915e-04
  7.147927e-03    5.103148e-04
  7.446858e-03    4.356363e-04
  7.745788e-03    3.732401e-04
  8.044719e-03    3.215760e-04
  8.343649e-03    2.797913e-04
  8.642579e-03    2.444462e-04
  8.941510e-03    2.152695e-04
  9.240440e-03    1.906109e-04
  9.539371e-03    1.692197e-04
  9.838301e-03    1.505926e-04
  1.013723e-02    1.347699e-04
  1.043616e-02    1.211849e-04
  1.073509e-02    1.090983e-04
  1.103402e-02    9.877796e-05
  1.133295e-02    8.948859e-05
  1.163188e-02    8.135613e-05
  1.193081e-02    7.458346e-05
  1.222974e-02    6.838154e-05
  1.252867e-02    6.264474e-05
  1.282760e-02    5.773025e-05
  1.312654e-02    5.327779e-05
  1.342547e-02    4.931813e-05
  1.372440e-02    4.568905e-05
  1.402333e-02    4.236292e-05
  1.432226e-02    3.946440e-05
  1.462119e-02    3.673740e-05
  1.492012e-02    3.430173e-05
  1.521905e-02    3.207087e-05
  1.551798e-02    3.019938e-05
  1.581691e-02    2.833603e-05
  1.611584e-02    2.660649e-05
  1.641477e-02    2.525734e-05
  1.671370e-02    2.384692e-05
  1.701263e-02    2.256665e-05
  1.731156e-02    2.145014e-05
  1.761049e-02    2.030897e-05
  1.790942e-02    1.929082e-05
  1.820835e-02    1.843421e-05
  1.850728e-02    1.760212e-05
  1.880621e-02    1.681912e-05
  1.910514e-02    1.607461e-05
  1.940407e-02    1.539363e-05
  1.970300e-02    1.486068e-05
  2.000193e-02    1.428763e-05
  2.030086e-02    1.371347e-05
  2.059979e-02    1.321108e-05
  2.089873e-02    1.274336e-05
  2.119766e-02    1.232734e-05
  2.149659e-02    1.191605e-05
  2.179552e-02    1.157396e-05
  2.209445e-02    1.117864e-05
  2.239338e-02    1.082381e-05
  2.269231e-02    1.055300e-05
  2.299124e-02    1.032653e-05
  2.329017e-02    1.002271e-05
  2.358910e-02    9.727061e-06
  2.388803e-02    9.505538e-06
  2.418696e-02    9.311317e-06
  2.448589e-02    9.063098e-06
  2.478482e-02    8.851466e-06
  2.508375e-02    8.725232e-06
  2.538268e-02    8.557462e-06
  2.568161e-02    8.439766e-06
  2.598054e-02    8.296668e-06
  2.627947e-02    8.136422e-06
  2.657840e-02    7.946218e-06
  2.687733e-02    7.810841e-06
  2.717626e-02    7.729034e-06
  2.747519e-02    7.600673e-06
  2.777412e-02    7.481667e-06
  2.807305e-02    7.416185e-06
  2.837198e-02    7.301243e-06
  2.867092e-02    7.194751e-06
  2.896985e-02    7.125384e-06
  2.926878e-02    7.100446e-06
  2.956771e-02    6.969014e-06
  2.986664e-02    6.891551e-06
  3.016557e-02    6.836242e-06
  3.046450e-02    6.743984e-06
  3.076343e-02    6.653338e-06
  3.106236e-02    6.585461e-06
  3.136129e-02    6.531869e-06
  3.166022e-02    6.476092e-06
  3.195915e-02    6.391915e-06
  3.225808e-02    6.364435e-06
  3.255701e-02    6.337908e-06
  3.285594e-02    6.276504e-06
  3.315487e-02    6.185610e-06
  3.345380e-02    6.123375e-06
  3.375273e-02    6.074054e-06
  3.405166e-02    6.004500e-06
  3.435059e-02    5.945487e-06
  3.464952e-02    5.906259e-06
  3.494845e-02    5.837130e-06
  3.524738e-02    5.801037e-06
  3.554631e-02    5.764109e-06
  3.584524e-02    5.706924e-06
  3.614417e-02    5.656295e-06
  3.644310e-02    5.651899e-06
  3.674204e-02    5.609207e-06
  3.704097e-02    5.547602e-06
  3.733990e-02    5.473392e-06
  3.763883e-02    5.417580e-06
  3.793776e-02    5.411589e-06
  3.823669e-02    5.395515e-06
  3.853562e-02    5.369332e-06
  3.883455e-02    5.340313e-06
  3.913348e-02    5.332869e-06
  3.943241e-02    5.283164e-06
  3.973134e-02    5.250263e-06
  4.003027e-02    5.207869e-06
  4.032920e-02    5.190560e-06
  4.062813e-02    5.201962e-06
  4.092706e-02    5.179213e-06
  4.122599e-02    5.123238e-06
  4.152492e-02    5.086528e-06
  4.182385e-02    5.070668e-06
  4.212278e-02    5.078040e-06
  4.242171e-02    5.050717e-06
  4.272064e-02    5.030615e-06
  4.301957e-02    5.021205e-06
  4.331850e-02    4.974150e-06
  4.361743e-02    4.970739e-06
  4.391636e-02    4.998188e-06
  4.421529e-02    5.001006e-06
  4.451423e-02    4.989566e-06
  4.481316e-02    4.965703e-06
  4.511209e-02    4.996536e-06
  4.541102e-02    4.966155e-06
  4.570995e-02    4.955149e-06
  4.600888e-02    4.950792e-06
  4.630781e-02    4.936510e-06
  4.660674e-02    4.950748e-06
  4.690567e-02    4.921278e-06
  4.720460e-02    4.932568e-06
  4.750353e-02    4.932539e-06
  4.780246e-02    4.906365e-06
  4.810139e-02    4.902877e-06
  4.840032e-02    4.905945e-06
  4.869925e-02    4.915358e-06
  4.899818e-02    4.920139e-06
  4.929711e-02    4.907558e-06
  4.959604e-02    4.892917e-06
  4.989497e-02    4.901928e-06
  5.019390e-02    4.919710e-06
  5.049283e-02    4.890653e-06
  5.079176e-02    4.896058e-06
  5.109069e-02    4.917739e-06
  5.138962e-02    4.934382e-06
  5.168855e-02    5.022317e-06
  5.198748e-02    5.116236e-06
  5.228642e-02    5.101931e-06
  5.258535e-02    4.972743e-06
  5.288428e-02    4.897699e-06
  5.318321e-02    4.893464e-06
  5.348214e-02    4.885224e-06
  5.378107e-02    4.899753e-06
  5.408000e-02    4.909494e-06
  5.437893e-02    4.911310e-06
  5.467786e-02    4.910593e-06
  5.497679e-02    4.915247e-06
  5.527572e-02    4.916402e-06
  5.557465e-02    4.906797e-06
  5.587358e-02    4.928617e-06
  5.617251e-02    4.933825e-06
  5.647144e-02    4.932185e-06
  5.677037e-02    4.933810e-06
  5.706930e-02    4.968769e-06
  5.736823e-02    4.980688e-06
  5.766716e-02    4.962452e-06
  5.796609e-02    4.960586e-06
  5.826502e-02    4.960280e-06
  5.856395e-02    4.981792e-06
  5.886288e-02    4.997551e-06
  5.916181e-02    4.976856e-06
  5.946074e-02    4.979568e-06
  5.975967e-02    4.999280e-06
  6.005861e-02    4.979836e-06
  6.035754e-02    5.010569e-06
  6.065647e-02    5.043225e-06
  6.095540e-02    5.098813e-06
  6.125433e-02    5.160967e-06
  6.155326e-02    5.154931e-06
  6.185219e-02    5.108150e-06
  6.215112e-02    5.062149e-06
  6.245005e-02    5.052644e-06
  6.274898e-02    5.063884e-06
  6.304791e-02    5.078204e-06
  6.334684e-02    5.073780e-06
  6.364577e-02    5.065868e-06
  6.394470e-02    5.088088e-06
  6.424363e-02    5.106615e-06
  6.454256e-02    5.097843e-06
  6.484149e-02    5.104500e-06
  6.514042e-02    5.114443e-06
  6.543935e-02    5.148980e-06
  6.573828e-02    5.154679e-06
  6.603721e-02    5.117570e-06
  6.633614e-02    5.135493e-06
  6.663507e-02    5.158140e-06
  6.693400e-02    5.176123e-06
  6.723293e-02    5.189486e-06
  6.753186e-02    5.201466e-06
  6.783080e-02    5.207783e-06
  6.812973e-02    5.187663e-06
  6.842866e-02    5.194758e-06
  6.872759e-02    5.216349e-06
  6.902652e-02    5.223948e-06
  6.932545e-02    5.224410e-06
  6.962438e-02    5.240880e-06
  6.992331e-02    5.250219e-06
  7.022224e-02    5.242588e-06
  7.052117e-02    5.236036e-06
  7.082010e-02    5.249849e-06
  7.111903e-02    5.268831e-06
  7.141796e-02    5.256938e-06
  7.171689e-02    5.266351e-06
  7.201582e-02    5.264765e-06
  7.231475e-02    5.284945e-06
  7.261368e-02    5.290388e-06
  7.291261e-02    5.289531e-06
  7.321154e-02    5.301117e-06
  7.351047e-02    5.288176e-06
  7.380940e-02    5.304888e-06
  7.410833e-02    5.301124e-06
  7.440726e-02    5.301404e-06
  7.470619e-02    5.298782e-06
  7.500512e-02    5.306338e-06
  7.530405e-02    5.319208e-06
  7.560299e-02    5.301555e-06
  7.590192e-02    5.311779e-06
  7.620085e-02    5.311146e-06
  7.649978e-02    5.306885e-06
  7.679871e-02    5.303490e-06
  7.709764e-02    5.301782e-06
  7.739657e-02    5.291249e-06
  7.769550e-02    5.274861e-06
  7.799443e-02    5.284877e-06
  7.829336e-02    5.293160e-06
  7.859229e-02    5.276776e-06
  7.889122e-02    5.255287e-06
  7.919015e-02    5.267984e-06
  7.948908e-02    5.251718e-06
  7.978801e-02    5.251368e-06
  8.008694e-02    5.257361e-06
  8.038587e-02    5.256697e-06
  8.068480e-02    5.262652e-06
  8.098373e-02    5.272953e-06
  8.128266e-02    5.250691e-06
  8.158159e-02    5.247211e-06
  8.188052e-02    5.269712e-06
  8.217945e-02    5.252713e-06
  8.247838e-02    5.224291e-06
  8.277731e-02    5.231378e-06
  8.307624e-02    5.214784e-06
  8.337518e-02    5.206967e-06
  8.367411e-02    5.193051e-06
  8.397304e-02    5.196331e-06
  8.427197e-02    5.200518e-06
  8.457090e-02    5.195619e-06
  8.486983e-02    5.190739e-06
  8.516876e-02    5.184703e-06
  8.546769e-02    5.177531e-06
  8.576662e-02    5.155823e-06
  8.606555e-02    5.139587e-06
  8.636448e-02    5.146440e-06
  8.666341e-02    5.135113e-06
  8.696234e-02    5.130593e-06
  8.726127e-02    5.108863e-06
  8.756020e-02    5.097073e-06
  8.785913e-02    5.102327e-06
  8.815806e-02    5.086724e-06
  8.845699e-02    5.068422e-06
  8.875592e-02    5.063242e-06
  8.905485e-02    5.053332e-06
  8.935378e-02    5.076708e-06
  8.965271e-02    5.056336e-06
  8.995164e-02    5.026933e-06
  9.025057e-02    5.019053e-06
  9.054950e-02    4.992788e-06
  9.084843e-02    4.985173e-06
  9.114737e-02    4.981486e-06
  9.144630e-02    4.962106e-06
  9.174523e-02    4.958563e-06
  9.204416e-02    4.946224e-06
  9.234309e-02    4.951331e-06
  9.264202e-02    4.938593e-06
  9.294095e-02    4.944874e-06
  9.323988e-02    4.941334e-06
  9.353881e-02    4.926184e-06
  9.383774e-02    4.911219e-06
  9.413667e-02    4.902048e-06
  9.443560e-02    4.899609e-06
  9.473453e-02    4.896723e-06
  9.503346e-02    4.895461e-06
  9.533239e-02    4.872392e-06
  9.563132e-02    4.852249e-06
  9.593025e-02    4.873964e-06
  9.622918e-02    4.874557e-06
  9.652811e-02    4.866367e-06
  9.682704e-02    4.869813e-06
  9.712597e-02    4.877256e-06
  9.742490e-02    4.859161e-06
  9.772383e-02    4.846927e-06
  9.802276e-02    4.829988e-06
  9.832169e-02    4.814842e-06
  9.862062e-02    4.773477e-06
  9.891956e-02    4.753254e-06
  9.921849e-02    4.752955e-06
  9.951742e-02    4.762141e-06
  9.981635e-02    4.740431e-06
  1.001153e-01    4.745641e-06
  1.004142e-01    4.730091e-06
  1.007131e-01    4.699625e-06
  1.010121e-01    4.685068e-06
  1.013110e-01    4.684982e-06
  1.016099e-01    4.666179e-06
  1.019089e-01    4.659889e-06
  1.022078e-01    4.661531e-06
  1.025067e-01    4.657217e-06
  1.028057e-01    4.658283e-06
  1.031046e-01    4.635257e-06
  1.034035e-01    4.618220e-06
  1.037024e-01    4.618731e-06
  1.040014e-01    4.592950e-06
  1.043003e-01    4.587730e-06
  1.045992e-01    4.596207e-06
  1.048982e-01    4.584170e-06
  1.051971e-01    4.565426e-06
  1.054960e-01    4.550827e-06
  1.057950e-01    4.542253e-06
  1.060939e-01    4.532344e-06
  1.063928e-01    4.526927e-06
  1.066917e-01    4.517103e-06
  1.069907e-01    4.518683e-06
  1.072896e-01    4.494486e-06
  1.075885e-01    4.482757e-06
  1.078875e-01    4.473106e-06
  1.081864e-01    4.496269e-06
  1.084853e-01    4.498768e-06
  1.087843e-01    4.473366e-06
  1.090832e-01    4.464333e-06
  1.093821e-01    4.456670e-06
  1.096810e-01    4.451193e-06
  1.099800e-01    4.427493e-06
  1.102789e-01    4.419173e-06
  1.105778e-01    4.396710e-06
  1.108768e-01    4.376293e-06
  1.111757e-01    4.389346e-06
  1.114746e-01    4.384770e-06
  1.117736e-01    4.357088e-06
  1.120725e-01    4.361288e-06
  1.123714e-01    4.373535e-06
  1.126704e-01    4.351428e-06
  1.129693e-01    4.296171e-06
  1.132682e-01    4.261843e-06
  1.135671e-01    4.261432e-06
  1.138661e-01    4.248348e-06
  1.141650e-01    4.267592e-06
  1.144639e-01    4.294760e-06
  1.147629e-01    4.266813e-06
  1.150618e-01    4.233156e-06
  1.153607e-01    4.227137e-06
  1.156597e-01    4.216414e-06
  1.159586e-01    4.222934e-06
  1.162575e-01    4.206717e-06
  1.165564e-01    4.179893e-06
  1.168554e-01    4.160526e-06
  1.171543e-01    4.184656e-06
  1.174532e-01    4.176274e-06
  1.177522e-01    4.169008e-06
  1.180511e-01    4.185755e-06
  1.183500e-01    4.145154e-06
  1.186490e-01    4.111895e-06
  1.189479e-01    4.139009e-06
  1.192468e-01    4.150123e-06
  1.195458e-01    4.201745e-06
  1.198447e-01    4.226481e-06
  1.201436e-01    4.212505e-06
  1.204425e-01    4.184419e-06
  1.207415e-01    4.079127e-06
  1.210404e-01    3.664883e-06
  1.213393e-01    0.000000e+00
  1.216383e-01    0.000000e+00
  1.219372e-01    0.000000e+00
  1.222361e-01    0.000000e+00
  1.225351e-01    0.000000e+00
  1.228340e-01    0.000000e+00
  1.231329e-01    0.000000e+00
  1.234318e-01    0.000000e+00
  1.237308e-01    0.000000e+00
  1.240297e-01    0.000000e+00
  1.243286e-01    0.000000e+00
  1.246276e-01    0.000000e+00
  1.249265e-01    0.000000e+00
  1.252254e-01    0.000000e+00
  1.255244e-01    0.000000e+00
  1.258233e-01    0.000000e+00
  1.261222e-01    0.000000e+00
  1.264212e-01    0.000000e+00
  1.267201e-01    0.000000e+00
  1.270190e-01    0.000000e+00
  1.273179e-01    0.000000e+00
  1.276169e-01    0.000000e+00
  1.279158e-01    0.000000e+00
  1.282147e-01    0.000000e+00
  1.285137e-01    0.000000e+00
  1.288126e-01    0.000000e+00
  1.291115e-01    0.000000e+00
  1.294105e-01    0.000000e+00
  1.297094e-01    0.000000e+00
  1.300083e-01    0.000000e+00
  1.303072e-01    0.000000e+00
  1.306062e-01    0.000000e+00
  1.309051e-01    0.000000e+00
  1.312040e-01    0.000000e+00
  1.315030e-01    0.000000e+00
  1.318019e-01    0.000000e+00
  1.321008e-01    0.000000e+00
  1.323998e-01    0.000000e+00
  1.326987e-01    0.000000e+00
  1.329976e-01    0.000000e+00
  1.332965e-01    0.000000e+00
  1.335955e-01    0.000000e+00
  1.338944e-01    0.000000e+00
  1.341933e-01    0.000000e+00
  1.344923e-01    0.000000e+00
  1.347912e-01    0.000000e+00
  1.350901e-01    0.000000e+00
  1.353891e-01    0.000000e+00
  1.356880e-01    0.000000e+00
  1.359869e-01    0.000000e+00
  1.362859e-01    0.000000e+00
  1.365848e-01    0.000000e+00
  1.368837e-01    0.000000e+00
  1.371826e-01    0.000000e+00
  1.374816e-01    0.000000e+00
  1.377805e-01    0.000000e+00
  1.380794e-01    0.000000e+00
  1.383784e-01    0.000000e+00
  1.386773e-01    0.000000e+00
  1.389762e-01    0.000000e+00
  1.392752e-01    0.000000e+00
  1.395741e-01    0.000000e+00
  1.398730e-01    0.000000e+00
  1.401719e-01    0.000000e+00
  1.404709e-01    0.000000e+00
  1.407698e-01    0.000000e+00
  1.410687e-01    0.000000e+00
  1.413677e-01    0.000000e+00
  1.416666e-01    0.000000e+00
  1.419655e-01    0.000000e+00
  1.422645e-01    0.000000e+00
  1.425634e-01    0.000000e+00
  1.428623e-01    0.000000e+00
  1.431613e-01    0.000000e+00
  1.434602e-01    0.000000e+00
  1.437591e-01    0.000000e+00
  1.440580e-01    0.000000e+00
  1.443570e-01    0.000000e+00
  1.446559e-01    0.000000e+00
  1.449548e-01    0.000000e+00
  1.452538e-01    0.000000e+00
  1.455527e-01    0.000000e+00
  1.458516e-01    0.000000e+00
  1.461506e-01    0.000000e+00
  1.464495e-01    0.000000e+00
  1.467484e-01    0.000000e+00
  1.470473e-01    0.000000e+00
  1.473463e-01    0.000000e+00
  1.476452e-01    0.000000e+00
  1.479441e-01    0.000000e+00
  1.482431e-01    0.000000e+00
  1.485420e-01    0.000000e+00
  1.488409e-01    0.000000e+00
  1.491399e-01    0.000000e+00
  1.494388e-01    0.000000e+00
  1.497377e-01    0.000000e+00
  1.500367e-01    0.000000e+00
  1.503356e-01    0.000000e+00
  1.506345e-01    0.000000e+00
  1.509334e-01    0.000000e+00
  1.512324e-01    0.000000e+00
  1.515313e-01    0.000000e+00
  1.518302e-01    0.000000e+00
  1.521292e-01    0.000000e+00
  1.524281e-01    0.000000e+00
  1.527270e-01    0.000000e+00
  1.530260e-01    0.000000e+00
  1.533249e-01    0.000000e+00
  1.536238e-01    0.000000e+00
