# == pyFAI calibration ==
# Distance Sample to Detector: 2.266 m
# PONI: 5.659e-02, 4.293e-02 m
# Rotations: 0.000000 0.000000 0.000000 rad
# 
# == Fit2d calibration ==
# Distance Sample-beamCenter: 2266.000 mm
# Center: x=249.594, y=329.012 pix
# Tilt: 0.000 deg  TiltPlanRot: 0.000 deg
# 
# Detector Pilatus 300k	 PixelSize= 1.720e-04, 1.720e-04 m
#    Detector has a mask: True 
#    Detector has a dark current: False 
#    detector has a flat field: False 
# 
# Wavelength: 1.27818e-10 m
# Mask applied: user provided
# Dark current applied: False
# Flat field applied: False
# Polarization factor: None
# Normalization factor: 6792846.600000001
# --> MT-AL_F127_220226_78baf016-7e37-4e65-ad32-e0a457b2a8f4_2_r1d.csv
#        q_A^-1             I 
  4.457554e-03    2.041465e-03
  4.756484e-03    1.576800e-03
  5.055415e-03    1.102860e-03
  5.354345e-03    7.660796e-04
  5.653276e-03    5.852237e-04
  5.952206e-03    9.586773e-04
  6.251136e-03    8.753335e-04
  6.550067e-03    7.613153e-04
  6.848997e-03    6.491087e-04
  7.147927e-03    5.483860e-04
  7.446858e-03    4.685928e-04
  7.745788e-03    4.009704e-04
  8.044719e-03    3.446644e-04
  8.343649e-03    3.011476e-04
  8.642579e-03    2.634943e-04
  8.941510e-03    2.316504e-04
  9.240440e-03    2.061612e-04
  9.539371e-03    1.827924e-04
  9.838301e-03    1.622747e-04
  1.013723e-02    1.455852e-04
  1.043616e-02    1.302428e-04
  1.073509e-02    1.167084e-04
  1.103402e-02    1.062753e-04
  1.133295e-02    9.649786e-05
  1.163188e-02    8.740513e-05
  1.193081e-02    7.992851e-05
  1.222974e-02    7.339186e-05
  1.252867e-02    6.699440e-05
  1.282760e-02    6.150849e-05
  1.312654e-02    5.701603e-05
  1.342547e-02    5.285729e-05
  1.372440e-02    4.880580e-05
  1.402333e-02    4.524677e-05
  1.432226e-02    4.215460e-05
  1.462119e-02    3.931328e-05
  1.492012e-02    3.669673e-05
  1.521905e-02    3.424875e-05
  1.551798e-02    3.217742e-05
  1.581691e-02    3.034206e-05
  1.611584e-02    2.870835e-05
  1.641477e-02    2.702009e-05
  1.671370e-02    2.546731e-05
  1.701263e-02    2.409683e-05
  1.731156e-02    2.280422e-05
  1.761049e-02    2.171317e-05
  1.790942e-02    2.072431e-05
  1.820835e-02    1.963772e-05
  1.850728e-02    1.872956e-05
  1.880621e-02    1.800046e-05
  1.910514e-02    1.715039e-05
  1.940407e-02    1.648750e-05
  1.970300e-02    1.583064e-05
  2.000193e-02    1.517896e-05
  2.030086e-02    1.463259e-05
  2.059979e-02    1.411777e-05
  2.089873e-02    1.360332e-05
  2.119766e-02    1.317924e-05
  2.149659e-02    1.272067e-05
  2.179552e-02    1.231802e-05
  2.209445e-02    1.195320e-05
  2.239338e-02    1.163259e-05
  2.269231e-02    1.132167e-05
  2.299124e-02    1.105747e-05
  2.329017e-02    1.073707e-05
  2.358910e-02    1.039940e-05
  2.388803e-02    1.017298e-05
  2.418696e-02    9.917233e-06
  2.448589e-02    9.711965e-06
  2.478482e-02    9.570512e-06
  2.508375e-02    9.301438e-06
  2.538268e-02    9.097284e-06
  2.568161e-02    8.992104e-06
  2.598054e-02    8.796763e-06
  2.627947e-02    8.653511e-06
  2.657840e-02    8.548990e-06
  2.687733e-02    8.393672e-06
  2.717626e-02    8.329594e-06
  2.747519e-02    8.198065e-06
  2.777412e-02    7.996577e-06
  2.807305e-02    7.966210e-06
  2.837198e-02    7.871749e-06
  2.867092e-02    7.760626e-06
  2.896985e-02    7.685760e-06
  2.926878e-02    7.560105e-06
  2.956771e-02    7.460614e-06
  2.986664e-02    7.362401e-06
  3.016557e-02    7.313678e-06
  3.046450e-02    7.241567e-06
  3.076343e-02    7.223230e-06
  3.106236e-02    7.171649e-06
  3.136129e-02    7.034853e-06
  3.166022e-02    6.964112e-06
  3.195915e-02    6.957257e-06
  3.225808e-02    6.883503e-06
  3.255701e-02    6.794230e-06
  3.285594e-02    6.681893e-06
  3.315487e-02    6.606471e-06
  3.345380e-02    6.626311e-06
  3.375273e-02    6.496588e-06
  3.405166e-02    6.441116e-06
  3.435059e-02    6.369183e-06
  3.464952e-02    6.288073e-06
  3.494845e-02    6.281713e-06
  3.524738e-02    6.210870e-06
  3.554631e-02    6.134369e-06
  3.584524e-02    6.077325e-06
  3.614417e-02    6.019899e-06
  3.644310e-02    5.996323e-06
  3.674204e-02    5.945973e-06
  3.704097e-02    5.902021e-06
  3.733990e-02    5.801084e-06
  3.763883e-02    5.741350e-06
  3.793776e-02    5.707869e-06
  3.823669e-02    5.692510e-06
  3.853562e-02    5.692676e-06
  3.883455e-02    5.659815e-06
  3.913348e-02    5.579607e-06
  3.943241e-02    5.561600e-06
  3.973134e-02    5.519736e-06
  4.003027e-02    5.474599e-06
  4.032920e-02    5.413250e-06
  4.062813e-02    5.377519e-06
  4.092706e-02    5.357180e-06
  4.122599e-02    5.358769e-06
  4.152492e-02    5.334662e-06
  4.182385e-02    5.335009e-06
  4.212278e-02    5.276919e-06
  4.242171e-02    5.221363e-06
  4.272064e-02    5.234212e-06
  4.301957e-02    5.242141e-06
  4.331850e-02    5.249825e-06
  4.361743e-02    5.264978e-06
  4.391636e-02    5.215892e-06
  4.421529e-02    5.172454e-06
  4.451423e-02    5.168741e-06
  4.481316e-02    5.161653e-06
  4.511209e-02    5.150101e-06
  4.541102e-02    5.130767e-06
  4.570995e-02    5.144101e-06
  4.600888e-02    5.116415e-06
  4.630781e-02    5.114073e-06
  4.660674e-02    5.147002e-06
  4.690567e-02    5.107763e-06
  4.720460e-02    5.095721e-06
  4.750353e-02    5.090611e-06
  4.780246e-02    5.112689e-06
  4.810139e-02    5.114990e-06
  4.840032e-02    5.094640e-06
  4.869925e-02    5.086806e-06
  4.899818e-02    5.071742e-06
  4.929711e-02    5.066173e-06
  4.959604e-02    5.069376e-06
  4.989497e-02    5.063029e-06
  5.019390e-02    5.062368e-06
  5.049283e-02    5.079413e-06
  5.079176e-02    5.090803e-06
  5.109069e-02    5.096654e-06
  5.138962e-02    5.139432e-06
  5.168855e-02    5.225172e-06
  5.198748e-02    5.341410e-06
  5.228642e-02    5.277407e-06
  5.258535e-02    5.122427e-06
  5.288428e-02    5.013577e-06
  5.318321e-02    5.039825e-06
  5.348214e-02    5.019803e-06
  5.378107e-02    4.984940e-06
  5.408000e-02    4.995223e-06
  5.437893e-02    5.030011e-06
  5.467786e-02    5.028473e-06
  5.497679e-02    5.029162e-06
  5.527572e-02    5.051158e-06
  5.557465e-02    5.009366e-06
  5.587358e-02    5.006572e-06
  5.617251e-02    5.006193e-06
  5.647144e-02    5.049849e-06
  5.677037e-02    5.092897e-06
  5.706930e-02    5.081321e-06
  5.736823e-02    5.067681e-06
  5.766716e-02    5.008332e-06
  5.796609e-02    5.042518e-06
  5.826502e-02    5.077300e-06
  5.856395e-02    5.078160e-06
  5.886288e-02    5.059717e-06
  5.916181e-02    5.009350e-06
  5.946074e-02    5.059811e-06
  5.975967e-02    5.101449e-06
  6.005861e-02    5.099839e-06
  6.035754e-02    5.130797e-06
  6.065647e-02    5.168810e-06
  6.095540e-02    5.189468e-06
  6.125433e-02    5.267831e-06
  6.155326e-02    5.290679e-06
  6.185219e-02    5.218150e-06
  6.215112e-02    5.197274e-06
  6.245005e-02    5.174383e-06
  6.274898e-02    5.137544e-06
  6.304791e-02    5.136039e-06
  6.334684e-02    5.148593e-06
  6.364577e-02    5.199559e-06
  6.394470e-02    5.226039e-06
  6.424363e-02    5.237084e-06
  6.454256e-02    5.227761e-06
  6.484149e-02    5.233392e-06
  6.514042e-02    5.227119e-06
  6.543935e-02    5.226914e-06
  6.573828e-02    5.245455e-06
  6.603721e-02    5.282785e-06
  6.633614e-02    5.285349e-06
  6.663507e-02    5.274694e-06
  6.693400e-02    5.290385e-06
  6.723293e-02    5.304357e-06
  6.753186e-02    5.302770e-06
  6.783080e-02    5.303122e-06
  6.812973e-02    5.320981e-06
  6.842866e-02    5.354146e-06
  6.872759e-02    5.353549e-06
  6.902652e-02    5.349120e-06
  6.932545e-02    5.354833e-06
  6.962438e-02    5.371679e-06
  6.992331e-02    5.406688e-06
  7.022224e-02    5.412652e-06
  7.052117e-02    5.376829e-06
  7.082010e-02    5.386298e-06
  7.111903e-02    5.409376e-06
  7.141796e-02    5.432236e-06
  7.171689e-02    5.387598e-06
  7.201582e-02    5.396091e-06
  7.231475e-02    5.433615e-06
  7.261368e-02    5.420252e-06
  7.291261e-02    5.444840e-06
  7.321154e-02    5.454710e-06
  7.351047e-02    5.470726e-06
  7.380940e-02    5.454192e-06
  7.410833e-02    5.448022e-06
  7.440726e-02    5.453066e-06
  7.470619e-02    5.458910e-06
  7.500512e-02    5.430542e-06
  7.530405e-02    5.436082e-06
  7.560299e-02    5.455478e-06
  7.590192e-02    5.428303e-06
  7.620085e-02    5.431469e-06
  7.649978e-02    5.443694e-06
  7.679871e-02    5.434573e-06
  7.709764e-02    5.440940e-06
  7.739657e-02    5.448206e-06
  7.769550e-02    5.475137e-06
  7.799443e-02    5.483947e-06
  7.829336e-02    5.477762e-06
  7.859229e-02    5.441356e-06
  7.889122e-02    5.446280e-06
  7.919015e-02    5.470076e-06
  7.948908e-02    5.442691e-06
  7.978801e-02    5.418147e-06
  8.008694e-02    5.436637e-06
  8.038587e-02    5.465173e-06
  8.068480e-02    5.462122e-06
  8.098373e-02    5.421894e-06
  8.128266e-02    5.397948e-06
  8.158159e-02    5.402629e-06
  8.188052e-02    5.383508e-06
  8.217945e-02    5.390207e-06
  8.247838e-02    5.407646e-06
  8.277731e-02    5.397176e-06
  8.307624e-02    5.380479e-06
  8.337518e-02    5.388281e-06
  8.367411e-02    5.377250e-06
  8.397304e-02    5.338656e-06
  8.427197e-02    5.326230e-06
  8.457090e-02    5.324542e-06
  8.486983e-02    5.341746e-06
  8.516876e-02    5.319026e-06
  8.546769e-02    5.280038e-06
  8.576662e-02    5.275527e-06
  8.606555e-02    5.299244e-06
  8.636448e-02    5.282810e-06
  8.666341e-02    5.283431e-06
  8.696234e-02    5.296725e-06
  8.726127e-02    5.280600e-06
  8.756020e-02    5.252392e-06
  8.785913e-02    5.242198e-06
  8.815806e-02    5.244948e-06
  8.845699e-02    5.218037e-06
  8.875592e-02    5.214068e-06
  8.905485e-02    5.209759e-06
  8.935378e-02    5.201940e-06
  8.965271e-02    5.212662e-06
  8.995164e-02    5.182137e-06
  9.025057e-02    5.153778e-06
  9.054950e-02    5.160952e-06
  9.084843e-02    5.139793e-06
  9.114737e-02    5.119959e-06
  9.144630e-02    5.111410e-06
  9.174523e-02    5.109861e-06
  9.204416e-02    5.106061e-06
  9.234309e-02    5.091657e-06
  9.264202e-02    5.056724e-06
  9.294095e-02    5.075926e-06
  9.323988e-02    5.093796e-06
  9.353881e-02    5.085670e-06
  9.383774e-02    5.068766e-06
  9.413667e-02    5.025508e-06
  9.443560e-02    5.016012e-06
  9.473453e-02    5.048049e-06
  9.503346e-02    5.049486e-06
  9.533239e-02    5.023093e-06
  9.563132e-02    5.008664e-06
  9.593025e-02    5.000874e-06
  9.622918e-02    5.035959e-06
  9.652811e-02    5.053359e-06
  9.682704e-02    5.050589e-06
  9.712597e-02    5.042201e-06
  9.742490e-02    5.030950e-06
  9.772383e-02    5.007369e-06
  9.802276e-02    4.955604e-06
  9.832169e-02    4.933410e-06
  9.862062e-02    4.921756e-06
  9.891956e-02    4.897754e-06
  9.921849e-02    4.873173e-06
  9.951742e-02    4.874118e-06
  9.981635e-02    4.883642e-06
  1.001153e-01    4.827326e-06
  1.004142e-01    4.819223e-06
  1.007131e-01    4.801913e-06
  1.010121e-01    4.782685e-06
  1.013110e-01    4.830675e-06
  1.016099e-01    4.812348e-06
  1.019089e-01    4.786642e-06
  1.022078e-01    4.799547e-06
  1.025067e-01    4.788736e-06
  1.028057e-01    4.784168e-06
  1.031046e-01    4.762562e-06
  1.034035e-01    4.750234e-06
  1.037024e-01    4.713597e-06
  1.040014e-01    4.722339e-06
  1.043003e-01    4.713677e-06
  1.045992e-01    4.699890e-06
  1.048982e-01    4.709415e-06
  1.051971e-01    4.689208e-06
  1.054960e-01    4.682438e-06
  1.057950e-01    4.667254e-06
  1.060939e-01    4.650176e-06
  1.063928e-01    4.659888e-06
  1.066917e-01    4.677480e-06
  1.069907e-01    4.682026e-06
  1.072896e-01    4.674483e-06
  1.075885e-01    4.638310e-06
  1.078875e-01    4.620863e-06
  1.081864e-01    4.628958e-06
  1.084853e-01    4.628196e-06
  1.087843e-01    4.641510e-06
  1.090832e-01    4.628872e-06
  1.093821e-01    4.579508e-06
  1.096810e-01    4.543237e-06
  1.099800e-01    4.558426e-06
  1.102789e-01    4.550002e-06
  1.105778e-01    4.509502e-06
  1.108768e-01    4.525290e-06
  1.111757e-01    4.494828e-06
  1.114746e-01    4.478080e-06
  1.117736e-01    4.502178e-06
  1.120725e-01    4.495399e-06
  1.123714e-01    4.495650e-06
  1.126704e-01    4.496384e-06
  1.129693e-01    4.451808e-06
  1.132682e-01    4.401579e-06
  1.135671e-01    4.421610e-06
  1.138661e-01    4.416993e-06
  1.141650e-01    4.369745e-06
  1.144639e-01    4.399374e-06
  1.147629e-01    4.416179e-06
  1.150618e-01    4.362490e-06
  1.153607e-01    4.360848e-06
  1.156597e-01    4.329401e-06
  1.159586e-01    4.262446e-06
  1.162575e-01    4.212576e-06
  1.165564e-01    4.257775e-06
  1.168554e-01    4.349491e-06
  1.171543e-01    4.393512e-06
  1.174532e-01    4.381057e-06
  1.177522e-01    4.380292e-06
  1.180511e-01    4.334551e-06
  1.183500e-01    4.342043e-06
  1.186490e-01    4.305756e-06
  1.189479e-01    4.255384e-06
  1.192468e-01    4.304853e-06
  1.195458e-01    4.294364e-06
  1.198447e-01    4.299727e-06
  1.201436e-01    4.307374e-06
  1.204425e-01    4.114944e-06
  1.207415e-01    3.797926e-06
  1.210404e-01    4.125717e-06
  1.213393e-01    0.000000e+00
  1.216383e-01    0.000000e+00
  1.219372e-01    0.000000e+00
  1.222361e-01    0.000000e+00
  1.225351e-01    0.000000e+00
  1.228340e-01    0.000000e+00
  1.231329e-01    0.000000e+00
  1.234318e-01    0.000000e+00
  1.237308e-01    0.000000e+00
  1.240297e-01    0.000000e+00
  1.243286e-01    0.000000e+00
  1.246276e-01    0.000000e+00
  1.249265e-01    0.000000e+00
  1.252254e-01    0.000000e+00
  1.255244e-01    0.000000e+00
  1.258233e-01    0.000000e+00
  1.261222e-01    0.000000e+00
  1.264212e-01    0.000000e+00
  1.267201e-01    0.000000e+00
  1.270190e-01    0.000000e+00
  1.273179e-01    0.000000e+00
  1.276169e-01    0.000000e+00
  1.279158e-01    0.000000e+00
  1.282147e-01    0.000000e+00
  1.285137e-01    0.000000e+00
  1.288126e-01    0.000000e+00
  1.291115e-01    0.000000e+00
  1.294105e-01    0.000000e+00
  1.297094e-01    0.000000e+00
  1.300083e-01    0.000000e+00
  1.303072e-01    0.000000e+00
  1.306062e-01    0.000000e+00
  1.309051e-01    0.000000e+00
  1.312040e-01    0.000000e+00
  1.315030e-01    0.000000e+00
  1.318019e-01    0.000000e+00
  1.321008e-01    0.000000e+00
  1.323998e-01    0.000000e+00
  1.326987e-01    0.000000e+00
  1.329976e-01    0.000000e+00
  1.332965e-01    0.000000e+00
  1.335955e-01    0.000000e+00
  1.338944e-01    0.000000e+00
  1.341933e-01    0.000000e+00
  1.344923e-01    0.000000e+00
  1.347912e-01    0.000000e+00
  1.350901e-01    0.000000e+00
  1.353891e-01    0.000000e+00
  1.356880e-01    0.000000e+00
  1.359869e-01    0.000000e+00
  1.362859e-01    0.000000e+00
  1.365848e-01    0.000000e+00
  1.368837e-01    0.000000e+00
  1.371826e-01    0.000000e+00
  1.374816e-01    0.000000e+00
  1.377805e-01    0.000000e+00
  1.380794e-01    0.000000e+00
  1.383784e-01    0.000000e+00
  1.386773e-01    0.000000e+00
  1.389762e-01    0.000000e+00
  1.392752e-01    0.000000e+00
  1.395741e-01    0.000000e+00
  1.398730e-01    0.000000e+00
  1.401719e-01    0.000000e+00
  1.404709e-01    0.000000e+00
  1.407698e-01    0.000000e+00
  1.410687e-01    0.000000e+00
  1.413677e-01    0.000000e+00
  1.416666e-01    0.000000e+00
  1.419655e-01    0.000000e+00
  1.422645e-01    0.000000e+00
  1.425634e-01    0.000000e+00
  1.428623e-01    0.000000e+00
  1.431613e-01    0.000000e+00
  1.434602e-01    0.000000e+00
  1.437591e-01    0.000000e+00
  1.440580e-01    0.000000e+00
  1.443570e-01    0.000000e+00
  1.446559e-01    0.000000e+00
  1.449548e-01    0.000000e+00
  1.452538e-01    0.000000e+00
  1.455527e-01    0.000000e+00
  1.458516e-01    0.000000e+00
  1.461506e-01    0.000000e+00
  1.464495e-01    0.000000e+00
  1.467484e-01    0.000000e+00
  1.470473e-01    0.000000e+00
  1.473463e-01    0.000000e+00
  1.476452e-01    0.000000e+00
  1.479441e-01    0.000000e+00
  1.482431e-01    0.000000e+00
  1.485420e-01    0.000000e+00
  1.488409e-01    0.000000e+00
  1.491399e-01    0.000000e+00
  1.494388e-01    0.000000e+00
  1.497377e-01    0.000000e+00
  1.500367e-01    0.000000e+00
  1.503356e-01    0.000000e+00
  1.506345e-01    0.000000e+00
  1.509334e-01    0.000000e+00
  1.512324e-01    0.000000e+00
  1.515313e-01    0.000000e+00
  1.518302e-01    0.000000e+00
  1.521292e-01    0.000000e+00
  1.524281e-01    0.000000e+00
  1.527270e-01    0.000000e+00
  1.530260e-01    0.000000e+00
  1.533249e-01    0.000000e+00
  1.536238e-01    0.000000e+00
