# == pyFAI calibration ==
# Distance Sample to Detector: 2.266 m
# PONI: 5.659e-02, 4.293e-02 m
# Rotations: 0.000000 0.000000 0.000000 rad
# 
# == Fit2d calibration ==
# Distance Sample-beamCenter: 2266.000 mm
# Center: x=249.594, y=329.012 pix
# Tilt: 0.000 deg  TiltPlanRot: 0.000 deg
# 
# Detector Pilatus 300k	 PixelSize= 1.720e-04, 1.720e-04 m
#    Detector has a mask: True 
#    Detector has a dark current: False 
#    detector has a flat field: False 
# 
# Wavelength: 1.27818e-10 m
# Mask applied: user provided
# Dark current applied: False
# Flat field applied: False
# Polarization factor: None
# Normalization factor: 9448716.0
# --> MT-AL_F127_220228_8bf158ed-87fb-4c97-b1d1-0d2d396ebc14_0_r1d.csv
#        q_A^-1             I 
  4.457554e-03    1.689330e-03
  4.756484e-03    1.313549e-03
  5.055415e-03    9.194884e-04
  5.354345e-03    6.348038e-04
  5.653276e-03    4.815425e-04
  5.952206e-03    7.719917e-04
  6.251136e-03    7.064288e-04
  6.550067e-03    6.149617e-04
  6.848997e-03    5.240446e-04
  7.147927e-03    4.429430e-04
  7.446858e-03    3.790372e-04
  7.745788e-03    3.245940e-04
  8.044719e-03    2.788097e-04
  8.343649e-03    2.425081e-04
  8.642579e-03    2.123113e-04
  8.941510e-03    1.871093e-04
  9.240440e-03    1.655024e-04
  9.539371e-03    1.468300e-04
  9.838301e-03    1.310003e-04
  1.013723e-02    1.175317e-04
  1.043616e-02    1.058092e-04
  1.073509e-02    9.512409e-05
  1.103402e-02    8.619409e-05
  1.133295e-02    7.822222e-05
  1.163188e-02    7.117173e-05
  1.193081e-02    6.460264e-05
  1.222974e-02    5.913177e-05
  1.252867e-02    5.455875e-05
  1.282760e-02    5.036856e-05
  1.312654e-02    4.661371e-05
  1.342547e-02    4.301787e-05
  1.372440e-02    3.988512e-05
  1.402333e-02    3.699556e-05
  1.432226e-02    3.451480e-05
  1.462119e-02    3.237695e-05
  1.492012e-02    3.016787e-05
  1.521905e-02    2.810056e-05
  1.551798e-02    2.651210e-05
  1.581691e-02    2.480498e-05
  1.611584e-02    2.329673e-05
  1.641477e-02    2.214784e-05
  1.671370e-02    2.094684e-05
  1.701263e-02    1.995826e-05
  1.731156e-02    1.883509e-05
  1.761049e-02    1.780099e-05
  1.790942e-02    1.698585e-05
  1.820835e-02    1.633159e-05
  1.850728e-02    1.552584e-05
  1.880621e-02    1.476895e-05
  1.910514e-02    1.421558e-05
  1.940407e-02    1.361490e-05
  1.970300e-02    1.305312e-05
  2.000193e-02    1.255366e-05
  2.030086e-02    1.216073e-05
  2.059979e-02    1.168504e-05
  2.089873e-02    1.132401e-05
  2.119766e-02    1.096647e-05
  2.149659e-02    1.059545e-05
  2.179552e-02    1.033360e-05
  2.209445e-02    9.932329e-06
  2.239338e-02    9.662435e-06
  2.269231e-02    9.376511e-06
  2.299124e-02    9.063830e-06
  2.329017e-02    8.801006e-06
  2.358910e-02    8.627481e-06
  2.388803e-02    8.468944e-06
  2.418696e-02    8.323983e-06
  2.448589e-02    8.118598e-06
  2.478482e-02    7.897464e-06
  2.508375e-02    7.786087e-06
  2.538268e-02    7.667370e-06
  2.568161e-02    7.510712e-06
  2.598054e-02    7.402886e-06
  2.627947e-02    7.286731e-06
  2.657840e-02    7.213770e-06
  2.687733e-02    7.043429e-06
  2.717626e-02    6.915104e-06
  2.747519e-02    6.838970e-06
  2.777412e-02    6.774168e-06
  2.807305e-02    6.711355e-06
  2.837198e-02    6.561683e-06
  2.867092e-02    6.463312e-06
  2.896985e-02    6.377536e-06
  2.926878e-02    6.272686e-06
  2.956771e-02    6.277967e-06
  2.986664e-02    6.207433e-06
  3.016557e-02    6.102766e-06
  3.046450e-02    6.063200e-06
  3.076343e-02    6.008745e-06
  3.106236e-02    5.957620e-06
  3.136129e-02    5.907201e-06
  3.166022e-02    5.883006e-06
  3.195915e-02    5.798585e-06
  3.225808e-02    5.690398e-06
  3.255701e-02    5.664422e-06
  3.285594e-02    5.606862e-06
  3.315487e-02    5.550118e-06
  3.345380e-02    5.514056e-06
  3.375273e-02    5.438931e-06
  3.405166e-02    5.390415e-06
  3.435059e-02    5.373872e-06
  3.464952e-02    5.334088e-06
  3.494845e-02    5.252522e-06
  3.524738e-02    5.220932e-06
  3.554631e-02    5.153860e-06
  3.584524e-02    5.102941e-06
  3.614417e-02    5.071010e-06
  3.644310e-02    5.033949e-06
  3.674204e-02    4.948245e-06
  3.704097e-02    4.923179e-06
  3.733990e-02    4.923222e-06
  3.763883e-02    4.844465e-06
  3.793776e-02    4.811824e-06
  3.823669e-02    4.788072e-06
  3.853562e-02    4.757887e-06
  3.883455e-02    4.731628e-06
  3.913348e-02    4.673801e-06
  3.943241e-02    4.625904e-06
  3.973134e-02    4.581450e-06
  4.003027e-02    4.601825e-06
  4.032920e-02    4.598816e-06
  4.062813e-02    4.523761e-06
  4.092706e-02    4.517692e-06
  4.122599e-02    4.510829e-06
  4.152492e-02    4.487353e-06
  4.182385e-02    4.444976e-06
  4.212278e-02    4.458369e-06
  4.242171e-02    4.444739e-06
  4.272064e-02    4.390231e-06
  4.301957e-02    4.361363e-06
  4.331850e-02    4.370234e-06
  4.361743e-02    4.371773e-06
  4.391636e-02    4.364527e-06
  4.421529e-02    4.372636e-06
  4.451423e-02    4.351587e-06
  4.481316e-02    4.296201e-06
  4.511209e-02    4.331530e-06
  4.541102e-02    4.330138e-06
  4.570995e-02    4.305255e-06
  4.600888e-02    4.291051e-06
  4.630781e-02    4.289689e-06
  4.660674e-02    4.270574e-06
  4.690567e-02    4.268973e-06
  4.720460e-02    4.274254e-06
  4.750353e-02    4.271031e-06
  4.780246e-02    4.248732e-06
  4.810139e-02    4.276569e-06
  4.840032e-02    4.295222e-06
  4.869925e-02    4.275687e-06
  4.899818e-02    4.258235e-06
  4.929711e-02    4.258260e-06
  4.959604e-02    4.256819e-06
  4.989497e-02    4.230164e-06
  5.019390e-02    4.225050e-06
  5.049283e-02    4.215216e-06
  5.079176e-02    4.212791e-06
  5.109069e-02    4.251681e-06
  5.138962e-02    4.302541e-06
  5.168855e-02    4.390061e-06
  5.198748e-02    4.500618e-06
  5.228642e-02    4.431724e-06
  5.258535e-02    4.266625e-06
  5.288428e-02    4.206766e-06
  5.318321e-02    4.206978e-06
  5.348214e-02    4.194007e-06
  5.378107e-02    4.207070e-06
  5.408000e-02    4.223035e-06
  5.437893e-02    4.208506e-06
  5.467786e-02    4.202232e-06
  5.497679e-02    4.223227e-06
  5.527572e-02    4.214520e-06
  5.557465e-02    4.210764e-06
  5.587358e-02    4.204282e-06
  5.617251e-02    4.208929e-06
  5.647144e-02    4.222618e-06
  5.677037e-02    4.214293e-06
  5.706930e-02    4.212912e-06
  5.736823e-02    4.204441e-06
  5.766716e-02    4.211829e-06
  5.796609e-02    4.216433e-06
  5.826502e-02    4.227301e-06
  5.856395e-02    4.227848e-06
  5.886288e-02    4.238016e-06
  5.916181e-02    4.255472e-06
  5.946074e-02    4.254600e-06
  5.975967e-02    4.246060e-06
  6.005861e-02    4.279034e-06
  6.035754e-02    4.280591e-06
  6.065647e-02    4.271388e-06
  6.095540e-02    4.333048e-06
  6.125433e-02    4.402018e-06
  6.155326e-02    4.418966e-06
  6.185219e-02    4.361149e-06
  6.215112e-02    4.336282e-06
  6.245005e-02    4.310521e-06
  6.274898e-02    4.313241e-06
  6.304791e-02    4.330830e-06
  6.334684e-02    4.350663e-06
  6.364577e-02    4.360565e-06
  6.394470e-02    4.326729e-06
  6.424363e-02    4.318461e-06
  6.454256e-02    4.335356e-06
  6.484149e-02    4.363153e-06
  6.514042e-02    4.358281e-06
  6.543935e-02    4.375260e-06
  6.573828e-02    4.406217e-06
  6.603721e-02    4.393058e-06
  6.633614e-02    4.391870e-06
  6.663507e-02    4.428540e-06
  6.693400e-02    4.414753e-06
  6.723293e-02    4.405747e-06
  6.753186e-02    4.408792e-06
  6.783080e-02    4.391336e-06
  6.812973e-02    4.416809e-06
  6.842866e-02    4.434317e-06
  6.872759e-02    4.447943e-06
  6.902652e-02    4.453461e-06
  6.932545e-02    4.444330e-06
  6.962438e-02    4.465377e-06
  6.992331e-02    4.461633e-06
  7.022224e-02    4.469761e-06
  7.052117e-02    4.464233e-06
  7.082010e-02    4.483948e-06
  7.111903e-02    4.471427e-06
  7.141796e-02    4.478612e-06
  7.171689e-02    4.490101e-06
  7.201582e-02    4.491652e-06
  7.231475e-02    4.510996e-06
  7.261368e-02    4.502357e-06
  7.291261e-02    4.511533e-06
  7.321154e-02    4.523059e-06
  7.351047e-02    4.509820e-06
  7.380940e-02    4.493445e-06
  7.410833e-02    4.505541e-06
  7.440726e-02    4.523789e-06
  7.470619e-02    4.529807e-06
  7.500512e-02    4.511438e-06
  7.530405e-02    4.482201e-06
  7.560299e-02    4.502909e-06
  7.590192e-02    4.510076e-06
  7.620085e-02    4.531982e-06
  7.649978e-02    4.509479e-06
  7.679871e-02    4.486702e-06
  7.709764e-02    4.489762e-06
  7.739657e-02    4.511028e-06
  7.769550e-02    4.532670e-06
  7.799443e-02    4.500976e-06
  7.829336e-02    4.487082e-06
  7.859229e-02    4.501107e-06
  7.889122e-02    4.503955e-06
  7.919015e-02    4.510144e-06
  7.948908e-02    4.514079e-06
  7.978801e-02    4.495037e-06
  8.008694e-02    4.472613e-06
  8.038587e-02    4.471519e-06
  8.068480e-02    4.480078e-06
  8.098373e-02    4.485721e-06
  8.128266e-02    4.510171e-06
  8.158159e-02    4.502465e-06
  8.188052e-02    4.449886e-06
  8.217945e-02    4.485179e-06
  8.247838e-02    4.484691e-06
  8.277731e-02    4.449462e-06
  8.307624e-02    4.434148e-06
  8.337518e-02    4.452139e-06
  8.367411e-02    4.438278e-06
  8.397304e-02    4.435860e-06
  8.427197e-02    4.399845e-06
  8.457090e-02    4.399629e-06
  8.486983e-02    4.414595e-06
  8.516876e-02    4.402307e-06
  8.546769e-02    4.391290e-06
  8.576662e-02    4.386701e-06
  8.606555e-02    4.370051e-06
  8.636448e-02    4.351110e-06
  8.666341e-02    4.349279e-06
  8.696234e-02    4.343005e-06
  8.726127e-02    4.333321e-06
  8.756020e-02    4.340107e-06
  8.785913e-02    4.327683e-06
  8.815806e-02    4.333789e-06
  8.845699e-02    4.322022e-06
  8.875592e-02    4.320502e-06
  8.905485e-02    4.320210e-06
  8.935378e-02    4.307410e-06
  8.965271e-02    4.299301e-06
  8.995164e-02    4.295834e-06
  9.025057e-02    4.287482e-06
  9.054950e-02    4.285269e-06
  9.084843e-02    4.259552e-06
  9.114737e-02    4.230594e-06
  9.144630e-02    4.230258e-06
  9.174523e-02    4.225928e-06
  9.204416e-02    4.219241e-06
  9.234309e-02    4.214047e-06
  9.264202e-02    4.226657e-06
  9.294095e-02    4.205798e-06
  9.323988e-02    4.175354e-06
  9.353881e-02    4.177900e-06
  9.383774e-02    4.187787e-06
  9.413667e-02    4.180857e-06
  9.443560e-02    4.182845e-06
  9.473453e-02    4.155863e-06
  9.503346e-02    4.162593e-06
  9.533239e-02    4.185677e-06
  9.563132e-02    4.144246e-06
  9.593025e-02    4.136625e-06
  9.622918e-02    4.151926e-06
  9.652811e-02    4.157381e-06
  9.682704e-02    4.173289e-06
  9.712597e-02    4.153676e-06
  9.742490e-02    4.145900e-06
  9.772383e-02    4.134601e-06
  9.802276e-02    4.100576e-06
  9.832169e-02    4.077824e-06
  9.862062e-02    4.075486e-06
  9.891956e-02    4.041081e-06
  9.921849e-02    4.042899e-06
  9.951742e-02    4.051528e-06
  9.981635e-02    4.038351e-06
  1.001153e-01    4.045860e-06
  1.004142e-01    4.039674e-06
  1.007131e-01    4.024028e-06
  1.010121e-01    3.984272e-06
  1.013110e-01    3.978341e-06
  1.016099e-01    3.977641e-06
  1.019089e-01    3.958586e-06
  1.022078e-01    3.966511e-06
  1.025067e-01    3.952575e-06
  1.028057e-01    3.933421e-06
  1.031046e-01    3.926283e-06
  1.034035e-01    3.916648e-06
  1.037024e-01    3.904030e-06
  1.040014e-01    3.898636e-06
  1.043003e-01    3.899233e-06
  1.045992e-01    3.890760e-06
  1.048982e-01    3.895088e-06
  1.051971e-01    3.921070e-06
  1.054960e-01    3.910832e-06
  1.057950e-01    3.878650e-06
  1.060939e-01    3.864459e-06
  1.063928e-01    3.877334e-06
  1.066917e-01    3.848674e-06
  1.069907e-01    3.833945e-06
  1.072896e-01    3.841002e-06
  1.075885e-01    3.824060e-06
  1.078875e-01    3.825543e-06
  1.081864e-01    3.824461e-06
  1.084853e-01    3.839738e-06
  1.087843e-01    3.829927e-06
  1.090832e-01    3.812626e-06
  1.093821e-01    3.808321e-06
  1.096810e-01    3.796405e-06
  1.099800e-01    3.783448e-06
  1.102789e-01    3.755305e-06
  1.105778e-01    3.732802e-06
  1.108768e-01    3.718178e-06
  1.111757e-01    3.710654e-06
  1.114746e-01    3.690662e-06
  1.117736e-01    3.695555e-06
  1.120725e-01    3.700544e-06
  1.123714e-01    3.684380e-06
  1.126704e-01    3.672844e-06
  1.129693e-01    3.662926e-06
  1.132682e-01    3.675114e-06
  1.135671e-01    3.652317e-06
  1.138661e-01    3.627105e-06
  1.141650e-01    3.612022e-06
  1.144639e-01    3.620014e-06
  1.147629e-01    3.644903e-06
  1.150618e-01    3.659605e-06
  1.153607e-01    3.639602e-06
  1.156597e-01    3.627037e-06
  1.159586e-01    3.593661e-06
  1.162575e-01    3.571896e-06
  1.165564e-01    3.583203e-06
  1.168554e-01    3.634499e-06
  1.171543e-01    3.642295e-06
  1.174532e-01    3.617407e-06
  1.177522e-01    3.585820e-06
  1.180511e-01    3.572248e-06
  1.183500e-01    3.604613e-06
  1.186490e-01    3.643110e-06
  1.189479e-01    3.614002e-06
  1.192468e-01    3.544653e-06
  1.195458e-01    3.491854e-06
  1.198447e-01    3.546877e-06
  1.201436e-01    3.621999e-06
  1.204425e-01    3.742520e-06
  1.207415e-01    3.884395e-06
  1.210404e-01    4.449075e-06
  1.213393e-01    0.000000e+00
  1.216383e-01    0.000000e+00
  1.219372e-01    0.000000e+00
  1.222361e-01    0.000000e+00
  1.225351e-01    0.000000e+00
  1.228340e-01    0.000000e+00
  1.231329e-01    0.000000e+00
  1.234318e-01    0.000000e+00
  1.237308e-01    0.000000e+00
  1.240297e-01    0.000000e+00
  1.243286e-01    0.000000e+00
  1.246276e-01    0.000000e+00
  1.249265e-01    0.000000e+00
  1.252254e-01    0.000000e+00
  1.255244e-01    0.000000e+00
  1.258233e-01    0.000000e+00
  1.261222e-01    0.000000e+00
  1.264212e-01    0.000000e+00
  1.267201e-01    0.000000e+00
  1.270190e-01    0.000000e+00
  1.273179e-01    0.000000e+00
  1.276169e-01    0.000000e+00
  1.279158e-01    0.000000e+00
  1.282147e-01    0.000000e+00
  1.285137e-01    0.000000e+00
  1.288126e-01    0.000000e+00
  1.291115e-01    0.000000e+00
  1.294105e-01    0.000000e+00
  1.297094e-01    0.000000e+00
  1.300083e-01    0.000000e+00
  1.303072e-01    0.000000e+00
  1.306062e-01    0.000000e+00
  1.309051e-01    0.000000e+00
  1.312040e-01    0.000000e+00
  1.315030e-01    0.000000e+00
  1.318019e-01    0.000000e+00
  1.321008e-01    0.000000e+00
  1.323998e-01    0.000000e+00
  1.326987e-01    0.000000e+00
  1.329976e-01    0.000000e+00
  1.332965e-01    0.000000e+00
  1.335955e-01    0.000000e+00
  1.338944e-01    0.000000e+00
  1.341933e-01    0.000000e+00
  1.344923e-01    0.000000e+00
  1.347912e-01    0.000000e+00
  1.350901e-01    0.000000e+00
  1.353891e-01    0.000000e+00
  1.356880e-01    0.000000e+00
  1.359869e-01    0.000000e+00
  1.362859e-01    0.000000e+00
  1.365848e-01    0.000000e+00
  1.368837e-01    0.000000e+00
  1.371826e-01    0.000000e+00
  1.374816e-01    0.000000e+00
  1.377805e-01    0.000000e+00
  1.380794e-01    0.000000e+00
  1.383784e-01    0.000000e+00
  1.386773e-01    0.000000e+00
  1.389762e-01    0.000000e+00
  1.392752e-01    0.000000e+00
  1.395741e-01    0.000000e+00
  1.398730e-01    0.000000e+00
  1.401719e-01    0.000000e+00
  1.404709e-01    0.000000e+00
  1.407698e-01    0.000000e+00
  1.410687e-01    0.000000e+00
  1.413677e-01    0.000000e+00
  1.416666e-01    0.000000e+00
  1.419655e-01    0.000000e+00
  1.422645e-01    0.000000e+00
  1.425634e-01    0.000000e+00
  1.428623e-01    0.000000e+00
  1.431613e-01    0.000000e+00
  1.434602e-01    0.000000e+00
  1.437591e-01    0.000000e+00
  1.440580e-01    0.000000e+00
  1.443570e-01    0.000000e+00
  1.446559e-01    0.000000e+00
  1.449548e-01    0.000000e+00
  1.452538e-01    0.000000e+00
  1.455527e-01    0.000000e+00
  1.458516e-01    0.000000e+00
  1.461506e-01    0.000000e+00
  1.464495e-01    0.000000e+00
  1.467484e-01    0.000000e+00
  1.470473e-01    0.000000e+00
  1.473463e-01    0.000000e+00
  1.476452e-01    0.000000e+00
  1.479441e-01    0.000000e+00
  1.482431e-01    0.000000e+00
  1.485420e-01    0.000000e+00
  1.488409e-01    0.000000e+00
  1.491399e-01    0.000000e+00
  1.494388e-01    0.000000e+00
  1.497377e-01    0.000000e+00
  1.500367e-01    0.000000e+00
  1.503356e-01    0.000000e+00
  1.506345e-01    0.000000e+00
  1.509334e-01    0.000000e+00
  1.512324e-01    0.000000e+00
  1.515313e-01    0.000000e+00
  1.518302e-01    0.000000e+00
  1.521292e-01    0.000000e+00
  1.524281e-01    0.000000e+00
  1.527270e-01    0.000000e+00
  1.530260e-01    0.000000e+00
  1.533249e-01    0.000000e+00
  1.536238e-01    0.000000e+00
