# == pyFAI calibration ==
# Distance Sample to Detector: 2.266 m
# PONI: 5.659e-02, 4.293e-02 m
# Rotations: 0.000000 0.000000 0.000000 rad
# 
# == Fit2d calibration ==
# Distance Sample-beamCenter: 2266.000 mm
# Center: x=249.594, y=329.012 pix
# Tilt: 0.000 deg  TiltPlanRot: 0.000 deg
# 
# Detector Pilatus 300k	 PixelSize= 1.720e-04, 1.720e-04 m
#    Detector has a mask: True 
#    Detector has a dark current: False 
#    detector has a flat field: False 
# 
# Wavelength: 1.27818e-10 m
# Mask applied: user provided
# Dark current applied: False
# Flat field applied: False
# Polarization factor: None
# Normalization factor: 33945.509999999995
# --> MT-AL_DowExpt1_220227_fa7ee274-8db7-40ea-9ddf-653490a6abdb_2_r1d.csv
#        q_A^-1             I 
  4.457554e-03    5.170071e-02
  4.756484e-03    4.227018e-02
  5.055415e-03    3.210831e-02
  5.354345e-03    2.357117e-02
  5.653276e-03    1.850970e-02
  5.952206e-03    3.300974e-02
  6.251136e-03    3.030737e-02
  6.550067e-03    2.616423e-02
  6.848997e-03    2.214160e-02
  7.147927e-03    1.864369e-02
  7.446858e-03    1.585195e-02
  7.745788e-03    1.344525e-02
  8.044719e-03    1.154160e-02
  8.343649e-03    1.000391e-02
  8.642579e-03    8.670996e-03
  8.941510e-03    7.585543e-03
  9.240440e-03    6.649128e-03
  9.539371e-03    5.891789e-03
  9.838301e-03    5.233654e-03
  1.013723e-02    4.658988e-03
  1.043616e-02    4.163076e-03
  1.073509e-02    3.692578e-03
  1.103402e-02    3.313438e-03
  1.133295e-02    2.992087e-03
  1.163188e-02    2.721267e-03
  1.193081e-02    2.487431e-03
  1.222974e-02    2.265542e-03
  1.252867e-02    2.073318e-03
  1.282760e-02    1.899652e-03
  1.312654e-02    1.732127e-03
  1.342547e-02    1.597348e-03
  1.372440e-02    1.468525e-03
  1.402333e-02    1.360810e-03
  1.432226e-02    1.246213e-03
  1.462119e-02    1.163351e-03
  1.492012e-02    1.087963e-03
  1.521905e-02    1.014716e-03
  1.551798e-02    9.351733e-04
  1.581691e-02    8.674613e-04
  1.611584e-02    8.201511e-04
  1.641477e-02    7.667254e-04
  1.671370e-02    7.170193e-04
  1.701263e-02    6.845929e-04
  1.731156e-02    6.486513e-04
  1.761049e-02    6.118829e-04
  1.790942e-02    5.813343e-04
  1.820835e-02    5.489899e-04
  1.850728e-02    5.159558e-04
  1.880621e-02    4.877542e-04
  1.910514e-02    4.619966e-04
  1.940407e-02    4.391987e-04
  1.970300e-02    4.222891e-04
  2.000193e-02    4.088478e-04
  2.030086e-02    3.852939e-04
  2.059979e-02    3.693003e-04
  2.089873e-02    3.524229e-04
  2.119766e-02    3.328607e-04
  2.149659e-02    3.241026e-04
  2.179552e-02    3.151127e-04
  2.209445e-02    3.014630e-04
  2.239338e-02    2.979516e-04
  2.269231e-02    2.883642e-04
  2.299124e-02    2.749340e-04
  2.329017e-02    2.593833e-04
  2.358910e-02    2.502181e-04
  2.388803e-02    2.463777e-04
  2.418696e-02    2.433529e-04
  2.448589e-02    2.348182e-04
  2.478482e-02    2.256328e-04
  2.508375e-02    2.206265e-04
  2.538268e-02    2.167717e-04
  2.568161e-02    2.105616e-04
  2.598054e-02    2.069237e-04
  2.627947e-02    2.008217e-04
  2.657840e-02    1.951840e-04
  2.687733e-02    1.950181e-04
  2.717626e-02    1.906518e-04
  2.747519e-02    1.831398e-04
  2.777412e-02    1.774840e-04
  2.807305e-02    1.771218e-04
  2.837198e-02    1.759266e-04
  2.867092e-02    1.726795e-04
  2.896985e-02    1.714275e-04
  2.926878e-02    1.698916e-04
  2.956771e-02    1.658332e-04
  2.986664e-02    1.665936e-04
  3.016557e-02    1.614558e-04
  3.046450e-02    1.578434e-04
  3.076343e-02    1.568333e-04
  3.106236e-02    1.529768e-04
  3.136129e-02    1.501833e-04
  3.166022e-02    1.483781e-04
  3.195915e-02    1.474371e-04
  3.225808e-02    1.461112e-04
  3.255701e-02    1.465147e-04
  3.285594e-02    1.403261e-04
  3.315487e-02    1.417520e-04
  3.345380e-02    1.414440e-04
  3.375273e-02    1.386489e-04
  3.405166e-02    1.363505e-04
  3.435059e-02    1.355245e-04
  3.464952e-02    1.325831e-04
  3.494845e-02    1.301345e-04
  3.524738e-02    1.318891e-04
  3.554631e-02    1.301471e-04
  3.584524e-02    1.252730e-04
  3.614417e-02    1.243913e-04
  3.644310e-02    1.208516e-04
  3.674204e-02    1.248586e-04
  3.704097e-02    1.254399e-04
  3.733990e-02    1.248168e-04
  3.763883e-02    1.224005e-04
  3.793776e-02    1.202075e-04
  3.823669e-02    1.215795e-04
  3.853562e-02    1.199633e-04
  3.883455e-02    1.186394e-04
  3.913348e-02    1.175636e-04
  3.943241e-02    1.149859e-04
  3.973134e-02    1.128679e-04
  4.003027e-02    1.126830e-04
  4.032920e-02    1.152093e-04
  4.062813e-02    1.140438e-04
  4.092706e-02    1.152232e-04
  4.122599e-02    1.150863e-04
  4.152492e-02    1.143917e-04
  4.182385e-02    1.161061e-04
  4.212278e-02    1.145544e-04
  4.242171e-02    1.109037e-04
  4.272064e-02    1.094413e-04
  4.301957e-02    1.111720e-04
  4.331850e-02    1.116786e-04
  4.361743e-02    1.131006e-04
  4.391636e-02    1.122706e-04
  4.421529e-02    1.113917e-04
  4.451423e-02    1.091347e-04
  4.481316e-02    1.101321e-04
  4.511209e-02    1.084869e-04
  4.541102e-02    1.065957e-04
  4.570995e-02    1.077087e-04
  4.600888e-02    1.093127e-04
  4.630781e-02    1.095611e-04
  4.660674e-02    1.100730e-04
  4.690567e-02    1.096667e-04
  4.720460e-02    1.073014e-04
  4.750353e-02    1.066338e-04
  4.780246e-02    1.068125e-04
  4.810139e-02    1.056002e-04
  4.840032e-02    1.072199e-04
  4.869925e-02    1.079235e-04
  4.899818e-02    1.083520e-04
  4.929711e-02    1.058350e-04
  4.959604e-02    1.027350e-04
  4.989497e-02    1.047013e-04
  5.019390e-02    1.066297e-04
  5.049283e-02    1.053993e-04
  5.079176e-02    1.072626e-04
  5.109069e-02    1.065191e-04
  5.138962e-02    1.104635e-04
  5.168855e-02    1.121780e-04
  5.198748e-02    1.119248e-04
  5.228642e-02    1.106980e-04
  5.258535e-02    1.083208e-04
  5.288428e-02    1.056148e-04
  5.318321e-02    1.064724e-04
  5.348214e-02    1.065452e-04
  5.378107e-02    1.071744e-04
  5.408000e-02    1.103080e-04
  5.437893e-02    1.087496e-04
  5.467786e-02    1.077842e-04
  5.497679e-02    1.065693e-04
  5.527572e-02    1.053902e-04
  5.557465e-02    1.068054e-04
  5.587358e-02    1.062213e-04
  5.617251e-02    1.054678e-04
  5.647144e-02    1.077945e-04
  5.677037e-02    1.074743e-04
  5.706930e-02    1.067413e-04
  5.736823e-02    1.070130e-04
  5.766716e-02    1.060072e-04
  5.796609e-02    1.062063e-04
  5.826502e-02    1.072007e-04
  5.856395e-02    1.082027e-04
  5.886288e-02    1.091140e-04
  5.916181e-02    1.079588e-04
  5.946074e-02    1.074808e-04
  5.975967e-02    1.058160e-04
  6.005861e-02    1.071270e-04
  6.035754e-02    1.077289e-04
  6.065647e-02    1.066493e-04
  6.095540e-02    1.085121e-04
  6.125433e-02    1.126865e-04
  6.155326e-02    1.136348e-04
  6.185219e-02    1.116391e-04
  6.215112e-02    1.103271e-04
  6.245005e-02    1.100118e-04
  6.274898e-02    1.099410e-04
  6.304791e-02    1.064680e-04
  6.334684e-02    1.071954e-04
  6.364577e-02    1.097557e-04
  6.394470e-02    1.095462e-04
  6.424363e-02    1.084285e-04
  6.454256e-02    1.092264e-04
  6.484149e-02    1.118785e-04
  6.514042e-02    1.108229e-04
  6.543935e-02    1.102793e-04
  6.573828e-02    1.106379e-04
  6.603721e-02    1.119917e-04
  6.633614e-02    1.128076e-04
  6.663507e-02    1.109273e-04
  6.693400e-02    1.106700e-04
  6.723293e-02    1.101819e-04
  6.753186e-02    1.094293e-04
  6.783080e-02    1.090867e-04
  6.812973e-02    1.101509e-04
  6.842866e-02    1.114019e-04
  6.872759e-02    1.136915e-04
  6.902652e-02    1.151197e-04
  6.932545e-02    1.144685e-04
  6.962438e-02    1.146469e-04
  6.992331e-02    1.124476e-04
  7.022224e-02    1.137508e-04
  7.052117e-02    1.151391e-04
  7.082010e-02    1.137067e-04
  7.111903e-02    1.129482e-04
  7.141796e-02    1.119810e-04
  7.171689e-02    1.132363e-04
  7.201582e-02    1.127450e-04
  7.231475e-02    1.119538e-04
  7.261368e-02    1.118150e-04
  7.291261e-02    1.120622e-04
  7.321154e-02    1.146222e-04
  7.351047e-02    1.159497e-04
  7.380940e-02    1.145013e-04
  7.410833e-02    1.130473e-04
  7.440726e-02    1.125896e-04
  7.470619e-02    1.135444e-04
  7.500512e-02    1.129870e-04
  7.530405e-02    1.137313e-04
  7.560299e-02    1.148924e-04
  7.590192e-02    1.147764e-04
  7.620085e-02    1.152898e-04
  7.649978e-02    1.148777e-04
  7.679871e-02    1.116025e-04
  7.709764e-02    1.141158e-04
  7.739657e-02    1.159489e-04
  7.769550e-02    1.153459e-04
  7.799443e-02    1.143736e-04
  7.829336e-02    1.125842e-04
  7.859229e-02    1.115929e-04
  7.889122e-02    1.127946e-04
  7.919015e-02    1.151056e-04
  7.948908e-02    1.131911e-04
  7.978801e-02    1.118890e-04
  8.008694e-02    1.120238e-04
  8.038587e-02    1.117024e-04
  8.068480e-02    1.124659e-04
  8.098373e-02    1.128280e-04
  8.128266e-02    1.120650e-04
  8.158159e-02    1.128907e-04
  8.188052e-02    1.139279e-04
  8.217945e-02    1.127363e-04
  8.247838e-02    1.122150e-04
  8.277731e-02    1.110302e-04
  8.307624e-02    1.115291e-04
  8.337518e-02    1.096849e-04
  8.367411e-02    1.095780e-04
  8.397304e-02    1.107188e-04
  8.427197e-02    1.119021e-04
  8.457090e-02    1.115308e-04
  8.486983e-02    1.120229e-04
  8.516876e-02    1.100667e-04
  8.546769e-02    1.099252e-04
  8.576662e-02    1.104700e-04
  8.606555e-02    1.100033e-04
  8.636448e-02    1.113118e-04
  8.666341e-02    1.096310e-04
  8.696234e-02    1.094104e-04
  8.726127e-02    1.101684e-04
  8.756020e-02    1.078414e-04
  8.785913e-02    1.069261e-04
  8.815806e-02    1.086857e-04
  8.845699e-02    1.092166e-04
  8.875592e-02    1.100776e-04
  8.905485e-02    1.086727e-04
  8.935378e-02    1.097926e-04
  8.965271e-02    1.090128e-04
  8.995164e-02    1.053108e-04
  9.025057e-02    1.039005e-04
  9.054950e-02    1.048803e-04
  9.084843e-02    1.064740e-04
  9.114737e-02    1.050195e-04
  9.144630e-02    1.058786e-04
  9.174523e-02    1.059171e-04
  9.204416e-02    1.067058e-04
  9.234309e-02    1.058769e-04
  9.264202e-02    1.042160e-04
  9.294095e-02    1.050204e-04
  9.323988e-02    1.048622e-04
  9.353881e-02    1.045126e-04
  9.383774e-02    1.042700e-04
  9.413667e-02    1.047961e-04
  9.443560e-02    1.057110e-04
  9.473453e-02    1.041149e-04
  9.503346e-02    1.043752e-04
  9.533239e-02    1.048386e-04
  9.563132e-02    1.057782e-04
  9.593025e-02    1.056851e-04
  9.622918e-02    1.046988e-04
  9.652811e-02    1.044132e-04
  9.682704e-02    1.036188e-04
  9.712597e-02    1.023666e-04
  9.742490e-02    1.031322e-04
  9.772383e-02    1.036310e-04
  9.802276e-02    1.034611e-04
  9.832169e-02    1.004722e-04
  9.862062e-02    9.946895e-05
  9.891956e-02    1.008540e-04
  9.921849e-02    9.973341e-05
  9.951742e-02    9.731909e-05
  9.981635e-02    9.862212e-05
  1.001153e-01    9.854315e-05
  1.004142e-01    9.883800e-05
  1.007131e-01    9.740742e-05
  1.010121e-01    9.705128e-05
  1.013110e-01    9.938292e-05
  1.016099e-01    1.003070e-04
  1.019089e-01    1.008107e-04
  1.022078e-01    1.001823e-04
  1.025067e-01    9.923786e-05
  1.028057e-01    9.812711e-05
  1.031046e-01    9.799835e-05
  1.034035e-01    9.808419e-05
  1.037024e-01    9.946999e-05
  1.040014e-01    9.954961e-05
  1.043003e-01    9.830256e-05
  1.045992e-01    9.719815e-05
  1.048982e-01    9.909213e-05
  1.051971e-01    9.821193e-05
  1.054960e-01    9.610214e-05
  1.057950e-01    9.628529e-05
  1.060939e-01    9.749562e-05
  1.063928e-01    9.531076e-05
  1.066917e-01    9.320823e-05
  1.069907e-01    9.425105e-05
  1.072896e-01    9.495337e-05
  1.075885e-01    9.358201e-05
  1.078875e-01    9.303033e-05
  1.081864e-01    9.502500e-05
  1.084853e-01    9.522495e-05
  1.087843e-01    9.537470e-05
  1.090832e-01    9.620599e-05
  1.093821e-01    9.658559e-05
  1.096810e-01    9.499083e-05
  1.099800e-01    9.545855e-05
  1.102789e-01    9.424696e-05
  1.105778e-01    9.277974e-05
  1.108768e-01    9.337720e-05
  1.111757e-01    9.154608e-05
  1.114746e-01    9.181993e-05
  1.117736e-01    9.169757e-05
  1.120725e-01    9.153639e-05
  1.123714e-01    9.044874e-05
  1.126704e-01    8.967669e-05
  1.129693e-01    9.202861e-05
  1.132682e-01    9.261134e-05
  1.135671e-01    9.105189e-05
  1.138661e-01    9.104773e-05
  1.141650e-01    8.922662e-05
  1.144639e-01    9.212283e-05
  1.147629e-01    9.176089e-05
  1.150618e-01    9.081772e-05
  1.153607e-01    8.570006e-05
  1.156597e-01    8.521468e-05
  1.159586e-01    8.950263e-05
  1.162575e-01    8.808236e-05
  1.165564e-01    8.598388e-05
  1.168554e-01    8.708250e-05
  1.171543e-01    8.892325e-05
  1.174532e-01    9.222449e-05
  1.177522e-01    9.079824e-05
  1.180511e-01    8.978274e-05
  1.183500e-01    9.477705e-05
  1.186490e-01    9.643797e-05
  1.189479e-01    9.013950e-05
  1.192468e-01    9.033109e-05
  1.195458e-01    9.109494e-05
  1.198447e-01    8.220990e-05
  1.201436e-01    8.768267e-05
  1.204425e-01    9.135258e-05
  1.207415e-01    8.763270e-05
  1.210404e-01    5.897132e-05
  1.213393e-01    0.000000e+00
  1.216383e-01    0.000000e+00
  1.219372e-01    0.000000e+00
  1.222361e-01    0.000000e+00
  1.225351e-01    0.000000e+00
  1.228340e-01    0.000000e+00
  1.231329e-01    0.000000e+00
  1.234318e-01    0.000000e+00
  1.237308e-01    0.000000e+00
  1.240297e-01    0.000000e+00
  1.243286e-01    0.000000e+00
  1.246276e-01    0.000000e+00
  1.249265e-01    0.000000e+00
  1.252254e-01    0.000000e+00
  1.255244e-01    0.000000e+00
  1.258233e-01    0.000000e+00
  1.261222e-01    0.000000e+00
  1.264212e-01    0.000000e+00
  1.267201e-01    0.000000e+00
  1.270190e-01    0.000000e+00
  1.273179e-01    0.000000e+00
  1.276169e-01    0.000000e+00
  1.279158e-01    0.000000e+00
  1.282147e-01    0.000000e+00
  1.285137e-01    0.000000e+00
  1.288126e-01    0.000000e+00
  1.291115e-01    0.000000e+00
  1.294105e-01    0.000000e+00
  1.297094e-01    0.000000e+00
  1.300083e-01    0.000000e+00
  1.303072e-01    0.000000e+00
  1.306062e-01    0.000000e+00
  1.309051e-01    0.000000e+00
  1.312040e-01    0.000000e+00
  1.315030e-01    0.000000e+00
  1.318019e-01    0.000000e+00
  1.321008e-01    0.000000e+00
  1.323998e-01    0.000000e+00
  1.326987e-01    0.000000e+00
  1.329976e-01    0.000000e+00
  1.332965e-01    0.000000e+00
  1.335955e-01    0.000000e+00
  1.338944e-01    0.000000e+00
  1.341933e-01    0.000000e+00
  1.344923e-01    0.000000e+00
  1.347912e-01    0.000000e+00
  1.350901e-01    0.000000e+00
  1.353891e-01    0.000000e+00
  1.356880e-01    0.000000e+00
  1.359869e-01    0.000000e+00
  1.362859e-01    0.000000e+00
  1.365848e-01    0.000000e+00
  1.368837e-01    0.000000e+00
  1.371826e-01    0.000000e+00
  1.374816e-01    0.000000e+00
  1.377805e-01    0.000000e+00
  1.380794e-01    0.000000e+00
  1.383784e-01    0.000000e+00
  1.386773e-01    0.000000e+00
  1.389762e-01    0.000000e+00
  1.392752e-01    0.000000e+00
  1.395741e-01    0.000000e+00
  1.398730e-01    0.000000e+00
  1.401719e-01    0.000000e+00
  1.404709e-01    0.000000e+00
  1.407698e-01    0.000000e+00
  1.410687e-01    0.000000e+00
  1.413677e-01    0.000000e+00
  1.416666e-01    0.000000e+00
  1.419655e-01    0.000000e+00
  1.422645e-01    0.000000e+00
  1.425634e-01    0.000000e+00
  1.428623e-01    0.000000e+00
  1.431613e-01    0.000000e+00
  1.434602e-01    0.000000e+00
  1.437591e-01    0.000000e+00
  1.440580e-01    0.000000e+00
  1.443570e-01    0.000000e+00
  1.446559e-01    0.000000e+00
  1.449548e-01    0.000000e+00
  1.452538e-01    0.000000e+00
  1.455527e-01    0.000000e+00
  1.458516e-01    0.000000e+00
  1.461506e-01    0.000000e+00
  1.464495e-01    0.000000e+00
  1.467484e-01    0.000000e+00
  1.470473e-01    0.000000e+00
  1.473463e-01    0.000000e+00
  1.476452e-01    0.000000e+00
  1.479441e-01    0.000000e+00
  1.482431e-01    0.000000e+00
  1.485420e-01    0.000000e+00
  1.488409e-01    0.000000e+00
  1.491399e-01    0.000000e+00
  1.494388e-01    0.000000e+00
  1.497377e-01    0.000000e+00
  1.500367e-01    0.000000e+00
  1.503356e-01    0.000000e+00
  1.506345e-01    0.000000e+00
  1.509334e-01    0.000000e+00
  1.512324e-01    0.000000e+00
  1.515313e-01    0.000000e+00
  1.518302e-01    0.000000e+00
  1.521292e-01    0.000000e+00
  1.524281e-01    0.000000e+00
  1.527270e-01    0.000000e+00
  1.530260e-01    0.000000e+00
  1.533249e-01    0.000000e+00
  1.536238e-01    0.000000e+00
