# == pyFAI calibration ==
# Distance Sample to Detector: 2.266 m
# PONI: 5.659e-02, 4.293e-02 m
# Rotations: 0.000000 0.000000 0.000000 rad
# 
# == Fit2d calibration ==
# Distance Sample-beamCenter: 2266.000 mm
# Center: x=249.594, y=329.012 pix
# Tilt: 0.000 deg  TiltPlanRot: 0.000 deg
# 
# Detector Pilatus 300k	 PixelSize= 1.720e-04, 1.720e-04 m
#    Detector has a mask: True 
#    Detector has a dark current: False 
#    detector has a flat field: False 
# 
# Wavelength: 1.27818e-10 m
# Mask applied: user provided
# Dark current applied: False
# Flat field applied: False
# Polarization factor: None
# Normalization factor: 13002894.4
# --> MT-AL_F127_220226_1d54f0ef-5e37-46eb-8bdd-a9fea3704c58_2_r1d.csv
#        q_A^-1             I 
  4.457554e-03    1.925162e-03
  4.756484e-03    1.511298e-03
  5.055415e-03    1.071727e-03
  5.354345e-03    7.510810e-04
  5.653276e-03    5.824090e-04
  5.952206e-03    9.575709e-04
  6.251136e-03    8.745394e-04
  6.550067e-03    7.606261e-04
  6.848997e-03    6.476548e-04
  7.147927e-03    5.464593e-04
  7.446858e-03    4.657358e-04
  7.745788e-03    3.990571e-04
  8.044719e-03    3.430909e-04
  8.343649e-03    2.987769e-04
  8.642579e-03    2.609878e-04
  8.941510e-03    2.294050e-04
  9.240440e-03    2.030096e-04
  9.539371e-03    1.801096e-04
  9.838301e-03    1.604785e-04
  1.013723e-02    1.438521e-04
  1.043616e-02    1.296250e-04
  1.073509e-02    1.165730e-04
  1.103402e-02    1.051773e-04
  1.133295e-02    9.529254e-05
  1.163188e-02    8.700485e-05
  1.193081e-02    7.945481e-05
  1.222974e-02    7.253980e-05
  1.252867e-02    6.645815e-05
  1.282760e-02    6.130549e-05
  1.312654e-02    5.669071e-05
  1.342547e-02    5.261405e-05
  1.372440e-02    4.876417e-05
  1.402333e-02    4.544163e-05
  1.432226e-02    4.226937e-05
  1.462119e-02    3.928492e-05
  1.492012e-02    3.664477e-05
  1.521905e-02    3.427636e-05
  1.551798e-02    3.218221e-05
  1.581691e-02    3.010364e-05
  1.611584e-02    2.838050e-05
  1.641477e-02    2.684657e-05
  1.671370e-02    2.538104e-05
  1.701263e-02    2.404895e-05
  1.731156e-02    2.278138e-05
  1.761049e-02    2.164886e-05
  1.790942e-02    2.058947e-05
  1.820835e-02    1.959465e-05
  1.850728e-02    1.863199e-05
  1.880621e-02    1.792897e-05
  1.910514e-02    1.717896e-05
  1.940407e-02    1.638075e-05
  1.970300e-02    1.567396e-05
  2.000193e-02    1.513916e-05
  2.030086e-02    1.464055e-05
  2.059979e-02    1.410506e-05
  2.089873e-02    1.357543e-05
  2.119766e-02    1.319350e-05
  2.149659e-02    1.274481e-05
  2.179552e-02    1.224781e-05
  2.209445e-02    1.189106e-05
  2.239338e-02    1.151627e-05
  2.269231e-02    1.121786e-05
  2.299124e-02    1.085602e-05
  2.329017e-02    1.060367e-05
  2.358910e-02    1.033977e-05
  2.388803e-02    1.005511e-05
  2.418696e-02    9.885463e-06
  2.448589e-02    9.643059e-06
  2.478482e-02    9.452549e-06
  2.508375e-02    9.336058e-06
  2.538268e-02    9.123924e-06
  2.568161e-02    8.922766e-06
  2.598054e-02    8.728426e-06
  2.627947e-02    8.611948e-06
  2.657840e-02    8.442490e-06
  2.687733e-02    8.304714e-06
  2.717626e-02    8.195404e-06
  2.747519e-02    8.080277e-06
  2.777412e-02    7.946454e-06
  2.807305e-02    7.870929e-06
  2.837198e-02    7.780001e-06
  2.867092e-02    7.653062e-06
  2.896985e-02    7.486088e-06
  2.926878e-02    7.406420e-06
  2.956771e-02    7.361602e-06
  2.986664e-02    7.316893e-06
  3.016557e-02    7.228029e-06
  3.046450e-02    7.124619e-06
  3.076343e-02    7.054399e-06
  3.106236e-02    6.984478e-06
  3.136129e-02    6.890717e-06
  3.166022e-02    6.856338e-06
  3.195915e-02    6.795864e-06
  3.225808e-02    6.684600e-06
  3.255701e-02    6.625978e-06
  3.285594e-02    6.552666e-06
  3.315487e-02    6.492045e-06
  3.345380e-02    6.452917e-06
  3.375273e-02    6.336659e-06
  3.405166e-02    6.293436e-06
  3.435059e-02    6.269030e-06
  3.464952e-02    6.257118e-06
  3.494845e-02    6.212006e-06
  3.524738e-02    6.187684e-06
  3.554631e-02    6.118612e-06
  3.584524e-02    6.014789e-06
  3.614417e-02    5.974126e-06
  3.644310e-02    5.954234e-06
  3.674204e-02    5.866422e-06
  3.704097e-02    5.811858e-06
  3.733990e-02    5.800982e-06
  3.763883e-02    5.736875e-06
  3.793776e-02    5.690679e-06
  3.823669e-02    5.621209e-06
  3.853562e-02    5.592794e-06
  3.883455e-02    5.572049e-06
  3.913348e-02    5.534837e-06
  3.943241e-02    5.480466e-06
  3.973134e-02    5.462408e-06
  4.003027e-02    5.423571e-06
  4.032920e-02    5.412310e-06
  4.062813e-02    5.408710e-06
  4.092706e-02    5.371633e-06
  4.122599e-02    5.353414e-06
  4.152492e-02    5.320943e-06
  4.182385e-02    5.273257e-06
  4.212278e-02    5.269179e-06
  4.242171e-02    5.284396e-06
  4.272064e-02    5.265950e-06
  4.301957e-02    5.221412e-06
  4.331850e-02    5.187081e-06
  4.361743e-02    5.184186e-06
  4.391636e-02    5.193022e-06
  4.421529e-02    5.194423e-06
  4.451423e-02    5.171245e-06
  4.481316e-02    5.156497e-06
  4.511209e-02    5.149535e-06
  4.541102e-02    5.132415e-06
  4.570995e-02    5.124268e-06
  4.600888e-02    5.116897e-06
  4.630781e-02    5.111551e-06
  4.660674e-02    5.111758e-06
  4.690567e-02    5.088097e-06
  4.720460e-02    5.086973e-06
  4.750353e-02    5.091222e-06
  4.780246e-02    5.112702e-06
  4.810139e-02    5.113867e-06
  4.840032e-02    5.077036e-06
  4.869925e-02    5.091653e-06
  4.899818e-02    5.096433e-06
  4.929711e-02    5.100451e-06
  4.959604e-02    5.089847e-06
  4.989497e-02    5.063698e-06
  5.019390e-02    5.083784e-06
  5.049283e-02    5.096703e-06
  5.079176e-02    5.101172e-06
  5.109069e-02    5.141255e-06
  5.138962e-02    5.173259e-06
  5.168855e-02    5.252704e-06
  5.198748e-02    5.355380e-06
  5.228642e-02    5.287698e-06
  5.258535e-02    5.118135e-06
  5.288428e-02    5.056383e-06
  5.318321e-02    5.066912e-06
  5.348214e-02    5.047727e-06
  5.378107e-02    5.059577e-06
  5.408000e-02    5.060238e-06
  5.437893e-02    5.067363e-06
  5.467786e-02    5.087013e-06
  5.497679e-02    5.081503e-06
  5.527572e-02    5.089783e-06
  5.557465e-02    5.090744e-06
  5.587358e-02    5.090088e-06
  5.617251e-02    5.106269e-06
  5.647144e-02    5.103280e-06
  5.677037e-02    5.085182e-06
  5.706930e-02    5.090852e-06
  5.736823e-02    5.106404e-06
  5.766716e-02    5.117754e-06
  5.796609e-02    5.133729e-06
  5.826502e-02    5.128722e-06
  5.856395e-02    5.118010e-06
  5.886288e-02    5.141446e-06
  5.916181e-02    5.137950e-06
  5.946074e-02    5.167242e-06
  5.975967e-02    5.180076e-06
  6.005861e-02    5.159683e-06
  6.035754e-02    5.182625e-06
  6.065647e-02    5.213469e-06
  6.095540e-02    5.256614e-06
  6.125433e-02    5.309680e-06
  6.155326e-02    5.317109e-06
  6.185219e-02    5.288109e-06
  6.215112e-02    5.260198e-06
  6.245005e-02    5.243853e-06
  6.274898e-02    5.243051e-06
  6.304791e-02    5.268965e-06
  6.334684e-02    5.234671e-06
  6.364577e-02    5.218859e-06
  6.394470e-02    5.254612e-06
  6.424363e-02    5.282054e-06
  6.454256e-02    5.270166e-06
  6.484149e-02    5.263565e-06
  6.514042e-02    5.299083e-06
  6.543935e-02    5.302853e-06
  6.573828e-02    5.293717e-06
  6.603721e-02    5.319490e-06
  6.633614e-02    5.339434e-06
  6.663507e-02    5.355355e-06
  6.693400e-02    5.340114e-06
  6.723293e-02    5.368360e-06
  6.753186e-02    5.383408e-06
  6.783080e-02    5.374520e-06
  6.812973e-02    5.407004e-06
  6.842866e-02    5.405395e-06
  6.872759e-02    5.399703e-06
  6.902652e-02    5.424173e-06
  6.932545e-02    5.407037e-06
  6.962438e-02    5.420362e-06
  6.992331e-02    5.426731e-06
  7.022224e-02    5.429266e-06
  7.052117e-02    5.446056e-06
  7.082010e-02    5.462088e-06
  7.111903e-02    5.455685e-06
  7.141796e-02    5.468703e-06
  7.171689e-02    5.463518e-06
  7.201582e-02    5.489186e-06
  7.231475e-02    5.508217e-06
  7.261368e-02    5.501898e-06
  7.291261e-02    5.523028e-06
  7.321154e-02    5.524202e-06
  7.351047e-02    5.503538e-06
  7.380940e-02    5.510671e-06
  7.410833e-02    5.514780e-06
  7.440726e-02    5.517372e-06
  7.470619e-02    5.513481e-06
  7.500512e-02    5.526261e-06
  7.530405e-02    5.543929e-06
  7.560299e-02    5.530234e-06
  7.590192e-02    5.517775e-06
  7.620085e-02    5.520746e-06
  7.649978e-02    5.531604e-06
  7.679871e-02    5.525227e-06
  7.709764e-02    5.518141e-06
  7.739657e-02    5.517747e-06
  7.769550e-02    5.518775e-06
  7.799443e-02    5.505881e-06
  7.829336e-02    5.508528e-06
  7.859229e-02    5.520955e-06
  7.889122e-02    5.516556e-06
  7.919015e-02    5.534166e-06
  7.948908e-02    5.526698e-06
  7.978801e-02    5.521227e-06
  8.008694e-02    5.515385e-06
  8.038587e-02    5.496591e-06
  8.068480e-02    5.491443e-06
  8.098373e-02    5.489795e-06
  8.128266e-02    5.466672e-06
  8.158159e-02    5.474837e-06
  8.188052e-02    5.508291e-06
  8.217945e-02    5.484423e-06
  8.247838e-02    5.481335e-06
  8.277731e-02    5.470908e-06
  8.307624e-02    5.462789e-06
  8.337518e-02    5.469198e-06
  8.367411e-02    5.455810e-06
  8.397304e-02    5.425289e-06
  8.427197e-02    5.407037e-06
  8.457090e-02    5.415338e-06
  8.486983e-02    5.410521e-06
  8.516876e-02    5.400907e-06
  8.546769e-02    5.418199e-06
  8.576662e-02    5.425997e-06
  8.606555e-02    5.377460e-06
  8.636448e-02    5.379653e-06
  8.666341e-02    5.370033e-06
  8.696234e-02    5.374617e-06
  8.726127e-02    5.372930e-06
  8.756020e-02    5.374427e-06
  8.785913e-02    5.349412e-06
  8.815806e-02    5.340366e-06
  8.845699e-02    5.338940e-06
  8.875592e-02    5.334168e-06
  8.905485e-02    5.302742e-06
  8.935378e-02    5.290395e-06
  8.965271e-02    5.274832e-06
  8.995164e-02    5.265029e-06
  9.025057e-02    5.271314e-06
  9.054950e-02    5.261810e-06
  9.084843e-02    5.254368e-06
  9.114737e-02    5.251998e-06
  9.144630e-02    5.223207e-06
  9.174523e-02    5.211639e-06
  9.204416e-02    5.203674e-06
  9.234309e-02    5.194989e-06
  9.264202e-02    5.174772e-06
  9.294095e-02    5.159578e-06
  9.323988e-02    5.160466e-06
  9.353881e-02    5.157437e-06
  9.383774e-02    5.157317e-06
  9.413667e-02    5.160107e-06
  9.443560e-02    5.157247e-06
  9.473453e-02    5.144524e-06
  9.503346e-02    5.134353e-06
  9.533239e-02    5.147477e-06
  9.563132e-02    5.146606e-06
  9.593025e-02    5.120795e-06
  9.622918e-02    5.130607e-06
  9.652811e-02    5.144999e-06
  9.682704e-02    5.141441e-06
  9.712597e-02    5.105534e-06
  9.742490e-02    5.095437e-06
  9.772383e-02    5.061418e-06
  9.802276e-02    5.038999e-06
  9.832169e-02    5.012872e-06
  9.862062e-02    5.003832e-06
  9.891956e-02    5.001059e-06
  9.921849e-02    4.993398e-06
  9.951742e-02    4.962979e-06
  9.981635e-02    4.926290e-06
  1.001153e-01    4.942088e-06
  1.004142e-01    4.944498e-06
  1.007131e-01    4.931059e-06
  1.010121e-01    4.908093e-06
  1.013110e-01    4.928314e-06
  1.016099e-01    4.912914e-06
  1.019089e-01    4.899887e-06
  1.022078e-01    4.854879e-06
  1.025067e-01    4.836620e-06
  1.028057e-01    4.856251e-06
  1.031046e-01    4.864687e-06
  1.034035e-01    4.855140e-06
  1.037024e-01    4.865537e-06
  1.040014e-01    4.848760e-06
  1.043003e-01    4.835041e-06
  1.045992e-01    4.813918e-06
  1.048982e-01    4.819767e-06
  1.051971e-01    4.791608e-06
  1.054960e-01    4.755792e-06
  1.057950e-01    4.752286e-06
  1.060939e-01    4.757144e-06
  1.063928e-01    4.753382e-06
  1.066917e-01    4.737220e-06
  1.069907e-01    4.724734e-06
  1.072896e-01    4.728117e-06
  1.075885e-01    4.708290e-06
  1.078875e-01    4.698786e-06
  1.081864e-01    4.707248e-06
  1.084853e-01    4.730600e-06
  1.087843e-01    4.724412e-06
  1.090832e-01    4.706718e-06
  1.093821e-01    4.674954e-06
  1.096810e-01    4.647846e-06
  1.099800e-01    4.643479e-06
  1.102789e-01    4.612101e-06
  1.105778e-01    4.615760e-06
  1.108768e-01    4.579535e-06
  1.111757e-01    4.550339e-06
  1.114746e-01    4.517364e-06
  1.117736e-01    4.509434e-06
  1.120725e-01    4.527250e-06
  1.123714e-01    4.549312e-06
  1.126704e-01    4.588640e-06
  1.129693e-01    4.553042e-06
  1.132682e-01    4.475514e-06
  1.135671e-01    4.469960e-06
  1.138661e-01    4.481557e-06
  1.141650e-01    4.447666e-06
  1.144639e-01    4.443691e-06
  1.147629e-01    4.459619e-06
  1.150618e-01    4.465377e-06
  1.153607e-01    4.489671e-06
  1.156597e-01    4.435400e-06
  1.159586e-01    4.406977e-06
  1.162575e-01    4.391004e-06
  1.165564e-01    4.378365e-06
  1.168554e-01    4.360789e-06
  1.171543e-01    4.404516e-06
  1.174532e-01    4.430321e-06
  1.177522e-01    4.446686e-06
  1.180511e-01    4.432160e-06
  1.183500e-01    4.362212e-06
  1.186490e-01    4.343096e-06
  1.189479e-01    4.373730e-06
  1.192468e-01    4.404415e-06
  1.195458e-01    4.424652e-06
  1.198447e-01    4.427678e-06
  1.201436e-01    4.406224e-06
  1.204425e-01    4.252855e-06
  1.207415e-01    4.361602e-06
  1.210404e-01    4.387610e-06
  1.213393e-01    0.000000e+00
  1.216383e-01    0.000000e+00
  1.219372e-01    0.000000e+00
  1.222361e-01    0.000000e+00
  1.225351e-01    0.000000e+00
  1.228340e-01    0.000000e+00
  1.231329e-01    0.000000e+00
  1.234318e-01    0.000000e+00
  1.237308e-01    0.000000e+00
  1.240297e-01    0.000000e+00
  1.243286e-01    0.000000e+00
  1.246276e-01    0.000000e+00
  1.249265e-01    0.000000e+00
  1.252254e-01    0.000000e+00
  1.255244e-01    0.000000e+00
  1.258233e-01    0.000000e+00
  1.261222e-01    0.000000e+00
  1.264212e-01    0.000000e+00
  1.267201e-01    0.000000e+00
  1.270190e-01    0.000000e+00
  1.273179e-01    0.000000e+00
  1.276169e-01    0.000000e+00
  1.279158e-01    0.000000e+00
  1.282147e-01    0.000000e+00
  1.285137e-01    0.000000e+00
  1.288126e-01    0.000000e+00
  1.291115e-01    0.000000e+00
  1.294105e-01    0.000000e+00
  1.297094e-01    0.000000e+00
  1.300083e-01    0.000000e+00
  1.303072e-01    0.000000e+00
  1.306062e-01    0.000000e+00
  1.309051e-01    0.000000e+00
  1.312040e-01    0.000000e+00
  1.315030e-01    0.000000e+00
  1.318019e-01    0.000000e+00
  1.321008e-01    0.000000e+00
  1.323998e-01    0.000000e+00
  1.326987e-01    0.000000e+00
  1.329976e-01    0.000000e+00
  1.332965e-01    0.000000e+00
  1.335955e-01    0.000000e+00
  1.338944e-01    0.000000e+00
  1.341933e-01    0.000000e+00
  1.344923e-01    0.000000e+00
  1.347912e-01    0.000000e+00
  1.350901e-01    0.000000e+00
  1.353891e-01    0.000000e+00
  1.356880e-01    0.000000e+00
  1.359869e-01    0.000000e+00
  1.362859e-01    0.000000e+00
  1.365848e-01    0.000000e+00
  1.368837e-01    0.000000e+00
  1.371826e-01    0.000000e+00
  1.374816e-01    0.000000e+00
  1.377805e-01    0.000000e+00
  1.380794e-01    0.000000e+00
  1.383784e-01    0.000000e+00
  1.386773e-01    0.000000e+00
  1.389762e-01    0.000000e+00
  1.392752e-01    0.000000e+00
  1.395741e-01    0.000000e+00
  1.398730e-01    0.000000e+00
  1.401719e-01    0.000000e+00
  1.404709e-01    0.000000e+00
  1.407698e-01    0.000000e+00
  1.410687e-01    0.000000e+00
  1.413677e-01    0.000000e+00
  1.416666e-01    0.000000e+00
  1.419655e-01    0.000000e+00
  1.422645e-01    0.000000e+00
  1.425634e-01    0.000000e+00
  1.428623e-01    0.000000e+00
  1.431613e-01    0.000000e+00
  1.434602e-01    0.000000e+00
  1.437591e-01    0.000000e+00
  1.440580e-01    0.000000e+00
  1.443570e-01    0.000000e+00
  1.446559e-01    0.000000e+00
  1.449548e-01    0.000000e+00
  1.452538e-01    0.000000e+00
  1.455527e-01    0.000000e+00
  1.458516e-01    0.000000e+00
  1.461506e-01    0.000000e+00
  1.464495e-01    0.000000e+00
  1.467484e-01    0.000000e+00
  1.470473e-01    0.000000e+00
  1.473463e-01    0.000000e+00
  1.476452e-01    0.000000e+00
  1.479441e-01    0.000000e+00
  1.482431e-01    0.000000e+00
  1.485420e-01    0.000000e+00
  1.488409e-01    0.000000e+00
  1.491399e-01    0.000000e+00
  1.494388e-01    0.000000e+00
  1.497377e-01    0.000000e+00
  1.500367e-01    0.000000e+00
  1.503356e-01    0.000000e+00
  1.506345e-01    0.000000e+00
  1.509334e-01    0.000000e+00
  1.512324e-01    0.000000e+00
  1.515313e-01    0.000000e+00
  1.518302e-01    0.000000e+00
  1.521292e-01    0.000000e+00
  1.524281e-01    0.000000e+00
  1.527270e-01    0.000000e+00
  1.530260e-01    0.000000e+00
  1.533249e-01    0.000000e+00
  1.536238e-01    0.000000e+00
