# == pyFAI calibration ==
# Distance Sample to Detector: 2.266 m
# PONI: 5.659e-02, 4.293e-02 m
# Rotations: 0.000000 0.000000 0.000000 rad
# 
# == Fit2d calibration ==
# Distance Sample-beamCenter: 2266.000 mm
# Center: x=249.594, y=329.012 pix
# Tilt: 0.000 deg  TiltPlanRot: 0.000 deg
# 
# Detector Pilatus 300k	 PixelSize= 1.720e-04, 1.720e-04 m
#    Detector has a mask: True 
#    Detector has a dark current: False 
#    detector has a flat field: False 
# 
# Wavelength: 1.27818e-10 m
# Mask applied: user provided
# Dark current applied: False
# Flat field applied: False
# Polarization factor: None
# Normalization factor: 8494870.0
# --> MT-AL_F127_220226_b58c268f-669c-400a-ab68-2f1aa91c9389_2_r1d.csv
#        q_A^-1             I 
  4.457554e-03    2.044370e-03
  4.756484e-03    1.596343e-03
  5.055415e-03    1.123170e-03
  5.354345e-03    7.700755e-04
  5.653276e-03    5.879510e-04
  5.952206e-03    9.672252e-04
  6.251136e-03    8.845869e-04
  6.550067e-03    7.691143e-04
  6.848997e-03    6.551488e-04
  7.147927e-03    5.526773e-04
  7.446858e-03    4.715074e-04
  7.745788e-03    4.042341e-04
  8.044719e-03    3.472669e-04
  8.343649e-03    3.020996e-04
  8.642579e-03    2.637414e-04
  8.941510e-03    2.323977e-04
  9.240440e-03    2.063755e-04
  9.539371e-03    1.828642e-04
  9.838301e-03    1.626269e-04
  1.013723e-02    1.454484e-04
  1.043616e-02    1.307477e-04
  1.073509e-02    1.173001e-04
  1.103402e-02    1.064622e-04
  1.133295e-02    9.631219e-05
  1.163188e-02    8.784235e-05
  1.193081e-02    8.051717e-05
  1.222974e-02    7.363930e-05
  1.252867e-02    6.740394e-05
  1.282760e-02    6.195784e-05
  1.312654e-02    5.708906e-05
  1.342547e-02    5.295803e-05
  1.372440e-02    4.929858e-05
  1.402333e-02    4.588743e-05
  1.432226e-02    4.266570e-05
  1.462119e-02    3.974693e-05
  1.492012e-02    3.703707e-05
  1.521905e-02    3.453973e-05
  1.551798e-02    3.240542e-05
  1.581691e-02    3.039230e-05
  1.611584e-02    2.866091e-05
  1.641477e-02    2.723353e-05
  1.671370e-02    2.574604e-05
  1.701263e-02    2.435865e-05
  1.731156e-02    2.310711e-05
  1.761049e-02    2.198544e-05
  1.790942e-02    2.097473e-05
  1.820835e-02    1.992870e-05
  1.850728e-02    1.884049e-05
  1.880621e-02    1.814290e-05
  1.910514e-02    1.740266e-05
  1.940407e-02    1.663381e-05
  1.970300e-02    1.592864e-05
  2.000193e-02    1.535606e-05
  2.030086e-02    1.478543e-05
  2.059979e-02    1.421075e-05
  2.089873e-02    1.374188e-05
  2.119766e-02    1.327803e-05
  2.149659e-02    1.288848e-05
  2.179552e-02    1.253525e-05
  2.209445e-02    1.215591e-05
  2.239338e-02    1.177507e-05
  2.269231e-02    1.150868e-05
  2.299124e-02    1.113869e-05
  2.329017e-02    1.082190e-05
  2.358910e-02    1.055115e-05
  2.388803e-02    1.030104e-05
  2.418696e-02    1.012377e-05
  2.448589e-02    9.871734e-06
  2.478482e-02    9.638755e-06
  2.508375e-02    9.474845e-06
  2.538268e-02    9.267434e-06
  2.568161e-02    9.061755e-06
  2.598054e-02    8.894813e-06
  2.627947e-02    8.776366e-06
  2.657840e-02    8.636427e-06
  2.687733e-02    8.509297e-06
  2.717626e-02    8.381436e-06
  2.747519e-02    8.248226e-06
  2.777412e-02    8.178902e-06
  2.807305e-02    8.088701e-06
  2.837198e-02    7.969586e-06
  2.867092e-02    7.828554e-06
  2.896985e-02    7.723233e-06
  2.926878e-02    7.658844e-06
  2.956771e-02    7.590262e-06
  2.986664e-02    7.498876e-06
  3.016557e-02    7.448381e-06
  3.046450e-02    7.336462e-06
  3.076343e-02    7.253188e-06
  3.106236e-02    7.199236e-06
  3.136129e-02    7.159514e-06
  3.166022e-02    7.126275e-06
  3.195915e-02    7.074431e-06
  3.225808e-02    6.940158e-06
  3.255701e-02    6.816704e-06
  3.285594e-02    6.752841e-06
  3.315487e-02    6.691886e-06
  3.345380e-02    6.652674e-06
  3.375273e-02    6.607475e-06
  3.405166e-02    6.514124e-06
  3.435059e-02    6.406191e-06
  3.464952e-02    6.399353e-06
  3.494845e-02    6.406486e-06
  3.524738e-02    6.287493e-06
  3.554631e-02    6.186097e-06
  3.584524e-02    6.147854e-06
  3.614417e-02    6.113453e-06
  3.644310e-02    6.083910e-06
  3.674204e-02    6.035433e-06
  3.704097e-02    5.953080e-06
  3.733990e-02    5.888122e-06
  3.763883e-02    5.875990e-06
  3.793776e-02    5.800703e-06
  3.823669e-02    5.747192e-06
  3.853562e-02    5.738653e-06
  3.883455e-02    5.695448e-06
  3.913348e-02    5.620591e-06
  3.943241e-02    5.647207e-06
  3.973134e-02    5.608801e-06
  4.003027e-02    5.611947e-06
  4.032920e-02    5.588868e-06
  4.062813e-02    5.559082e-06
  4.092706e-02    5.525504e-06
  4.122599e-02    5.492482e-06
  4.152492e-02    5.472819e-06
  4.182385e-02    5.402906e-06
  4.212278e-02    5.359233e-06
  4.242171e-02    5.388232e-06
  4.272064e-02    5.335974e-06
  4.301957e-02    5.293376e-06
  4.331850e-02    5.305068e-06
  4.361743e-02    5.319454e-06
  4.391636e-02    5.323770e-06
  4.421529e-02    5.296541e-06
  4.451423e-02    5.284703e-06
  4.481316e-02    5.269988e-06
  4.511209e-02    5.254574e-06
  4.541102e-02    5.220926e-06
  4.570995e-02    5.248961e-06
  4.600888e-02    5.227775e-06
  4.630781e-02    5.241350e-06
  4.660674e-02    5.272729e-06
  4.690567e-02    5.183851e-06
  4.720460e-02    5.172212e-06
  4.750353e-02    5.199346e-06
  4.780246e-02    5.203626e-06
  4.810139e-02    5.185657e-06
  4.840032e-02    5.195605e-06
  4.869925e-02    5.249636e-06
  4.899818e-02    5.212242e-06
  4.929711e-02    5.202144e-06
  4.959604e-02    5.169493e-06
  4.989497e-02    5.159045e-06
  5.019390e-02    5.162308e-06
  5.049283e-02    5.146308e-06
  5.079176e-02    5.163828e-06
  5.109069e-02    5.210927e-06
  5.138962e-02    5.227714e-06
  5.168855e-02    5.390645e-06
  5.198748e-02    5.523271e-06
  5.228642e-02    5.416261e-06
  5.258535e-02    5.234464e-06
  5.288428e-02    5.137837e-06
  5.318321e-02    5.172710e-06
  5.348214e-02    5.188595e-06
  5.378107e-02    5.156671e-06
  5.408000e-02    5.131415e-06
  5.437893e-02    5.133506e-06
  5.467786e-02    5.184872e-06
  5.497679e-02    5.192342e-06
  5.527572e-02    5.171396e-06
  5.557465e-02    5.142790e-06
  5.587358e-02    5.191766e-06
  5.617251e-02    5.195335e-06
  5.647144e-02    5.187431e-06
  5.677037e-02    5.207743e-06
  5.706930e-02    5.189450e-06
  5.736823e-02    5.138735e-06
  5.766716e-02    5.142868e-06
  5.796609e-02    5.158218e-06
  5.826502e-02    5.180709e-06
  5.856395e-02    5.205217e-06
  5.886288e-02    5.205145e-06
  5.916181e-02    5.214615e-06
  5.946074e-02    5.242935e-06
  5.975967e-02    5.228068e-06
  6.005861e-02    5.242533e-06
  6.035754e-02    5.243669e-06
  6.065647e-02    5.249336e-06
  6.095540e-02    5.309012e-06
  6.125433e-02    5.381223e-06
  6.155326e-02    5.427329e-06
  6.185219e-02    5.379822e-06
  6.215112e-02    5.306117e-06
  6.245005e-02    5.279702e-06
  6.274898e-02    5.279212e-06
  6.304791e-02    5.270008e-06
  6.334684e-02    5.294085e-06
  6.364577e-02    5.293877e-06
  6.394470e-02    5.316075e-06
  6.424363e-02    5.366579e-06
  6.454256e-02    5.408604e-06
  6.484149e-02    5.395932e-06
  6.514042e-02    5.411011e-06
  6.543935e-02    5.434623e-06
  6.573828e-02    5.401607e-06
  6.603721e-02    5.426960e-06
  6.633614e-02    5.427980e-06
  6.663507e-02    5.418924e-06
  6.693400e-02    5.422036e-06
  6.723293e-02    5.446262e-06
  6.753186e-02    5.434878e-06
  6.783080e-02    5.428966e-06
  6.812973e-02    5.415175e-06
  6.842866e-02    5.469233e-06
  6.872759e-02    5.492076e-06
  6.902652e-02    5.487251e-06
  6.932545e-02    5.501336e-06
  6.962438e-02    5.504255e-06
  6.992331e-02    5.514757e-06
  7.022224e-02    5.529963e-06
  7.052117e-02    5.550433e-06
  7.082010e-02    5.551734e-06
  7.111903e-02    5.526940e-06
  7.141796e-02    5.511940e-06
  7.171689e-02    5.520751e-06
  7.201582e-02    5.528128e-06
  7.231475e-02    5.570285e-06
  7.261368e-02    5.573384e-06
  7.291261e-02    5.583267e-06
  7.321154e-02    5.564390e-06
  7.351047e-02    5.554442e-06
  7.380940e-02    5.551473e-06
  7.410833e-02    5.578745e-06
  7.440726e-02    5.577929e-06
  7.470619e-02    5.573289e-06
  7.500512e-02    5.595677e-06
  7.530405e-02    5.619995e-06
  7.560299e-02    5.600425e-06
  7.590192e-02    5.590824e-06
  7.620085e-02    5.565008e-06
  7.649978e-02    5.566239e-06
  7.679871e-02    5.616274e-06
  7.709764e-02    5.605416e-06
  7.739657e-02    5.613226e-06
  7.769550e-02    5.595335e-06
  7.799443e-02    5.610778e-06
  7.829336e-02    5.606656e-06
  7.859229e-02    5.580297e-06
  7.889122e-02    5.580126e-06
  7.919015e-02    5.587305e-06
  7.948908e-02    5.596572e-06
  7.978801e-02    5.609512e-06
  8.008694e-02    5.602606e-06
  8.038587e-02    5.542170e-06
  8.068480e-02    5.531222e-06
  8.098373e-02    5.555628e-06
  8.128266e-02    5.557531e-06
  8.158159e-02    5.547496e-06
  8.188052e-02    5.567141e-06
  8.217945e-02    5.557486e-06
  8.247838e-02    5.551798e-06
  8.277731e-02    5.536424e-06
  8.307624e-02    5.526728e-06
  8.337518e-02    5.525092e-06
  8.367411e-02    5.514239e-06
  8.397304e-02    5.508795e-06
  8.427197e-02    5.478271e-06
  8.457090e-02    5.465467e-06
  8.486983e-02    5.512078e-06
  8.516876e-02    5.514149e-06
  8.546769e-02    5.480895e-06
  8.576662e-02    5.465788e-06
  8.606555e-02    5.463792e-06
  8.636448e-02    5.447814e-06
  8.666341e-02    5.440247e-06
  8.696234e-02    5.433686e-06
  8.726127e-02    5.421058e-06
  8.756020e-02    5.403432e-06
  8.785913e-02    5.400203e-06
  8.815806e-02    5.403981e-06
  8.845699e-02    5.398275e-06
  8.875592e-02    5.384439e-06
  8.905485e-02    5.381324e-06
  8.935378e-02    5.349180e-06
  8.965271e-02    5.304699e-06
  8.995164e-02    5.290271e-06
  9.025057e-02    5.280637e-06
  9.054950e-02    5.264377e-06
  9.084843e-02    5.269658e-06
  9.114737e-02    5.273382e-06
  9.144630e-02    5.263517e-06
  9.174523e-02    5.259744e-06
  9.204416e-02    5.227025e-06
  9.234309e-02    5.237187e-06
  9.264202e-02    5.208766e-06
  9.294095e-02    5.199252e-06
  9.323988e-02    5.187455e-06
  9.353881e-02    5.192393e-06
  9.383774e-02    5.179355e-06
  9.413667e-02    5.191549e-06
  9.443560e-02    5.185418e-06
  9.473453e-02    5.165718e-06
  9.503346e-02    5.154609e-06
  9.533239e-02    5.163984e-06
  9.563132e-02    5.142670e-06
  9.593025e-02    5.116359e-06
  9.622918e-02    5.123907e-06
  9.652811e-02    5.170526e-06
  9.682704e-02    5.204207e-06
  9.712597e-02    5.183869e-06
  9.742490e-02    5.148482e-06
  9.772383e-02    5.120024e-06
  9.802276e-02    5.092169e-06
  9.832169e-02    5.082623e-06
  9.862062e-02    5.045682e-06
  9.891956e-02    5.065834e-06
  9.921849e-02    5.064128e-06
  9.951742e-02    5.040059e-06
  9.981635e-02    5.007038e-06
  1.001153e-01    4.977086e-06
  1.004142e-01    4.970445e-06
  1.007131e-01    4.953662e-06
  1.010121e-01    4.956804e-06
  1.013110e-01    4.949525e-06
  1.016099e-01    4.899530e-06
  1.019089e-01    4.901950e-06
  1.022078e-01    4.921943e-06
  1.025067e-01    4.897418e-06
  1.028057e-01    4.898591e-06
  1.031046e-01    4.882577e-06
  1.034035e-01    4.851191e-06
  1.037024e-01    4.871753e-06
  1.040014e-01    4.899976e-06
  1.043003e-01    4.883881e-06
  1.045992e-01    4.853681e-06
  1.048982e-01    4.839958e-06
  1.051971e-01    4.832290e-06
  1.054960e-01    4.820468e-06
  1.057950e-01    4.769950e-06
  1.060939e-01    4.803096e-06
  1.063928e-01    4.835162e-06
  1.066917e-01    4.779387e-06
  1.069907e-01    4.748837e-06
  1.072896e-01    4.766645e-06
  1.075885e-01    4.782989e-06
  1.078875e-01    4.781380e-06
  1.081864e-01    4.784764e-06
  1.084853e-01    4.753347e-06
  1.087843e-01    4.755222e-06
  1.090832e-01    4.752012e-06
  1.093821e-01    4.720158e-06
  1.096810e-01    4.683377e-06
  1.099800e-01    4.712021e-06
  1.102789e-01    4.707760e-06
  1.105778e-01    4.657931e-06
  1.108768e-01    4.633399e-06
  1.111757e-01    4.632435e-06
  1.114746e-01    4.630389e-06
  1.117736e-01    4.616119e-06
  1.120725e-01    4.607049e-06
  1.123714e-01    4.586735e-06
  1.126704e-01    4.568105e-06
  1.129693e-01    4.542595e-06
  1.132682e-01    4.551459e-06
  1.135671e-01    4.513415e-06
  1.138661e-01    4.488752e-06
  1.141650e-01    4.540828e-06
  1.144639e-01    4.544750e-06
  1.147629e-01    4.480639e-06
  1.150618e-01    4.457705e-06
  1.153607e-01    4.494363e-06
  1.156597e-01    4.494480e-06
  1.159586e-01    4.438660e-06
  1.162575e-01    4.424051e-06
  1.165564e-01    4.431645e-06
  1.168554e-01    4.494182e-06
  1.171543e-01    4.454332e-06
  1.174532e-01    4.408122e-06
  1.177522e-01    4.417998e-06
  1.180511e-01    4.455978e-06
  1.183500e-01    4.521133e-06
  1.186490e-01    4.435927e-06
  1.189479e-01    4.319655e-06
  1.192468e-01    4.349629e-06
  1.195458e-01    4.408135e-06
  1.198447e-01    4.405041e-06
  1.201436e-01    4.445301e-06
  1.204425e-01    4.631783e-06
  1.207415e-01    4.572013e-06
  1.210404e-01    4.595165e-06
  1.213393e-01    0.000000e+00
  1.216383e-01    0.000000e+00
  1.219372e-01    0.000000e+00
  1.222361e-01    0.000000e+00
  1.225351e-01    0.000000e+00
  1.228340e-01    0.000000e+00
  1.231329e-01    0.000000e+00
  1.234318e-01    0.000000e+00
  1.237308e-01    0.000000e+00
  1.240297e-01    0.000000e+00
  1.243286e-01    0.000000e+00
  1.246276e-01    0.000000e+00
  1.249265e-01    0.000000e+00
  1.252254e-01    0.000000e+00
  1.255244e-01    0.000000e+00
  1.258233e-01    0.000000e+00
  1.261222e-01    0.000000e+00
  1.264212e-01    0.000000e+00
  1.267201e-01    0.000000e+00
  1.270190e-01    0.000000e+00
  1.273179e-01    0.000000e+00
  1.276169e-01    0.000000e+00
  1.279158e-01    0.000000e+00
  1.282147e-01    0.000000e+00
  1.285137e-01    0.000000e+00
  1.288126e-01    0.000000e+00
  1.291115e-01    0.000000e+00
  1.294105e-01    0.000000e+00
  1.297094e-01    0.000000e+00
  1.300083e-01    0.000000e+00
  1.303072e-01    0.000000e+00
  1.306062e-01    0.000000e+00
  1.309051e-01    0.000000e+00
  1.312040e-01    0.000000e+00
  1.315030e-01    0.000000e+00
  1.318019e-01    0.000000e+00
  1.321008e-01    0.000000e+00
  1.323998e-01    0.000000e+00
  1.326987e-01    0.000000e+00
  1.329976e-01    0.000000e+00
  1.332965e-01    0.000000e+00
  1.335955e-01    0.000000e+00
  1.338944e-01    0.000000e+00
  1.341933e-01    0.000000e+00
  1.344923e-01    0.000000e+00
  1.347912e-01    0.000000e+00
  1.350901e-01    0.000000e+00
  1.353891e-01    0.000000e+00
  1.356880e-01    0.000000e+00
  1.359869e-01    0.000000e+00
  1.362859e-01    0.000000e+00
  1.365848e-01    0.000000e+00
  1.368837e-01    0.000000e+00
  1.371826e-01    0.000000e+00
  1.374816e-01    0.000000e+00
  1.377805e-01    0.000000e+00
  1.380794e-01    0.000000e+00
  1.383784e-01    0.000000e+00
  1.386773e-01    0.000000e+00
  1.389762e-01    0.000000e+00
  1.392752e-01    0.000000e+00
  1.395741e-01    0.000000e+00
  1.398730e-01    0.000000e+00
  1.401719e-01    0.000000e+00
  1.404709e-01    0.000000e+00
  1.407698e-01    0.000000e+00
  1.410687e-01    0.000000e+00
  1.413677e-01    0.000000e+00
  1.416666e-01    0.000000e+00
  1.419655e-01    0.000000e+00
  1.422645e-01    0.000000e+00
  1.425634e-01    0.000000e+00
  1.428623e-01    0.000000e+00
  1.431613e-01    0.000000e+00
  1.434602e-01    0.000000e+00
  1.437591e-01    0.000000e+00
  1.440580e-01    0.000000e+00
  1.443570e-01    0.000000e+00
  1.446559e-01    0.000000e+00
  1.449548e-01    0.000000e+00
  1.452538e-01    0.000000e+00
  1.455527e-01    0.000000e+00
  1.458516e-01    0.000000e+00
  1.461506e-01    0.000000e+00
  1.464495e-01    0.000000e+00
  1.467484e-01    0.000000e+00
  1.470473e-01    0.000000e+00
  1.473463e-01    0.000000e+00
  1.476452e-01    0.000000e+00
  1.479441e-01    0.000000e+00
  1.482431e-01    0.000000e+00
  1.485420e-01    0.000000e+00
  1.488409e-01    0.000000e+00
  1.491399e-01    0.000000e+00
  1.494388e-01    0.000000e+00
  1.497377e-01    0.000000e+00
  1.500367e-01    0.000000e+00
  1.503356e-01    0.000000e+00
  1.506345e-01    0.000000e+00
  1.509334e-01    0.000000e+00
  1.512324e-01    0.000000e+00
  1.515313e-01    0.000000e+00
  1.518302e-01    0.000000e+00
  1.521292e-01    0.000000e+00
  1.524281e-01    0.000000e+00
  1.527270e-01    0.000000e+00
  1.530260e-01    0.000000e+00
  1.533249e-01    0.000000e+00
  1.536238e-01    0.000000e+00
