# == pyFAI calibration ==
# Distance Sample to Detector: 2.266 m
# PONI: 5.659e-02, 4.293e-02 m
# Rotations: 0.000000 0.000000 0.000000 rad
# 
# == Fit2d calibration ==
# Distance Sample-beamCenter: 2266.000 mm
# Center: x=249.594, y=329.012 pix
# Tilt: 0.000 deg  TiltPlanRot: 0.000 deg
# 
# Detector Pilatus 300k	 PixelSize= 1.720e-04, 1.720e-04 m
#    Detector has a mask: True 
#    Detector has a dark current: False 
#    detector has a flat field: False 
# 
# Wavelength: 1.27818e-10 m
# Mask applied: user provided
# Dark current applied: False
# Flat field applied: False
# Polarization factor: None
# Normalization factor: 49557.490000000005
# --> MT-AL_DowExpt1_220227_01146fe9-c5fe-4e08-be5d-13ccce9ea5a4_0_r1d.csv
#        q_A^-1             I 
  4.457554e-03    4.181747e-02
  4.756484e-03    3.255092e-02
  5.055415e-03    2.362848e-02
  5.354345e-03    1.749482e-02
  5.653276e-03    1.373750e-02
  5.952206e-03    2.127418e-02
  6.251136e-03    1.936236e-02
  6.550067e-03    1.690926e-02
  6.848997e-03    1.440954e-02
  7.147927e-03    1.212344e-02
  7.446858e-03    1.035427e-02
  7.745788e-03    8.943998e-03
  8.044719e-03    7.772321e-03
  8.343649e-03    6.806270e-03
  8.642579e-03    5.911383e-03
  8.941510e-03    5.215381e-03
  9.240440e-03    4.633956e-03
  9.539371e-03    4.131254e-03
  9.838301e-03    3.689234e-03
  1.013723e-02    3.300696e-03
  1.043616e-02    2.929072e-03
  1.073509e-02    2.626632e-03
  1.103402e-02    2.374414e-03
  1.133295e-02    2.145501e-03
  1.163188e-02    1.960540e-03
  1.193081e-02    1.801202e-03
  1.222974e-02    1.652437e-03
  1.252867e-02    1.518863e-03
  1.282760e-02    1.400404e-03
  1.312654e-02    1.290529e-03
  1.342547e-02    1.173220e-03
  1.372440e-02    1.083682e-03
  1.402333e-02    1.012324e-03
  1.432226e-02    9.337875e-04
  1.462119e-02    8.725396e-04
  1.492012e-02    8.154275e-04
  1.521905e-02    7.638360e-04
  1.551798e-02    7.192282e-04
  1.581691e-02    6.757925e-04
  1.611584e-02    6.327457e-04
  1.641477e-02    6.012301e-04
  1.671370e-02    5.633587e-04
  1.701263e-02    5.254732e-04
  1.731156e-02    5.002481e-04
  1.761049e-02    4.745232e-04
  1.790942e-02    4.514878e-04
  1.820835e-02    4.321326e-04
  1.850728e-02    4.111542e-04
  1.880621e-02    3.946249e-04
  1.910514e-02    3.783075e-04
  1.940407e-02    3.544753e-04
  1.970300e-02    3.455364e-04
  2.000193e-02    3.312705e-04
  2.030086e-02    3.116572e-04
  2.059979e-02    2.970514e-04
  2.089873e-02    2.911500e-04
  2.119766e-02    2.830373e-04
  2.149659e-02    2.704739e-04
  2.179552e-02    2.587690e-04
  2.209445e-02    2.537777e-04
  2.239338e-02    2.487594e-04
  2.269231e-02    2.355870e-04
  2.299124e-02    2.310288e-04
  2.329017e-02    2.264364e-04
  2.358910e-02    2.208168e-04
  2.388803e-02    2.116972e-04
  2.418696e-02    2.076089e-04
  2.448589e-02    2.038046e-04
  2.478482e-02    1.987779e-04
  2.508375e-02    1.948601e-04
  2.538268e-02    1.929783e-04
  2.568161e-02    1.886282e-04
  2.598054e-02    1.837858e-04
  2.627947e-02    1.787878e-04
  2.657840e-02    1.790620e-04
  2.687733e-02    1.740610e-04
  2.717626e-02    1.696325e-04
  2.747519e-02    1.676745e-04
  2.777412e-02    1.642959e-04
  2.807305e-02    1.612715e-04
  2.837198e-02    1.629978e-04
  2.867092e-02    1.575907e-04
  2.896985e-02    1.523155e-04
  2.926878e-02    1.507960e-04
  2.956771e-02    1.486760e-04
  2.986664e-02    1.488101e-04
  3.016557e-02    1.481237e-04
  3.046450e-02    1.452276e-04
  3.076343e-02    1.425418e-04
  3.106236e-02    1.401099e-04
  3.136129e-02    1.423523e-04
  3.166022e-02    1.381860e-04
  3.195915e-02    1.343831e-04
  3.225808e-02    1.363402e-04
  3.255701e-02    1.380753e-04
  3.285594e-02    1.329492e-04
  3.315487e-02    1.298240e-04
  3.345380e-02    1.313773e-04
  3.375273e-02    1.306194e-04
  3.405166e-02    1.306907e-04
  3.435059e-02    1.281653e-04
  3.464952e-02    1.268360e-04
  3.494845e-02    1.269930e-04
  3.524738e-02    1.249145e-04
  3.554631e-02    1.230360e-04
  3.584524e-02    1.202534e-04
  3.614417e-02    1.189146e-04
  3.644310e-02    1.183572e-04
  3.674204e-02    1.182621e-04
  3.704097e-02    1.150438e-04
  3.733990e-02    1.153942e-04
  3.763883e-02    1.146539e-04
  3.793776e-02    1.137241e-04
  3.823669e-02    1.139092e-04
  3.853562e-02    1.154383e-04
  3.883455e-02    1.121901e-04
  3.913348e-02    1.103265e-04
  3.943241e-02    1.103148e-04
  3.973134e-02    1.128768e-04
  4.003027e-02    1.119652e-04
  4.032920e-02    1.107586e-04
  4.062813e-02    1.092985e-04
  4.092706e-02    1.094844e-04
  4.122599e-02    1.084286e-04
  4.152492e-02    1.068284e-04
  4.182385e-02    1.074617e-04
  4.212278e-02    1.072644e-04
  4.242171e-02    1.045586e-04
  4.272064e-02    1.050781e-04
  4.301957e-02    1.088870e-04
  4.331850e-02    1.069362e-04
  4.361743e-02    1.038342e-04
  4.391636e-02    1.065264e-04
  4.421529e-02    1.049116e-04
  4.451423e-02    1.059518e-04
  4.481316e-02    1.054913e-04
  4.511209e-02    1.034113e-04
  4.541102e-02    1.034979e-04
  4.570995e-02    1.058974e-04
  4.600888e-02    1.073290e-04
  4.630781e-02    1.047982e-04
  4.660674e-02    1.036717e-04
  4.690567e-02    1.029479e-04
  4.720460e-02    1.036584e-04
  4.750353e-02    1.043166e-04
  4.780246e-02    1.040638e-04
  4.810139e-02    1.023777e-04
  4.840032e-02    1.011240e-04
  4.869925e-02    1.017194e-04
  4.899818e-02    1.027673e-04
  4.929711e-02    1.025199e-04
  4.959604e-02    1.043827e-04
  4.989497e-02    1.041305e-04
  5.019390e-02    1.041552e-04
  5.049283e-02    1.034859e-04
  5.079176e-02    1.034717e-04
  5.109069e-02    1.032212e-04
  5.138962e-02    1.023383e-04
  5.168855e-02    1.055852e-04
  5.198748e-02    1.051425e-04
  5.228642e-02    1.060705e-04
  5.258535e-02    1.068949e-04
  5.288428e-02    1.059792e-04
  5.318321e-02    1.040706e-04
  5.348214e-02    1.052604e-04
  5.378107e-02    1.062039e-04
  5.408000e-02    1.041959e-04
  5.437893e-02    1.038300e-04
  5.467786e-02    1.042345e-04
  5.497679e-02    1.026175e-04
  5.527572e-02    1.019978e-04
  5.557465e-02    1.032440e-04
  5.587358e-02    1.043618e-04
  5.617251e-02    1.041890e-04
  5.647144e-02    1.038856e-04
  5.677037e-02    1.040883e-04
  5.706930e-02    1.039705e-04
  5.736823e-02    1.044558e-04
  5.766716e-02    1.039789e-04
  5.796609e-02    1.028496e-04
  5.826502e-02    1.041393e-04
  5.856395e-02    1.040881e-04
  5.886288e-02    1.044225e-04
  5.916181e-02    1.045113e-04
  5.946074e-02    1.041796e-04
  5.975967e-02    1.047650e-04
  6.005861e-02    1.053538e-04
  6.035754e-02    1.068123e-04
  6.065647e-02    1.068606e-04
  6.095540e-02    1.068628e-04
  6.125433e-02    1.089259e-04
  6.155326e-02    1.078364e-04
  6.185219e-02    1.052698e-04
  6.215112e-02    1.049980e-04
  6.245005e-02    1.059718e-04
  6.274898e-02    1.069304e-04
  6.304791e-02    1.067065e-04
  6.334684e-02    1.047464e-04
  6.364577e-02    1.033422e-04
  6.394470e-02    1.055635e-04
  6.424363e-02    1.067932e-04
  6.454256e-02    1.060442e-04
  6.484149e-02    1.054067e-04
  6.514042e-02    1.064580e-04
  6.543935e-02    1.085827e-04
  6.573828e-02    1.070202e-04
  6.603721e-02    1.042218e-04
  6.633614e-02    1.068431e-04
  6.663507e-02    1.093646e-04
  6.693400e-02    1.096221e-04
  6.723293e-02    1.094125e-04
  6.753186e-02    1.074967e-04
  6.783080e-02    1.075508e-04
  6.812973e-02    1.069740e-04
  6.842866e-02    1.071553e-04
  6.872759e-02    1.083512e-04
  6.902652e-02    1.078211e-04
  6.932545e-02    1.072434e-04
  6.962438e-02    1.086747e-04
  6.992331e-02    1.095158e-04
  7.022224e-02    1.094749e-04
  7.052117e-02    1.103794e-04
  7.082010e-02    1.107133e-04
  7.111903e-02    1.104163e-04
  7.141796e-02    1.083419e-04
  7.171689e-02    1.078288e-04
  7.201582e-02    1.109060e-04
  7.231475e-02    1.091611e-04
  7.261368e-02    1.095001e-04
  7.291261e-02    1.094845e-04
  7.321154e-02    1.102982e-04
  7.351047e-02    1.112639e-04
  7.380940e-02    1.093591e-04
  7.410833e-02    1.098177e-04
  7.440726e-02    1.100729e-04
  7.470619e-02    1.094364e-04
  7.500512e-02    1.109018e-04
  7.530405e-02    1.126700e-04
  7.560299e-02    1.110578e-04
  7.590192e-02    1.093327e-04
  7.620085e-02    1.081919e-04
  7.649978e-02    1.116980e-04
  7.679871e-02    1.107264e-04
  7.709764e-02    1.068610e-04
  7.739657e-02    1.085366e-04
  7.769550e-02    1.094676e-04
  7.799443e-02    1.112674e-04
  7.829336e-02    1.116789e-04
  7.859229e-02    1.103045e-04
  7.889122e-02    1.096632e-04
  7.919015e-02    1.090948e-04
  7.948908e-02    1.089201e-04
  7.978801e-02    1.084578e-04
  8.008694e-02    1.100891e-04
  8.038587e-02    1.098337e-04
  8.068480e-02    1.103385e-04
  8.098373e-02    1.083370e-04
  8.128266e-02    1.074357e-04
  8.158159e-02    1.089670e-04
  8.188052e-02    1.081153e-04
  8.217945e-02    1.090212e-04
  8.247838e-02    1.083417e-04
  8.277731e-02    1.061985e-04
  8.307624e-02    1.073807e-04
  8.337518e-02    1.063993e-04
  8.367411e-02    1.070880e-04
  8.397304e-02    1.060840e-04
  8.427197e-02    1.070440e-04
  8.457090e-02    1.089148e-04
  8.486983e-02    1.077205e-04
  8.516876e-02    1.067289e-04
  8.546769e-02    1.063178e-04
  8.576662e-02    1.049784e-04
  8.606555e-02    1.056697e-04
  8.636448e-02    1.055595e-04
  8.666341e-02    1.046352e-04
  8.696234e-02    1.060908e-04
  8.726127e-02    1.050633e-04
  8.756020e-02    1.042592e-04
  8.785913e-02    1.045937e-04
  8.815806e-02    1.045903e-04
  8.845699e-02    1.053471e-04
  8.875592e-02    1.042756e-04
  8.905485e-02    1.037368e-04
  8.935378e-02    1.035884e-04
  8.965271e-02    1.042522e-04
  8.995164e-02    1.039887e-04
  9.025057e-02    1.027891e-04
  9.054950e-02    1.017171e-04
  9.084843e-02    1.011480e-04
  9.114737e-02    1.024063e-04
  9.144630e-02    1.039262e-04
  9.174523e-02    1.021208e-04
  9.204416e-02    1.015117e-04
  9.234309e-02    1.014698e-04
  9.264202e-02    1.023963e-04
  9.294095e-02    1.035202e-04
  9.323988e-02    1.039417e-04
  9.353881e-02    1.018819e-04
  9.383774e-02    1.020020e-04
  9.413667e-02    1.024662e-04
  9.443560e-02    1.004063e-04
  9.473453e-02    1.012478e-04
  9.503346e-02    1.007839e-04
  9.533239e-02    1.003354e-04
  9.563132e-02    1.010279e-04
  9.593025e-02    1.019675e-04
  9.622918e-02    1.016307e-04
  9.652811e-02    1.004886e-04
  9.682704e-02    1.002369e-04
  9.712597e-02    1.003377e-04
  9.742490e-02    9.862805e-05
  9.772383e-02    9.841561e-05
  9.802276e-02    1.000510e-04
  9.832169e-02    9.875662e-05
  9.862062e-02    9.586672e-05
  9.891956e-02    9.789780e-05
  9.921849e-02    9.764460e-05
  9.951742e-02    9.699639e-05
  9.981635e-02    9.766489e-05
  1.001153e-01    9.643936e-05
  1.004142e-01    9.722766e-05
  1.007131e-01    9.747146e-05
  1.010121e-01    9.755239e-05
  1.013110e-01    9.650800e-05
  1.016099e-01    9.685507e-05
  1.019089e-01    9.589987e-05
  1.022078e-01    9.492554e-05
  1.025067e-01    9.419188e-05
  1.028057e-01    9.500036e-05
  1.031046e-01    9.529594e-05
  1.034035e-01    9.540205e-05
  1.037024e-01    9.597888e-05
  1.040014e-01    9.300704e-05
  1.043003e-01    9.286081e-05
  1.045992e-01    9.340296e-05
  1.048982e-01    9.478469e-05
  1.051971e-01    9.430543e-05
  1.054960e-01    9.465122e-05
  1.057950e-01    9.556375e-05
  1.060939e-01    9.451724e-05
  1.063928e-01    9.348372e-05
  1.066917e-01    9.290515e-05
  1.069907e-01    9.207903e-05
  1.072896e-01    9.271406e-05
  1.075885e-01    9.245798e-05
  1.078875e-01    9.183596e-05
  1.081864e-01    9.283252e-05
  1.084853e-01    9.305404e-05
  1.087843e-01    9.313951e-05
  1.090832e-01    9.254340e-05
  1.093821e-01    9.250805e-05
  1.096810e-01    9.076638e-05
  1.099800e-01    9.084210e-05
  1.102789e-01    9.216611e-05
  1.105778e-01    9.265899e-05
  1.108768e-01    9.108432e-05
  1.111757e-01    9.165351e-05
  1.114746e-01    9.314690e-05
  1.117736e-01    9.205635e-05
  1.120725e-01    9.139434e-05
  1.123714e-01    8.981505e-05
  1.126704e-01    8.905419e-05
  1.129693e-01    8.993831e-05
  1.132682e-01    8.824163e-05
  1.135671e-01    8.852731e-05
  1.138661e-01    9.180207e-05
  1.141650e-01    9.094529e-05
  1.144639e-01    8.966010e-05
  1.147629e-01    9.043923e-05
  1.150618e-01    9.007482e-05
  1.153607e-01    8.797772e-05
  1.156597e-01    8.989092e-05
  1.159586e-01    8.790153e-05
  1.162575e-01    8.717513e-05
  1.165564e-01    8.465885e-05
  1.168554e-01    8.281874e-05
  1.171543e-01    8.828827e-05
  1.174532e-01    8.773557e-05
  1.177522e-01    8.914054e-05
  1.180511e-01    9.031213e-05
  1.183500e-01    9.117983e-05
  1.186490e-01    8.866710e-05
  1.189479e-01    8.546798e-05
  1.192468e-01    8.523680e-05
  1.195458e-01    8.617061e-05
  1.198447e-01    8.899836e-05
  1.201436e-01    8.574390e-05
  1.204425e-01    9.763183e-05
  1.207415e-01    1.083062e-04
  1.210404e-01    1.413781e-04
  1.213393e-01    0.000000e+00
  1.216383e-01    0.000000e+00
  1.219372e-01    0.000000e+00
  1.222361e-01    0.000000e+00
  1.225351e-01    0.000000e+00
  1.228340e-01    0.000000e+00
  1.231329e-01    0.000000e+00
  1.234318e-01    0.000000e+00
  1.237308e-01    0.000000e+00
  1.240297e-01    0.000000e+00
  1.243286e-01    0.000000e+00
  1.246276e-01    0.000000e+00
  1.249265e-01    0.000000e+00
  1.252254e-01    0.000000e+00
  1.255244e-01    0.000000e+00
  1.258233e-01    0.000000e+00
  1.261222e-01    0.000000e+00
  1.264212e-01    0.000000e+00
  1.267201e-01    0.000000e+00
  1.270190e-01    0.000000e+00
  1.273179e-01    0.000000e+00
  1.276169e-01    0.000000e+00
  1.279158e-01    0.000000e+00
  1.282147e-01    0.000000e+00
  1.285137e-01    0.000000e+00
  1.288126e-01    0.000000e+00
  1.291115e-01    0.000000e+00
  1.294105e-01    0.000000e+00
  1.297094e-01    0.000000e+00
  1.300083e-01    0.000000e+00
  1.303072e-01    0.000000e+00
  1.306062e-01    0.000000e+00
  1.309051e-01    0.000000e+00
  1.312040e-01    0.000000e+00
  1.315030e-01    0.000000e+00
  1.318019e-01    0.000000e+00
  1.321008e-01    0.000000e+00
  1.323998e-01    0.000000e+00
  1.326987e-01    0.000000e+00
  1.329976e-01    0.000000e+00
  1.332965e-01    0.000000e+00
  1.335955e-01    0.000000e+00
  1.338944e-01    0.000000e+00
  1.341933e-01    0.000000e+00
  1.344923e-01    0.000000e+00
  1.347912e-01    0.000000e+00
  1.350901e-01    0.000000e+00
  1.353891e-01    0.000000e+00
  1.356880e-01    0.000000e+00
  1.359869e-01    0.000000e+00
  1.362859e-01    0.000000e+00
  1.365848e-01    0.000000e+00
  1.368837e-01    0.000000e+00
  1.371826e-01    0.000000e+00
  1.374816e-01    0.000000e+00
  1.377805e-01    0.000000e+00
  1.380794e-01    0.000000e+00
  1.383784e-01    0.000000e+00
  1.386773e-01    0.000000e+00
  1.389762e-01    0.000000e+00
  1.392752e-01    0.000000e+00
  1.395741e-01    0.000000e+00
  1.398730e-01    0.000000e+00
  1.401719e-01    0.000000e+00
  1.404709e-01    0.000000e+00
  1.407698e-01    0.000000e+00
  1.410687e-01    0.000000e+00
  1.413677e-01    0.000000e+00
  1.416666e-01    0.000000e+00
  1.419655e-01    0.000000e+00
  1.422645e-01    0.000000e+00
  1.425634e-01    0.000000e+00
  1.428623e-01    0.000000e+00
  1.431613e-01    0.000000e+00
  1.434602e-01    0.000000e+00
  1.437591e-01    0.000000e+00
  1.440580e-01    0.000000e+00
  1.443570e-01    0.000000e+00
  1.446559e-01    0.000000e+00
  1.449548e-01    0.000000e+00
  1.452538e-01    0.000000e+00
  1.455527e-01    0.000000e+00
  1.458516e-01    0.000000e+00
  1.461506e-01    0.000000e+00
  1.464495e-01    0.000000e+00
  1.467484e-01    0.000000e+00
  1.470473e-01    0.000000e+00
  1.473463e-01    0.000000e+00
  1.476452e-01    0.000000e+00
  1.479441e-01    0.000000e+00
  1.482431e-01    0.000000e+00
  1.485420e-01    0.000000e+00
  1.488409e-01    0.000000e+00
  1.491399e-01    0.000000e+00
  1.494388e-01    0.000000e+00
  1.497377e-01    0.000000e+00
  1.500367e-01    0.000000e+00
  1.503356e-01    0.000000e+00
  1.506345e-01    0.000000e+00
  1.509334e-01    0.000000e+00
  1.512324e-01    0.000000e+00
  1.515313e-01    0.000000e+00
  1.518302e-01    0.000000e+00
  1.521292e-01    0.000000e+00
  1.524281e-01    0.000000e+00
  1.527270e-01    0.000000e+00
  1.530260e-01    0.000000e+00
  1.533249e-01    0.000000e+00
  1.536238e-01    0.000000e+00
