# == pyFAI calibration ==
# Distance Sample to Detector: 2.266 m
# PONI: 5.659e-02, 4.293e-02 m
# Rotations: 0.000000 0.000000 0.000000 rad
# 
# == Fit2d calibration ==
# Distance Sample-beamCenter: 2266.000 mm
# Center: x=249.594, y=329.012 pix
# Tilt: 0.000 deg  TiltPlanRot: 0.000 deg
# 
# Detector Pilatus 300k	 PixelSize= 1.720e-04, 1.720e-04 m
#    Detector has a mask: True 
#    Detector has a dark current: False 
#    detector has a flat field: False 
# 
# Wavelength: 1.27818e-10 m
# Mask applied: user provided
# Dark current applied: False
# Flat field applied: False
# Polarization factor: None
# Normalization factor: 54434.950000000004
# --> MT-AL_DowExpt1_220227_aedcd4fd-92a4-405d-bb9b-85947d47decb_1_r1d.csv
#        q_A^-1             I 
  4.457554e-03    3.999009e-02
  4.756484e-03    3.171590e-02
  5.055415e-03    2.302164e-02
  5.354345e-03    1.655304e-02
  5.653276e-03    1.311400e-02
  5.952206e-03    2.166380e-02
  6.251136e-03    1.968314e-02
  6.550067e-03    1.695457e-02
  6.848997e-03    1.441876e-02
  7.147927e-03    1.214709e-02
  7.446858e-03    1.030638e-02
  7.745788e-03    8.794002e-03
  8.044719e-03    7.566929e-03
  8.343649e-03    6.532921e-03
  8.642579e-03    5.720517e-03
  8.941510e-03    5.067379e-03
  9.240440e-03    4.448330e-03
  9.539371e-03    3.932759e-03
  9.838301e-03    3.517812e-03
  1.013723e-02    3.137296e-03
  1.043616e-02    2.817736e-03
  1.073509e-02    2.535155e-03
  1.103402e-02    2.285485e-03
  1.133295e-02    2.062742e-03
  1.163188e-02    1.872826e-03
  1.193081e-02    1.715161e-03
  1.222974e-02    1.554923e-03
  1.252867e-02    1.404153e-03
  1.282760e-02    1.304526e-03
  1.312654e-02    1.210915e-03
  1.342547e-02    1.113443e-03
  1.372440e-02    1.024977e-03
  1.402333e-02    9.476921e-04
  1.432226e-02    8.753403e-04
  1.462119e-02    8.289731e-04
  1.492012e-02    7.683892e-04
  1.521905e-02    7.145670e-04
  1.551798e-02    6.695132e-04
  1.581691e-02    6.231378e-04
  1.611584e-02    5.870471e-04
  1.641477e-02    5.554723e-04
  1.671370e-02    5.208448e-04
  1.701263e-02    4.925083e-04
  1.731156e-02    4.747474e-04
  1.761049e-02    4.476128e-04
  1.790942e-02    4.167412e-04
  1.820835e-02    3.983383e-04
  1.850728e-02    3.758090e-04
  1.880621e-02    3.607247e-04
  1.910514e-02    3.433512e-04
  1.940407e-02    3.316271e-04
  1.970300e-02    3.185190e-04
  2.000193e-02    3.062495e-04
  2.030086e-02    2.946342e-04
  2.059979e-02    2.862125e-04
  2.089873e-02    2.684122e-04
  2.119766e-02    2.583116e-04
  2.149659e-02    2.530561e-04
  2.179552e-02    2.510820e-04
  2.209445e-02    2.456725e-04
  2.239338e-02    2.345079e-04
  2.269231e-02    2.289068e-04
  2.299124e-02    2.207939e-04
  2.329017e-02    2.112183e-04
  2.358910e-02    2.072477e-04
  2.388803e-02    2.066624e-04
  2.418696e-02    1.996436e-04
  2.448589e-02    1.959518e-04
  2.478482e-02    1.899335e-04
  2.508375e-02    1.830757e-04
  2.538268e-02    1.780217e-04
  2.568161e-02    1.764281e-04
  2.598054e-02    1.746016e-04
  2.627947e-02    1.728363e-04
  2.657840e-02    1.679971e-04
  2.687733e-02    1.667291e-04
  2.717626e-02    1.614920e-04
  2.747519e-02    1.583341e-04
  2.777412e-02    1.556602e-04
  2.807305e-02    1.491236e-04
  2.837198e-02    1.469516e-04
  2.867092e-02    1.446793e-04
  2.896985e-02    1.424029e-04
  2.926878e-02    1.417728e-04
  2.956771e-02    1.419489e-04
  2.986664e-02    1.419063e-04
  3.016557e-02    1.398515e-04
  3.046450e-02    1.386911e-04
  3.076343e-02    1.368637e-04
  3.106236e-02    1.334135e-04
  3.136129e-02    1.326959e-04
  3.166022e-02    1.307482e-04
  3.195915e-02    1.302552e-04
  3.225808e-02    1.331896e-04
  3.255701e-02    1.325155e-04
  3.285594e-02    1.305956e-04
  3.315487e-02    1.257467e-04
  3.345380e-02    1.257695e-04
  3.375273e-02    1.232653e-04
  3.405166e-02    1.200209e-04
  3.435059e-02    1.202770e-04
  3.464952e-02    1.216312e-04
  3.494845e-02    1.174264e-04
  3.524738e-02    1.171720e-04
  3.554631e-02    1.202294e-04
  3.584524e-02    1.178471e-04
  3.614417e-02    1.169683e-04
  3.644310e-02    1.175006e-04
  3.674204e-02    1.156488e-04
  3.704097e-02    1.106526e-04
  3.733990e-02    1.097228e-04
  3.763883e-02    1.133262e-04
  3.793776e-02    1.107551e-04
  3.823669e-02    1.100715e-04
  3.853562e-02    1.086109e-04
  3.883455e-02    1.077409e-04
  3.913348e-02    1.081524e-04
  3.943241e-02    1.064775e-04
  3.973134e-02    1.039219e-04
  4.003027e-02    1.053435e-04
  4.032920e-02    1.046578e-04
  4.062813e-02    1.025325e-04
  4.092706e-02    1.036792e-04
  4.122599e-02    1.036762e-04
  4.152492e-02    1.028680e-04
  4.182385e-02    1.028100e-04
  4.212278e-02    1.037568e-04
  4.242171e-02    1.052565e-04
  4.272064e-02    1.033742e-04
  4.301957e-02    1.030296e-04
  4.331850e-02    1.025236e-04
  4.361743e-02    1.013580e-04
  4.391636e-02    1.011124e-04
  4.421529e-02    1.019616e-04
  4.451423e-02    1.006663e-04
  4.481316e-02    1.024312e-04
  4.511209e-02    1.017351e-04
  4.541102e-02    1.000621e-04
  4.570995e-02    9.724693e-05
  4.600888e-02    9.926064e-05
  4.630781e-02    1.027411e-04
  4.660674e-02    1.007480e-04
  4.690567e-02    1.004160e-04
  4.720460e-02    9.976156e-05
  4.750353e-02    1.004338e-04
  4.780246e-02    1.030269e-04
  4.810139e-02    9.989915e-05
  4.840032e-02    9.956833e-05
  4.869925e-02    9.999642e-05
  4.899818e-02    9.921964e-05
  4.929711e-02    9.916387e-05
  4.959604e-02    1.009593e-04
  4.989497e-02    9.974907e-05
  5.019390e-02    9.801109e-05
  5.049283e-02    9.883733e-05
  5.079176e-02    9.975168e-05
  5.109069e-02    9.888748e-05
  5.138962e-02    9.873369e-05
  5.168855e-02    1.007139e-04
  5.198748e-02    1.040271e-04
  5.228642e-02    1.033042e-04
  5.258535e-02    9.970429e-05
  5.288428e-02    1.003652e-04
  5.318321e-02    1.008514e-04
  5.348214e-02    1.005518e-04
  5.378107e-02    9.945294e-05
  5.408000e-02    9.963191e-05
  5.437893e-02    9.939728e-05
  5.467786e-02    9.927283e-05
  5.497679e-02    9.898132e-05
  5.527572e-02    1.001301e-04
  5.557465e-02    9.981629e-05
  5.587358e-02    9.769834e-05
  5.617251e-02    9.855267e-05
  5.647144e-02    9.896055e-05
  5.677037e-02    1.011467e-04
  5.706930e-02    1.011483e-04
  5.736823e-02    9.875094e-05
  5.766716e-02    1.001543e-04
  5.796609e-02    1.015653e-04
  5.826502e-02    9.934299e-05
  5.856395e-02    9.869391e-05
  5.886288e-02    9.971796e-05
  5.916181e-02    1.024530e-04
  5.946074e-02    1.029498e-04
  5.975967e-02    1.013515e-04
  6.005861e-02    1.010368e-04
  6.035754e-02    1.025755e-04
  6.065647e-02    1.025539e-04
  6.095540e-02    1.004641e-04
  6.125433e-02    1.040230e-04
  6.155326e-02    1.052221e-04
  6.185219e-02    1.032725e-04
  6.215112e-02    1.017495e-04
  6.245005e-02    1.010068e-04
  6.274898e-02    1.014319e-04
  6.304791e-02    1.025183e-04
  6.334684e-02    1.030738e-04
  6.364577e-02    1.005275e-04
  6.394470e-02    1.011781e-04
  6.424363e-02    1.013160e-04
  6.454256e-02    1.024839e-04
  6.484149e-02    1.033733e-04
  6.514042e-02    1.030738e-04
  6.543935e-02    1.042564e-04
  6.573828e-02    1.050908e-04
  6.603721e-02    1.035934e-04
  6.633614e-02    1.040256e-04
  6.663507e-02    1.053538e-04
  6.693400e-02    1.044459e-04
  6.723293e-02    1.028972e-04
  6.753186e-02    1.055207e-04
  6.783080e-02    1.051766e-04
  6.812973e-02    1.045405e-04
  6.842866e-02    1.049399e-04
  6.872759e-02    1.051844e-04
  6.902652e-02    1.033590e-04
  6.932545e-02    1.041822e-04
  6.962438e-02    1.050791e-04
  6.992331e-02    1.053221e-04
  7.022224e-02    1.064072e-04
  7.052117e-02    1.069692e-04
  7.082010e-02    1.056493e-04
  7.111903e-02    1.041771e-04
  7.141796e-02    1.043705e-04
  7.171689e-02    1.061061e-04
  7.201582e-02    1.054870e-04
  7.231475e-02    1.057995e-04
  7.261368e-02    1.075036e-04
  7.291261e-02    1.084308e-04
  7.321154e-02    1.086029e-04
  7.351047e-02    1.066374e-04
  7.380940e-02    1.051555e-04
  7.410833e-02    1.053066e-04
  7.440726e-02    1.050583e-04
  7.470619e-02    1.056567e-04
  7.500512e-02    1.057138e-04
  7.530405e-02    1.073157e-04
  7.560299e-02    1.084795e-04
  7.590192e-02    1.055388e-04
  7.620085e-02    1.055493e-04
  7.649978e-02    1.070947e-04
  7.679871e-02    1.073059e-04
  7.709764e-02    1.065002e-04
  7.739657e-02    1.073032e-04
  7.769550e-02    1.071539e-04
  7.799443e-02    1.061226e-04
  7.829336e-02    1.057115e-04
  7.859229e-02    1.059624e-04
  7.889122e-02    1.061274e-04
  7.919015e-02    1.070478e-04
  7.948908e-02    1.065000e-04
  7.978801e-02    1.037867e-04
  8.008694e-02    1.058235e-04
  8.038587e-02    1.069772e-04
  8.068480e-02    1.071371e-04
  8.098373e-02    1.055845e-04
  8.128266e-02    1.060708e-04
  8.158159e-02    1.069917e-04
  8.188052e-02    1.055402e-04
  8.217945e-02    1.043753e-04
  8.247838e-02    1.047809e-04
  8.277731e-02    1.053917e-04
  8.307624e-02    1.047002e-04
  8.337518e-02    1.034493e-04
  8.367411e-02    1.042310e-04
  8.397304e-02    1.049323e-04
  8.427197e-02    1.028880e-04
  8.457090e-02    1.043059e-04
  8.486983e-02    1.039424e-04
  8.516876e-02    1.037671e-04
  8.546769e-02    1.030112e-04
  8.576662e-02    1.027737e-04
  8.606555e-02    1.040356e-04
  8.636448e-02    1.032300e-04
  8.666341e-02    1.033524e-04
  8.696234e-02    1.022178e-04
  8.726127e-02    1.014576e-04
  8.756020e-02    1.008886e-04
  8.785913e-02    1.010080e-04
  8.815806e-02    1.012280e-04
  8.845699e-02    9.983456e-05
  8.875592e-02    9.947189e-05
  8.905485e-02    1.000663e-04
  8.935378e-02    9.980572e-05
  8.965271e-02    1.006270e-04
  8.995164e-02    1.014191e-04
  9.025057e-02    1.013560e-04
  9.054950e-02    1.003938e-04
  9.084843e-02    1.000080e-04
  9.114737e-02    9.902670e-05
  9.144630e-02    9.858405e-05
  9.174523e-02    9.895672e-05
  9.204416e-02    9.847761e-05
  9.234309e-02    9.929709e-05
  9.264202e-02    9.851848e-05
  9.294095e-02    9.844011e-05
  9.323988e-02    9.753634e-05
  9.353881e-02    9.719943e-05
  9.383774e-02    9.852196e-05
  9.413667e-02    9.796320e-05
  9.443560e-02    9.874317e-05
  9.473453e-02    9.733361e-05
  9.503346e-02    9.717629e-05
  9.533239e-02    9.701129e-05
  9.563132e-02    9.729120e-05
  9.593025e-02    9.760861e-05
  9.622918e-02    9.822560e-05
  9.652811e-02    9.586997e-05
  9.682704e-02    9.608627e-05
  9.712597e-02    9.808396e-05
  9.742490e-02    9.962065e-05
  9.772383e-02    9.754075e-05
  9.802276e-02    9.560896e-05
  9.832169e-02    9.555898e-05
  9.862062e-02    9.635522e-05
  9.891956e-02    9.501755e-05
  9.921849e-02    9.444462e-05
  9.951742e-02    9.241793e-05
  9.981635e-02    9.273508e-05
  1.001153e-01    9.441198e-05
  1.004142e-01    9.457199e-05
  1.007131e-01    9.276217e-05
  1.010121e-01    9.255036e-05
  1.013110e-01    9.299278e-05
  1.016099e-01    9.264425e-05
  1.019089e-01    9.148294e-05
  1.022078e-01    9.168683e-05
  1.025067e-01    9.152329e-05
  1.028057e-01    8.991401e-05
  1.031046e-01    9.016156e-05
  1.034035e-01    9.182151e-05
  1.037024e-01    9.278180e-05
  1.040014e-01    9.232576e-05
  1.043003e-01    9.110040e-05
  1.045992e-01    9.146686e-05
  1.048982e-01    9.097895e-05
  1.051971e-01    8.872204e-05
  1.054960e-01    9.013295e-05
  1.057950e-01    9.109895e-05
  1.060939e-01    9.128397e-05
  1.063928e-01    9.030081e-05
  1.066917e-01    9.031241e-05
  1.069907e-01    9.041994e-05
  1.072896e-01    9.118085e-05
  1.075885e-01    9.102000e-05
  1.078875e-01    9.075032e-05
  1.081864e-01    9.097996e-05
  1.084853e-01    9.014306e-05
  1.087843e-01    9.051304e-05
  1.090832e-01    8.941478e-05
  1.093821e-01    8.950905e-05
  1.096810e-01    8.981059e-05
  1.099800e-01    8.830685e-05
  1.102789e-01    8.837700e-05
  1.105778e-01    8.842337e-05
  1.108768e-01    9.010443e-05
  1.111757e-01    8.929431e-05
  1.114746e-01    8.622913e-05
  1.117736e-01    8.390523e-05
  1.120725e-01    8.462833e-05
  1.123714e-01    8.671678e-05
  1.126704e-01    8.615555e-05
  1.129693e-01    8.590624e-05
  1.132682e-01    8.547265e-05
  1.135671e-01    8.498877e-05
  1.138661e-01    8.568920e-05
  1.141650e-01    8.726510e-05
  1.144639e-01    8.472990e-05
  1.147629e-01    8.240158e-05
  1.150618e-01    8.395044e-05
  1.153607e-01    8.572010e-05
  1.156597e-01    8.455764e-05
  1.159586e-01    8.452946e-05
  1.162575e-01    8.541937e-05
  1.165564e-01    8.412757e-05
  1.168554e-01    8.317761e-05
  1.171543e-01    8.498834e-05
  1.174532e-01    8.513412e-05
  1.177522e-01    8.418381e-05
  1.180511e-01    8.414117e-05
  1.183500e-01    8.517771e-05
  1.186490e-01    8.415798e-05
  1.189479e-01    8.432526e-05
  1.192468e-01    8.358934e-05
  1.195458e-01    8.740371e-05
  1.198447e-01    8.812516e-05
  1.201436e-01    8.287283e-05
  1.204425e-01    7.812859e-05
  1.207415e-01    9.044742e-05
  1.210404e-01    1.287103e-04
  1.213393e-01    0.000000e+00
  1.216383e-01    0.000000e+00
  1.219372e-01    0.000000e+00
  1.222361e-01    0.000000e+00
  1.225351e-01    0.000000e+00
  1.228340e-01    0.000000e+00
  1.231329e-01    0.000000e+00
  1.234318e-01    0.000000e+00
  1.237308e-01    0.000000e+00
  1.240297e-01    0.000000e+00
  1.243286e-01    0.000000e+00
  1.246276e-01    0.000000e+00
  1.249265e-01    0.000000e+00
  1.252254e-01    0.000000e+00
  1.255244e-01    0.000000e+00
  1.258233e-01    0.000000e+00
  1.261222e-01    0.000000e+00
  1.264212e-01    0.000000e+00
  1.267201e-01    0.000000e+00
  1.270190e-01    0.000000e+00
  1.273179e-01    0.000000e+00
  1.276169e-01    0.000000e+00
  1.279158e-01    0.000000e+00
  1.282147e-01    0.000000e+00
  1.285137e-01    0.000000e+00
  1.288126e-01    0.000000e+00
  1.291115e-01    0.000000e+00
  1.294105e-01    0.000000e+00
  1.297094e-01    0.000000e+00
  1.300083e-01    0.000000e+00
  1.303072e-01    0.000000e+00
  1.306062e-01    0.000000e+00
  1.309051e-01    0.000000e+00
  1.312040e-01    0.000000e+00
  1.315030e-01    0.000000e+00
  1.318019e-01    0.000000e+00
  1.321008e-01    0.000000e+00
  1.323998e-01    0.000000e+00
  1.326987e-01    0.000000e+00
  1.329976e-01    0.000000e+00
  1.332965e-01    0.000000e+00
  1.335955e-01    0.000000e+00
  1.338944e-01    0.000000e+00
  1.341933e-01    0.000000e+00
  1.344923e-01    0.000000e+00
  1.347912e-01    0.000000e+00
  1.350901e-01    0.000000e+00
  1.353891e-01    0.000000e+00
  1.356880e-01    0.000000e+00
  1.359869e-01    0.000000e+00
  1.362859e-01    0.000000e+00
  1.365848e-01    0.000000e+00
  1.368837e-01    0.000000e+00
  1.371826e-01    0.000000e+00
  1.374816e-01    0.000000e+00
  1.377805e-01    0.000000e+00
  1.380794e-01    0.000000e+00
  1.383784e-01    0.000000e+00
  1.386773e-01    0.000000e+00
  1.389762e-01    0.000000e+00
  1.392752e-01    0.000000e+00
  1.395741e-01    0.000000e+00
  1.398730e-01    0.000000e+00
  1.401719e-01    0.000000e+00
  1.404709e-01    0.000000e+00
  1.407698e-01    0.000000e+00
  1.410687e-01    0.000000e+00
  1.413677e-01    0.000000e+00
  1.416666e-01    0.000000e+00
  1.419655e-01    0.000000e+00
  1.422645e-01    0.000000e+00
  1.425634e-01    0.000000e+00
  1.428623e-01    0.000000e+00
  1.431613e-01    0.000000e+00
  1.434602e-01    0.000000e+00
  1.437591e-01    0.000000e+00
  1.440580e-01    0.000000e+00
  1.443570e-01    0.000000e+00
  1.446559e-01    0.000000e+00
  1.449548e-01    0.000000e+00
  1.452538e-01    0.000000e+00
  1.455527e-01    0.000000e+00
  1.458516e-01    0.000000e+00
  1.461506e-01    0.000000e+00
  1.464495e-01    0.000000e+00
  1.467484e-01    0.000000e+00
  1.470473e-01    0.000000e+00
  1.473463e-01    0.000000e+00
  1.476452e-01    0.000000e+00
  1.479441e-01    0.000000e+00
  1.482431e-01    0.000000e+00
  1.485420e-01    0.000000e+00
  1.488409e-01    0.000000e+00
  1.491399e-01    0.000000e+00
  1.494388e-01    0.000000e+00
  1.497377e-01    0.000000e+00
  1.500367e-01    0.000000e+00
  1.503356e-01    0.000000e+00
  1.506345e-01    0.000000e+00
  1.509334e-01    0.000000e+00
  1.512324e-01    0.000000e+00
  1.515313e-01    0.000000e+00
  1.518302e-01    0.000000e+00
  1.521292e-01    0.000000e+00
  1.524281e-01    0.000000e+00
  1.527270e-01    0.000000e+00
  1.530260e-01    0.000000e+00
  1.533249e-01    0.000000e+00
  1.536238e-01    0.000000e+00
