# == pyFAI calibration ==
# Distance Sample to Detector: 2.266 m
# PONI: 5.659e-02, 4.293e-02 m
# Rotations: 0.000000 0.000000 0.000000 rad
# 
# == Fit2d calibration ==
# Distance Sample-beamCenter: 2266.000 mm
# Center: x=249.594, y=329.012 pix
# Tilt: 0.000 deg  TiltPlanRot: 0.000 deg
# 
# Detector Pilatus 300k	 PixelSize= 1.720e-04, 1.720e-04 m
#    Detector has a mask: True 
#    Detector has a dark current: False 
#    detector has a flat field: False 
# 
# Wavelength: 1.27818e-10 m
# Mask applied: user provided
# Dark current applied: False
# Flat field applied: False
# Polarization factor: None
# Normalization factor: 42464.87000000001
# --> MT-AL_DowExpt1_220227_8fdd133c-6263-4777-b93e-ceaa60173c9a_1_r1d.csv
#        q_A^-1             I 
  4.457554e-03    4.275291e-02
  4.756484e-03    3.378043e-02
  5.055415e-03    2.504251e-02
  5.354345e-03    1.856186e-02
  5.653276e-03    1.453673e-02
  5.952206e-03    2.288627e-02
  6.251136e-03    2.118652e-02
  6.550067e-03    1.852559e-02
  6.848997e-03    1.570342e-02
  7.147927e-03    1.345051e-02
  7.446858e-03    1.149783e-02
  7.745788e-03    9.913975e-03
  8.044719e-03    8.558829e-03
  8.343649e-03    7.454256e-03
  8.642579e-03    6.584594e-03
  8.941510e-03    5.791859e-03
  9.240440e-03    5.184198e-03
  9.539371e-03    4.608924e-03
  9.838301e-03    4.072352e-03
  1.013723e-02    3.652930e-03
  1.043616e-02    3.314470e-03
  1.073509e-02    2.966290e-03
  1.103402e-02    2.674687e-03
  1.133295e-02    2.441284e-03
  1.163188e-02    2.215060e-03
  1.193081e-02    2.004094e-03
  1.222974e-02    1.839679e-03
  1.252867e-02    1.693411e-03
  1.282760e-02    1.562754e-03
  1.312654e-02    1.438293e-03
  1.342547e-02    1.324783e-03
  1.372440e-02    1.225586e-03
  1.402333e-02    1.137113e-03
  1.432226e-02    1.055771e-03
  1.462119e-02    9.734110e-04
  1.492012e-02    9.085645e-04
  1.521905e-02    8.562484e-04
  1.551798e-02    7.986899e-04
  1.581691e-02    7.366955e-04
  1.611584e-02    6.939738e-04
  1.641477e-02    6.497528e-04
  1.671370e-02    6.078072e-04
  1.701263e-02    5.758855e-04
  1.731156e-02    5.588279e-04
  1.761049e-02    5.288242e-04
  1.790942e-02    4.954714e-04
  1.820835e-02    4.720295e-04
  1.850728e-02    4.469901e-04
  1.880621e-02    4.210421e-04
  1.910514e-02    4.020782e-04
  1.940407e-02    3.903382e-04
  1.970300e-02    3.713189e-04
  2.000193e-02    3.573505e-04
  2.030086e-02    3.391458e-04
  2.059979e-02    3.254180e-04
  2.089873e-02    3.145798e-04
  2.119766e-02    3.051708e-04
  2.149659e-02    2.926688e-04
  2.179552e-02    2.798374e-04
  2.209445e-02    2.706833e-04
  2.239338e-02    2.600138e-04
  2.269231e-02    2.453563e-04
  2.299124e-02    2.418929e-04
  2.329017e-02    2.404672e-04
  2.358910e-02    2.354142e-04
  2.388803e-02    2.270245e-04
  2.418696e-02    2.168783e-04
  2.448589e-02    2.123839e-04
  2.478482e-02    2.030056e-04
  2.508375e-02    1.983700e-04
  2.538268e-02    1.990086e-04
  2.568161e-02    1.935473e-04
  2.598054e-02    1.890565e-04
  2.627947e-02    1.870468e-04
  2.657840e-02    1.815386e-04
  2.687733e-02    1.795955e-04
  2.717626e-02    1.793342e-04
  2.747519e-02    1.711266e-04
  2.777412e-02    1.666034e-04
  2.807305e-02    1.642352e-04
  2.837198e-02    1.641345e-04
  2.867092e-02    1.625035e-04
  2.896985e-02    1.537484e-04
  2.926878e-02    1.533687e-04
  2.956771e-02    1.534961e-04
  2.986664e-02    1.511166e-04
  3.016557e-02    1.510952e-04
  3.046450e-02    1.525054e-04
  3.076343e-02    1.481744e-04
  3.106236e-02    1.445307e-04
  3.136129e-02    1.443707e-04
  3.166022e-02    1.395086e-04
  3.195915e-02    1.363461e-04
  3.225808e-02    1.343413e-04
  3.255701e-02    1.327085e-04
  3.285594e-02    1.338034e-04
  3.315487e-02    1.318793e-04
  3.345380e-02    1.295840e-04
  3.375273e-02    1.290057e-04
  3.405166e-02    1.276213e-04
  3.435059e-02    1.266619e-04
  3.464952e-02    1.276313e-04
  3.494845e-02    1.248356e-04
  3.524738e-02    1.236407e-04
  3.554631e-02    1.276580e-04
  3.584524e-02    1.224999e-04
  3.614417e-02    1.198986e-04
  3.644310e-02    1.189192e-04
  3.674204e-02    1.169386e-04
  3.704097e-02    1.156700e-04
  3.733990e-02    1.153990e-04
  3.763883e-02    1.167982e-04
  3.793776e-02    1.131440e-04
  3.823669e-02    1.095807e-04
  3.853562e-02    1.112145e-04
  3.883455e-02    1.136306e-04
  3.913348e-02    1.116163e-04
  3.943241e-02    1.095215e-04
  3.973134e-02    1.108283e-04
  4.003027e-02    1.097794e-04
  4.032920e-02    1.063706e-04
  4.062813e-02    1.078779e-04
  4.092706e-02    1.081489e-04
  4.122599e-02    1.071248e-04
  4.152492e-02    1.052107e-04
  4.182385e-02    1.065305e-04
  4.212278e-02    1.074847e-04
  4.242171e-02    1.071491e-04
  4.272064e-02    1.044740e-04
  4.301957e-02    1.061373e-04
  4.331850e-02    1.100964e-04
  4.361743e-02    1.079152e-04
  4.391636e-02    1.059398e-04
  4.421529e-02    1.053835e-04
  4.451423e-02    1.057103e-04
  4.481316e-02    1.056656e-04
  4.511209e-02    1.024615e-04
  4.541102e-02    1.015392e-04
  4.570995e-02    1.047268e-04
  4.600888e-02    1.026010e-04
  4.630781e-02    1.016184e-04
  4.660674e-02    1.010678e-04
  4.690567e-02    1.030821e-04
  4.720460e-02    1.047735e-04
  4.750353e-02    1.067045e-04
  4.780246e-02    1.058964e-04
  4.810139e-02    1.023716e-04
  4.840032e-02    1.030144e-04
  4.869925e-02    1.025238e-04
  4.899818e-02    1.018445e-04
  4.929711e-02    1.017170e-04
  4.959604e-02    1.039666e-04
  4.989497e-02    1.041857e-04
  5.019390e-02    1.017820e-04
  5.049283e-02    1.019992e-04
  5.079176e-02    1.033344e-04
  5.109069e-02    1.017139e-04
  5.138962e-02    1.022826e-04
  5.168855e-02    1.047497e-04
  5.198748e-02    1.063874e-04
  5.228642e-02    1.056917e-04
  5.258535e-02    1.017903e-04
  5.288428e-02    1.001032e-04
  5.318321e-02    1.016888e-04
  5.348214e-02    1.027429e-04
  5.378107e-02    1.010744e-04
  5.408000e-02    9.991373e-05
  5.437893e-02    1.005097e-04
  5.467786e-02    1.000246e-04
  5.497679e-02    1.026939e-04
  5.527572e-02    1.028080e-04
  5.557465e-02    1.028175e-04
  5.587358e-02    1.033341e-04
  5.617251e-02    1.022754e-04
  5.647144e-02    9.997118e-05
  5.677037e-02    1.031485e-04
  5.706930e-02    1.033351e-04
  5.736823e-02    1.055992e-04
  5.766716e-02    1.051195e-04
  5.796609e-02    1.041622e-04
  5.826502e-02    1.021093e-04
  5.856395e-02    1.015756e-04
  5.886288e-02    1.017805e-04
  5.916181e-02    1.029820e-04
  5.946074e-02    1.046269e-04
  5.975967e-02    1.069073e-04
  6.005861e-02    1.059496e-04
  6.035754e-02    1.055648e-04
  6.065647e-02    1.054082e-04
  6.095540e-02    1.038518e-04
  6.125433e-02    1.054163e-04
  6.155326e-02    1.056543e-04
  6.185219e-02    1.044313e-04
  6.215112e-02    1.041994e-04
  6.245005e-02    1.037581e-04
  6.274898e-02    1.047587e-04
  6.304791e-02    1.060377e-04
  6.334684e-02    1.045496e-04
  6.364577e-02    1.026587e-04
  6.394470e-02    1.035356e-04
  6.424363e-02    1.058254e-04
  6.454256e-02    1.052052e-04
  6.484149e-02    1.051075e-04
  6.514042e-02    1.059599e-04
  6.543935e-02    1.078636e-04
  6.573828e-02    1.078376e-04
  6.603721e-02    1.041189e-04
  6.633614e-02    1.053166e-04
  6.663507e-02    1.075268e-04
  6.693400e-02    1.074402e-04
  6.723293e-02    1.069017e-04
  6.753186e-02    1.057361e-04
  6.783080e-02    1.065018e-04
  6.812973e-02    1.067294e-04
  6.842866e-02    1.059003e-04
  6.872759e-02    1.055322e-04
  6.902652e-02    1.071380e-04
  6.932545e-02    1.078904e-04
  6.962438e-02    1.065063e-04
  6.992331e-02    1.086986e-04
  7.022224e-02    1.089474e-04
  7.052117e-02    1.083133e-04
  7.082010e-02    1.091153e-04
  7.111903e-02    1.088696e-04
  7.141796e-02    1.072354e-04
  7.171689e-02    1.067143e-04
  7.201582e-02    1.072654e-04
  7.231475e-02    1.075800e-04
  7.261368e-02    1.096792e-04
  7.291261e-02    1.099623e-04
  7.321154e-02    1.090220e-04
  7.351047e-02    1.083191e-04
  7.380940e-02    1.091855e-04
  7.410833e-02    1.104962e-04
  7.440726e-02    1.107478e-04
  7.470619e-02    1.097930e-04
  7.500512e-02    1.094009e-04
  7.530405e-02    1.081110e-04
  7.560299e-02    1.091760e-04
  7.590192e-02    1.094363e-04
  7.620085e-02    1.091021e-04
  7.649978e-02    1.089700e-04
  7.679871e-02    1.091016e-04
  7.709764e-02    1.088736e-04
  7.739657e-02    1.088636e-04
  7.769550e-02    1.081235e-04
  7.799443e-02    1.072081e-04
  7.829336e-02    1.078781e-04
  7.859229e-02    1.079024e-04
  7.889122e-02    1.089766e-04
  7.919015e-02    1.069401e-04
  7.948908e-02    1.057447e-04
  7.978801e-02    1.062710e-04
  8.008694e-02    1.047365e-04
  8.038587e-02    1.055247e-04
  8.068480e-02    1.050821e-04
  8.098373e-02    1.054878e-04
  8.128266e-02    1.063164e-04
  8.158159e-02    1.073762e-04
  8.188052e-02    1.070773e-04
  8.217945e-02    1.052652e-04
  8.247838e-02    1.059101e-04
  8.277731e-02    1.051073e-04
  8.307624e-02    1.041132e-04
  8.337518e-02    1.046943e-04
  8.367411e-02    1.048791e-04
  8.397304e-02    1.036018e-04
  8.427197e-02    1.046952e-04
  8.457090e-02    1.076025e-04
  8.486983e-02    1.061310e-04
  8.516876e-02    1.059680e-04
  8.546769e-02    1.060866e-04
  8.576662e-02    1.054066e-04
  8.606555e-02    1.044752e-04
  8.636448e-02    1.060614e-04
  8.666341e-02    1.039502e-04
  8.696234e-02    1.038887e-04
  8.726127e-02    1.053572e-04
  8.756020e-02    1.034915e-04
  8.785913e-02    1.035213e-04
  8.815806e-02    1.042501e-04
  8.845699e-02    1.040784e-04
  8.875592e-02    1.023472e-04
  8.905485e-02    1.018337e-04
  8.935378e-02    1.017764e-04
  8.965271e-02    1.020659e-04
  8.995164e-02    1.037916e-04
  9.025057e-02    1.033428e-04
  9.054950e-02    1.009025e-04
  9.084843e-02    1.028486e-04
  9.114737e-02    1.029038e-04
  9.144630e-02    9.951590e-05
  9.174523e-02    9.800639e-05
  9.204416e-02    9.978067e-05
  9.234309e-02    1.010393e-04
  9.264202e-02    1.017085e-04
  9.294095e-02    1.027768e-04
  9.323988e-02    9.972172e-05
  9.353881e-02    9.867043e-05
  9.383774e-02    1.003040e-04
  9.413667e-02    9.927181e-05
  9.443560e-02    9.910626e-05
  9.473453e-02    9.967006e-05
  9.503346e-02    1.007295e-04
  9.533239e-02    9.946876e-05
  9.563132e-02    9.739632e-05
  9.593025e-02    9.929731e-05
  9.622918e-02    9.936454e-05
  9.652811e-02    9.935921e-05
  9.682704e-02    9.728901e-05
  9.712597e-02    9.700642e-05
  9.742490e-02    9.867077e-05
  9.772383e-02    9.920818e-05
  9.802276e-02    9.808570e-05
  9.832169e-02    9.627253e-05
  9.862062e-02    9.572925e-05
  9.891956e-02    9.496498e-05
  9.921849e-02    9.535403e-05
  9.951742e-02    9.686137e-05
  9.981635e-02    9.797768e-05
  1.001153e-01    9.797783e-05
  1.004142e-01    9.571011e-05
  1.007131e-01    9.555150e-05
  1.010121e-01    9.464568e-05
  1.013110e-01    9.332439e-05
  1.016099e-01    9.327081e-05
  1.019089e-01    9.482952e-05
  1.022078e-01    9.411262e-05
  1.025067e-01    9.292011e-05
  1.028057e-01    9.393530e-05
  1.031046e-01    9.504599e-05
  1.034035e-01    9.397903e-05
  1.037024e-01    9.354210e-05
  1.040014e-01    9.357437e-05
  1.043003e-01    9.123851e-05
  1.045992e-01    9.135683e-05
  1.048982e-01    9.278190e-05
  1.051971e-01    9.329140e-05
  1.054960e-01    9.220620e-05
  1.057950e-01    9.101295e-05
  1.060939e-01    9.030758e-05
  1.063928e-01    9.097765e-05
  1.066917e-01    9.098070e-05
  1.069907e-01    9.089024e-05
  1.072896e-01    9.017553e-05
  1.075885e-01    9.142858e-05
  1.078875e-01    9.212255e-05
  1.081864e-01    9.146524e-05
  1.084853e-01    9.185813e-05
  1.087843e-01    9.048532e-05
  1.090832e-01    9.005068e-05
  1.093821e-01    8.981433e-05
  1.096810e-01    8.956211e-05
  1.099800e-01    8.902024e-05
  1.102789e-01    8.980009e-05
  1.105778e-01    9.158159e-05
  1.108768e-01    9.069250e-05
  1.111757e-01    8.892959e-05
  1.114746e-01    8.886804e-05
  1.117736e-01    8.927491e-05
  1.120725e-01    8.920570e-05
  1.123714e-01    8.970485e-05
  1.126704e-01    9.022912e-05
  1.129693e-01    9.002647e-05
  1.132682e-01    9.004281e-05
  1.135671e-01    8.803260e-05
  1.138661e-01    8.387867e-05
  1.141650e-01    8.215076e-05
  1.144639e-01    8.279701e-05
  1.147629e-01    8.395824e-05
  1.150618e-01    8.801040e-05
  1.153607e-01    8.965934e-05
  1.156597e-01    8.731242e-05
  1.159586e-01    8.511871e-05
  1.162575e-01    8.435577e-05
  1.165564e-01    8.314016e-05
  1.168554e-01    8.468329e-05
  1.171543e-01    8.380914e-05
  1.174532e-01    8.522120e-05
  1.177522e-01    8.435395e-05
  1.180511e-01    8.620992e-05
  1.183500e-01    8.682424e-05
  1.186490e-01    8.711095e-05
  1.189479e-01    8.546239e-05
  1.192468e-01    8.549479e-05
  1.195458e-01    8.840727e-05
  1.198447e-01    8.659119e-05
  1.201436e-01    8.202089e-05
  1.204425e-01    7.969529e-05
  1.207415e-01    8.631023e-05
  1.210404e-01    9.428083e-05
  1.213393e-01    0.000000e+00
  1.216383e-01    0.000000e+00
  1.219372e-01    0.000000e+00
  1.222361e-01    0.000000e+00
  1.225351e-01    0.000000e+00
  1.228340e-01    0.000000e+00
  1.231329e-01    0.000000e+00
  1.234318e-01    0.000000e+00
  1.237308e-01    0.000000e+00
  1.240297e-01    0.000000e+00
  1.243286e-01    0.000000e+00
  1.246276e-01    0.000000e+00
  1.249265e-01    0.000000e+00
  1.252254e-01    0.000000e+00
  1.255244e-01    0.000000e+00
  1.258233e-01    0.000000e+00
  1.261222e-01    0.000000e+00
  1.264212e-01    0.000000e+00
  1.267201e-01    0.000000e+00
  1.270190e-01    0.000000e+00
  1.273179e-01    0.000000e+00
  1.276169e-01    0.000000e+00
  1.279158e-01    0.000000e+00
  1.282147e-01    0.000000e+00
  1.285137e-01    0.000000e+00
  1.288126e-01    0.000000e+00
  1.291115e-01    0.000000e+00
  1.294105e-01    0.000000e+00
  1.297094e-01    0.000000e+00
  1.300083e-01    0.000000e+00
  1.303072e-01    0.000000e+00
  1.306062e-01    0.000000e+00
  1.309051e-01    0.000000e+00
  1.312040e-01    0.000000e+00
  1.315030e-01    0.000000e+00
  1.318019e-01    0.000000e+00
  1.321008e-01    0.000000e+00
  1.323998e-01    0.000000e+00
  1.326987e-01    0.000000e+00
  1.329976e-01    0.000000e+00
  1.332965e-01    0.000000e+00
  1.335955e-01    0.000000e+00
  1.338944e-01    0.000000e+00
  1.341933e-01    0.000000e+00
  1.344923e-01    0.000000e+00
  1.347912e-01    0.000000e+00
  1.350901e-01    0.000000e+00
  1.353891e-01    0.000000e+00
  1.356880e-01    0.000000e+00
  1.359869e-01    0.000000e+00
  1.362859e-01    0.000000e+00
  1.365848e-01    0.000000e+00
  1.368837e-01    0.000000e+00
  1.371826e-01    0.000000e+00
  1.374816e-01    0.000000e+00
  1.377805e-01    0.000000e+00
  1.380794e-01    0.000000e+00
  1.383784e-01    0.000000e+00
  1.386773e-01    0.000000e+00
  1.389762e-01    0.000000e+00
  1.392752e-01    0.000000e+00
  1.395741e-01    0.000000e+00
  1.398730e-01    0.000000e+00
  1.401719e-01    0.000000e+00
  1.404709e-01    0.000000e+00
  1.407698e-01    0.000000e+00
  1.410687e-01    0.000000e+00
  1.413677e-01    0.000000e+00
  1.416666e-01    0.000000e+00
  1.419655e-01    0.000000e+00
  1.422645e-01    0.000000e+00
  1.425634e-01    0.000000e+00
  1.428623e-01    0.000000e+00
  1.431613e-01    0.000000e+00
  1.434602e-01    0.000000e+00
  1.437591e-01    0.000000e+00
  1.440580e-01    0.000000e+00
  1.443570e-01    0.000000e+00
  1.446559e-01    0.000000e+00
  1.449548e-01    0.000000e+00
  1.452538e-01    0.000000e+00
  1.455527e-01    0.000000e+00
  1.458516e-01    0.000000e+00
  1.461506e-01    0.000000e+00
  1.464495e-01    0.000000e+00
  1.467484e-01    0.000000e+00
  1.470473e-01    0.000000e+00
  1.473463e-01    0.000000e+00
  1.476452e-01    0.000000e+00
  1.479441e-01    0.000000e+00
  1.482431e-01    0.000000e+00
  1.485420e-01    0.000000e+00
  1.488409e-01    0.000000e+00
  1.491399e-01    0.000000e+00
  1.494388e-01    0.000000e+00
  1.497377e-01    0.000000e+00
  1.500367e-01    0.000000e+00
  1.503356e-01    0.000000e+00
  1.506345e-01    0.000000e+00
  1.509334e-01    0.000000e+00
  1.512324e-01    0.000000e+00
  1.515313e-01    0.000000e+00
  1.518302e-01    0.000000e+00
  1.521292e-01    0.000000e+00
  1.524281e-01    0.000000e+00
  1.527270e-01    0.000000e+00
  1.530260e-01    0.000000e+00
  1.533249e-01    0.000000e+00
  1.536238e-01    0.000000e+00
