# == pyFAI calibration ==
# Distance Sample to Detector: 2.266 m
# PONI: 5.659e-02, 4.293e-02 m
# Rotations: 0.000000 0.000000 0.000000 rad
# 
# == Fit2d calibration ==
# Distance Sample-beamCenter: 2266.000 mm
# Center: x=249.594, y=329.012 pix
# Tilt: 0.000 deg  TiltPlanRot: 0.000 deg
# 
# Detector Pilatus 300k	 PixelSize= 1.720e-04, 1.720e-04 m
#    Detector has a mask: True 
#    Detector has a dark current: False 
#    detector has a flat field: False 
# 
# Wavelength: 1.27818e-10 m
# Mask applied: user provided
# Dark current applied: False
# Flat field applied: False
# Polarization factor: None
# Normalization factor: 23984700.2
# --> MT-AL_F127_220301_062de01b-9885-4991-9b11-0b62b4440159_1_r1d.csv
#        q_A^-1             I 
  4.457554e-03    1.828185e-03
  4.756484e-03    1.458615e-03
  5.055415e-03    1.065109e-03
  5.354345e-03    7.723403e-04
  5.653276e-03    6.130421e-04
  5.952206e-03    9.797724e-04
  6.251136e-03    8.901946e-04
  6.550067e-03    7.700620e-04
  6.848997e-03    6.521100e-04
  7.147927e-03    5.513825e-04
  7.446858e-03    4.717651e-04
  7.745788e-03    4.060039e-04
  8.044719e-03    3.508894e-04
  8.343649e-03    3.064889e-04
  8.642579e-03    2.686786e-04
  8.941510e-03    2.372382e-04
  9.240440e-03    2.104039e-04
  9.539371e-03    1.867673e-04
  9.838301e-03    1.664513e-04
  1.013723e-02    1.494209e-04
  1.043616e-02    1.344227e-04
  1.073509e-02    1.207776e-04
  1.103402e-02    1.094124e-04
  1.133295e-02    9.918067e-05
  1.163188e-02    9.043805e-05
  1.193081e-02    8.272249e-05
  1.222974e-02    7.559639e-05
  1.252867e-02    6.943935e-05
  1.282760e-02    6.398337e-05
  1.312654e-02    5.893005e-05
  1.342547e-02    5.444264e-05
  1.372440e-02    5.038176e-05
  1.402333e-02    4.679010e-05
  1.432226e-02    4.354427e-05
  1.462119e-02    4.060248e-05
  1.492012e-02    3.792307e-05
  1.521905e-02    3.540111e-05
  1.551798e-02    3.314600e-05
  1.581691e-02    3.114008e-05
  1.611584e-02    2.935129e-05
  1.641477e-02    2.766807e-05
  1.671370e-02    2.602817e-05
  1.701263e-02    2.452026e-05
  1.731156e-02    2.321421e-05
  1.761049e-02    2.205080e-05
  1.790942e-02    2.094708e-05
  1.820835e-02    1.991734e-05
  1.850728e-02    1.896947e-05
  1.880621e-02    1.817025e-05
  1.910514e-02    1.738368e-05
  1.940407e-02    1.666230e-05
  1.970300e-02    1.595370e-05
  2.000193e-02    1.530767e-05
  2.030086e-02    1.474768e-05
  2.059979e-02    1.422510e-05
  2.089873e-02    1.373312e-05
  2.119766e-02    1.327551e-05
  2.149659e-02    1.281487e-05
  2.179552e-02    1.240971e-05
  2.209445e-02    1.203246e-05
  2.239338e-02    1.167983e-05
  2.269231e-02    1.132624e-05
  2.299124e-02    1.103214e-05
  2.329017e-02    1.072440e-05
  2.358910e-02    1.041237e-05
  2.388803e-02    1.017589e-05
  2.418696e-02    9.941223e-06
  2.448589e-02    9.688489e-06
  2.478482e-02    9.469529e-06
  2.508375e-02    9.328332e-06
  2.538268e-02    9.113867e-06
  2.568161e-02    8.870295e-06
  2.598054e-02    8.730236e-06
  2.627947e-02    8.592805e-06
  2.657840e-02    8.425964e-06
  2.687733e-02    8.302270e-06
  2.717626e-02    8.161209e-06
  2.747519e-02    8.008377e-06
  2.777412e-02    7.887423e-06
  2.807305e-02    7.789694e-06
  2.837198e-02    7.686534e-06
  2.867092e-02    7.577306e-06
  2.896985e-02    7.475849e-06
  2.926878e-02    7.350308e-06
  2.956771e-02    7.248592e-06
  2.986664e-02    7.197991e-06
  3.016557e-02    7.142581e-06
  3.046450e-02    7.043026e-06
  3.076343e-02    6.964573e-06
  3.106236e-02    6.874485e-06
  3.136129e-02    6.810152e-06
  3.166022e-02    6.743524e-06
  3.195915e-02    6.679932e-06
  3.225808e-02    6.612886e-06
  3.255701e-02    6.502574e-06
  3.285594e-02    6.448136e-06
  3.315487e-02    6.414205e-06
  3.345380e-02    6.348380e-06
  3.375273e-02    6.299699e-06
  3.405166e-02    6.223135e-06
  3.435059e-02    6.158609e-06
  3.464952e-02    6.115402e-06
  3.494845e-02    6.082664e-06
  3.524738e-02    6.024545e-06
  3.554631e-02    5.954704e-06
  3.584524e-02    5.912143e-06
  3.614417e-02    5.872682e-06
  3.644310e-02    5.834245e-06
  3.674204e-02    5.771920e-06
  3.704097e-02    5.729779e-06
  3.733990e-02    5.684519e-06
  3.763883e-02    5.646507e-06
  3.793776e-02    5.623872e-06
  3.823669e-02    5.596536e-06
  3.853562e-02    5.568773e-06
  3.883455e-02    5.520214e-06
  3.913348e-02    5.515250e-06
  3.943241e-02    5.492222e-06
  3.973134e-02    5.425482e-06
  4.003027e-02    5.398837e-06
  4.032920e-02    5.396770e-06
  4.062813e-02    5.346456e-06
  4.092706e-02    5.339167e-06
  4.122599e-02    5.323124e-06
  4.152492e-02    5.284010e-06
  4.182385e-02    5.265652e-06
  4.212278e-02    5.238892e-06
  4.242171e-02    5.211817e-06
  4.272064e-02    5.194333e-06
  4.301957e-02    5.169393e-06
  4.331850e-02    5.158327e-06
  4.361743e-02    5.126329e-06
  4.391636e-02    5.135424e-06
  4.421529e-02    5.148002e-06
  4.451423e-02    5.116946e-06
  4.481316e-02    5.090344e-06
  4.511209e-02    5.109297e-06
  4.541102e-02    5.113700e-06
  4.570995e-02    5.093667e-06
  4.600888e-02    5.098127e-06
  4.630781e-02    5.095144e-06
  4.660674e-02    5.079557e-06
  4.690567e-02    5.082517e-06
  4.720460e-02    5.064865e-06
  4.750353e-02    5.057546e-06
  4.780246e-02    5.061152e-06
  4.810139e-02    5.049218e-06
  4.840032e-02    5.026012e-06
  4.869925e-02    5.021740e-06
  4.899818e-02    5.037769e-06
  4.929711e-02    5.037929e-06
  4.959604e-02    5.031695e-06
  4.989497e-02    5.033699e-06
  5.019390e-02    5.063564e-06
  5.049283e-02    5.053708e-06
  5.079176e-02    5.047260e-06
  5.109069e-02    5.058474e-06
  5.138962e-02    5.100879e-06
  5.168855e-02    5.157493e-06
  5.198748e-02    5.203204e-06
  5.228642e-02    5.204913e-06
  5.258535e-02    5.079227e-06
  5.288428e-02    5.002500e-06
  5.318321e-02    5.030922e-06
  5.348214e-02    5.029162e-06
  5.378107e-02    5.013488e-06
  5.408000e-02    5.005169e-06
  5.437893e-02    5.016725e-06
  5.467786e-02    5.031676e-06
  5.497679e-02    5.038140e-06
  5.527572e-02    5.035088e-06
  5.557465e-02    5.016464e-06
  5.587358e-02    5.031180e-06
  5.617251e-02    5.045601e-06
  5.647144e-02    5.027443e-06
  5.677037e-02    5.036274e-06
  5.706930e-02    5.056323e-06
  5.736823e-02    5.070665e-06
  5.766716e-02    5.079788e-06
  5.796609e-02    5.080100e-06
  5.826502e-02    5.072273e-06
  5.856395e-02    5.065191e-06
  5.886288e-02    5.072473e-06
  5.916181e-02    5.076056e-06
  5.946074e-02    5.091113e-06
  5.975967e-02    5.107167e-06
  6.005861e-02    5.131991e-06
  6.035754e-02    5.132536e-06
  6.065647e-02    5.141208e-06
  6.095540e-02    5.173196e-06
  6.125433e-02    5.243168e-06
  6.155326e-02    5.256155e-06
  6.185219e-02    5.213870e-06
  6.215112e-02    5.180972e-06
  6.245005e-02    5.173264e-06
  6.274898e-02    5.170944e-06
  6.304791e-02    5.173916e-06
  6.334684e-02    5.193172e-06
  6.364577e-02    5.188689e-06
  6.394470e-02    5.191799e-06
  6.424363e-02    5.213225e-06
  6.454256e-02    5.230689e-06
  6.484149e-02    5.233923e-06
  6.514042e-02    5.234409e-06
  6.543935e-02    5.219213e-06
  6.573828e-02    5.236731e-06
  6.603721e-02    5.247437e-06
  6.633614e-02    5.258298e-06
  6.663507e-02    5.261374e-06
  6.693400e-02    5.276011e-06
  6.723293e-02    5.287977e-06
  6.753186e-02    5.284848e-06
  6.783080e-02    5.302800e-06
  6.812973e-02    5.332693e-06
  6.842866e-02    5.318732e-06
  6.872759e-02    5.322814e-06
  6.902652e-02    5.339341e-06
  6.932545e-02    5.351600e-06
  6.962438e-02    5.368481e-06
  6.992331e-02    5.375464e-06
  7.022224e-02    5.368105e-06
  7.052117e-02    5.356021e-06
  7.082010e-02    5.355175e-06
  7.111903e-02    5.394123e-06
  7.141796e-02    5.373106e-06
  7.171689e-02    5.382984e-06
  7.201582e-02    5.413497e-06
  7.231475e-02    5.418318e-06
  7.261368e-02    5.408368e-06
  7.291261e-02    5.404009e-06
  7.321154e-02    5.392523e-06
  7.351047e-02    5.396570e-06
  7.380940e-02    5.409528e-06
  7.410833e-02    5.429549e-06
  7.440726e-02    5.440686e-06
  7.470619e-02    5.427679e-06
  7.500512e-02    5.416482e-06
  7.530405e-02    5.422898e-06
  7.560299e-02    5.424541e-06
  7.590192e-02    5.425265e-06
  7.620085e-02    5.444489e-06
  7.649978e-02    5.430001e-06
  7.679871e-02    5.417767e-06
  7.709764e-02    5.425445e-06
  7.739657e-02    5.429939e-06
  7.769550e-02    5.434345e-06
  7.799443e-02    5.431953e-06
  7.829336e-02    5.449805e-06
  7.859229e-02    5.455785e-06
  7.889122e-02    5.436213e-06
  7.919015e-02    5.422170e-06
  7.948908e-02    5.432434e-06
  7.978801e-02    5.426336e-06
  8.008694e-02    5.424394e-06
  8.038587e-02    5.422451e-06
  8.068480e-02    5.410886e-06
  8.098373e-02    5.410867e-06
  8.128266e-02    5.417045e-06
  8.158159e-02    5.401746e-06
  8.188052e-02    5.387434e-06
  8.217945e-02    5.378198e-06
  8.247838e-02    5.361283e-06
  8.277731e-02    5.375773e-06
  8.307624e-02    5.366765e-06
  8.337518e-02    5.350921e-06
  8.367411e-02    5.347890e-06
  8.397304e-02    5.349097e-06
  8.427197e-02    5.347200e-06
  8.457090e-02    5.341451e-06
  8.486983e-02    5.360487e-06
  8.516876e-02    5.335648e-06
  8.546769e-02    5.314665e-06
  8.576662e-02    5.322526e-06
  8.606555e-02    5.321877e-06
  8.636448e-02    5.302768e-06
  8.666341e-02    5.292635e-06
  8.696234e-02    5.294117e-06
  8.726127e-02    5.289447e-06
  8.756020e-02    5.270826e-06
  8.785913e-02    5.273367e-06
  8.815806e-02    5.273490e-06
  8.845699e-02    5.241217e-06
  8.875592e-02    5.232670e-06
  8.905485e-02    5.248800e-06
  8.935378e-02    5.241954e-06
  8.965271e-02    5.208870e-06
  8.995164e-02    5.204598e-06
  9.025057e-02    5.196403e-06
  9.054950e-02    5.189176e-06
  9.084843e-02    5.197667e-06
  9.114737e-02    5.169290e-06
  9.144630e-02    5.152772e-06
  9.174523e-02    5.131842e-06
  9.204416e-02    5.125292e-06
  9.234309e-02    5.123279e-06
  9.264202e-02    5.113873e-06
  9.294095e-02    5.105125e-06
  9.323988e-02    5.086563e-06
  9.353881e-02    5.090065e-06
  9.383774e-02    5.096683e-06
  9.413667e-02    5.070637e-06
  9.443560e-02    5.053069e-06
  9.473453e-02    5.045470e-06
  9.503346e-02    5.052760e-06
  9.533239e-02    5.027513e-06
  9.563132e-02    5.022418e-06
  9.593025e-02    5.038263e-06
  9.622918e-02    5.027138e-06
  9.652811e-02    5.037430e-06
  9.682704e-02    5.038014e-06
  9.712597e-02    5.019714e-06
  9.742490e-02    5.001095e-06
  9.772383e-02    4.997734e-06
  9.802276e-02    4.980015e-06
  9.832169e-02    4.948848e-06
  9.862062e-02    4.918122e-06
  9.891956e-02    4.915774e-06
  9.921849e-02    4.929999e-06
  9.951742e-02    4.905798e-06
  9.981635e-02    4.897670e-06
  1.001153e-01    4.894535e-06
  1.004142e-01    4.894510e-06
  1.007131e-01    4.864919e-06
  1.010121e-01    4.843460e-06
  1.013110e-01    4.849191e-06
  1.016099e-01    4.852536e-06
  1.019089e-01    4.840049e-06
  1.022078e-01    4.832382e-06
  1.025067e-01    4.822834e-06
  1.028057e-01    4.798956e-06
  1.031046e-01    4.783470e-06
  1.034035e-01    4.779259e-06
  1.037024e-01    4.754890e-06
  1.040014e-01    4.739511e-06
  1.043003e-01    4.729676e-06
  1.045992e-01    4.743209e-06
  1.048982e-01    4.738328e-06
  1.051971e-01    4.710204e-06
  1.054960e-01    4.692861e-06
  1.057950e-01    4.697113e-06
  1.060939e-01    4.690651e-06
  1.063928e-01    4.685819e-06
  1.066917e-01    4.683964e-06
  1.069907e-01    4.661268e-06
  1.072896e-01    4.654790e-06
  1.075885e-01    4.658291e-06
  1.078875e-01    4.632626e-06
  1.081864e-01    4.623508e-06
  1.084853e-01    4.633880e-06
  1.087843e-01    4.629683e-06
  1.090832e-01    4.625962e-06
  1.093821e-01    4.629557e-06
  1.096810e-01    4.594119e-06
  1.099800e-01    4.559374e-06
  1.102789e-01    4.552968e-06
  1.105778e-01    4.531940e-06
  1.108768e-01    4.512003e-06
  1.111757e-01    4.510012e-06
  1.114746e-01    4.500532e-06
  1.117736e-01    4.507570e-06
  1.120725e-01    4.507972e-06
  1.123714e-01    4.508061e-06
  1.126704e-01    4.514650e-06
  1.129693e-01    4.472307e-06
  1.132682e-01    4.431455e-06
  1.135671e-01    4.443692e-06
  1.138661e-01    4.433202e-06
  1.141650e-01    4.396793e-06
  1.144639e-01    4.397326e-06
  1.147629e-01    4.435145e-06
  1.150618e-01    4.432119e-06
  1.153607e-01    4.383344e-06
  1.156597e-01    4.365742e-06
  1.159586e-01    4.357939e-06
  1.162575e-01    4.353385e-06
  1.165564e-01    4.348983e-06
  1.168554e-01    4.326185e-06
  1.171543e-01    4.329105e-06
  1.174532e-01    4.340611e-06
  1.177522e-01    4.346477e-06
  1.180511e-01    4.337882e-06
  1.183500e-01    4.319721e-06
  1.186490e-01    4.328443e-06
  1.189479e-01    4.320629e-06
  1.192468e-01    4.267482e-06
  1.195458e-01    4.252367e-06
  1.198447e-01    4.256431e-06
  1.201436e-01    4.198233e-06
  1.204425e-01    4.167172e-06
  1.207415e-01    4.328915e-06
  1.210404e-01    4.506950e-06
  1.213393e-01    0.000000e+00
  1.216383e-01    0.000000e+00
  1.219372e-01    0.000000e+00
  1.222361e-01    0.000000e+00
  1.225351e-01    0.000000e+00
  1.228340e-01    0.000000e+00
  1.231329e-01    0.000000e+00
  1.234318e-01    0.000000e+00
  1.237308e-01    0.000000e+00
  1.240297e-01    0.000000e+00
  1.243286e-01    0.000000e+00
  1.246276e-01    0.000000e+00
  1.249265e-01    0.000000e+00
  1.252254e-01    0.000000e+00
  1.255244e-01    0.000000e+00
  1.258233e-01    0.000000e+00
  1.261222e-01    0.000000e+00
  1.264212e-01    0.000000e+00
  1.267201e-01    0.000000e+00
  1.270190e-01    0.000000e+00
  1.273179e-01    0.000000e+00
  1.276169e-01    0.000000e+00
  1.279158e-01    0.000000e+00
  1.282147e-01    0.000000e+00
  1.285137e-01    0.000000e+00
  1.288126e-01    0.000000e+00
  1.291115e-01    0.000000e+00
  1.294105e-01    0.000000e+00
  1.297094e-01    0.000000e+00
  1.300083e-01    0.000000e+00
  1.303072e-01    0.000000e+00
  1.306062e-01    0.000000e+00
  1.309051e-01    0.000000e+00
  1.312040e-01    0.000000e+00
  1.315030e-01    0.000000e+00
  1.318019e-01    0.000000e+00
  1.321008e-01    0.000000e+00
  1.323998e-01    0.000000e+00
  1.326987e-01    0.000000e+00
  1.329976e-01    0.000000e+00
  1.332965e-01    0.000000e+00
  1.335955e-01    0.000000e+00
  1.338944e-01    0.000000e+00
  1.341933e-01    0.000000e+00
  1.344923e-01    0.000000e+00
  1.347912e-01    0.000000e+00
  1.350901e-01    0.000000e+00
  1.353891e-01    0.000000e+00
  1.356880e-01    0.000000e+00
  1.359869e-01    0.000000e+00
  1.362859e-01    0.000000e+00
  1.365848e-01    0.000000e+00
  1.368837e-01    0.000000e+00
  1.371826e-01    0.000000e+00
  1.374816e-01    0.000000e+00
  1.377805e-01    0.000000e+00
  1.380794e-01    0.000000e+00
  1.383784e-01    0.000000e+00
  1.386773e-01    0.000000e+00
  1.389762e-01    0.000000e+00
  1.392752e-01    0.000000e+00
  1.395741e-01    0.000000e+00
  1.398730e-01    0.000000e+00
  1.401719e-01    0.000000e+00
  1.404709e-01    0.000000e+00
  1.407698e-01    0.000000e+00
  1.410687e-01    0.000000e+00
  1.413677e-01    0.000000e+00
  1.416666e-01    0.000000e+00
  1.419655e-01    0.000000e+00
  1.422645e-01    0.000000e+00
  1.425634e-01    0.000000e+00
  1.428623e-01    0.000000e+00
  1.431613e-01    0.000000e+00
  1.434602e-01    0.000000e+00
  1.437591e-01    0.000000e+00
  1.440580e-01    0.000000e+00
  1.443570e-01    0.000000e+00
  1.446559e-01    0.000000e+00
  1.449548e-01    0.000000e+00
  1.452538e-01    0.000000e+00
  1.455527e-01    0.000000e+00
  1.458516e-01    0.000000e+00
  1.461506e-01    0.000000e+00
  1.464495e-01    0.000000e+00
  1.467484e-01    0.000000e+00
  1.470473e-01    0.000000e+00
  1.473463e-01    0.000000e+00
  1.476452e-01    0.000000e+00
  1.479441e-01    0.000000e+00
  1.482431e-01    0.000000e+00
  1.485420e-01    0.000000e+00
  1.488409e-01    0.000000e+00
  1.491399e-01    0.000000e+00
  1.494388e-01    0.000000e+00
  1.497377e-01    0.000000e+00
  1.500367e-01    0.000000e+00
  1.503356e-01    0.000000e+00
  1.506345e-01    0.000000e+00
  1.509334e-01    0.000000e+00
  1.512324e-01    0.000000e+00
  1.515313e-01    0.000000e+00
  1.518302e-01    0.000000e+00
  1.521292e-01    0.000000e+00
  1.524281e-01    0.000000e+00
  1.527270e-01    0.000000e+00
  1.530260e-01    0.000000e+00
  1.533249e-01    0.000000e+00
  1.536238e-01    0.000000e+00
