# == pyFAI calibration ==
# Distance Sample to Detector: 2.266 m
# PONI: 5.659e-02, 4.293e-02 m
# Rotations: 0.000000 0.000000 0.000000 rad
# 
# == Fit2d calibration ==
# Distance Sample-beamCenter: 2266.000 mm
# Center: x=249.594, y=329.012 pix
# Tilt: 0.000 deg  TiltPlanRot: 0.000 deg
# 
# Detector Pilatus 300k	 PixelSize= 1.720e-04, 1.720e-04 m
#    Detector has a mask: True 
#    Detector has a dark current: False 
#    detector has a flat field: False 
# 
# Wavelength: 1.27818e-10 m
# Mask applied: user provided
# Dark current applied: False
# Flat field applied: False
# Polarization factor: None
# Normalization factor: 4345300.2
# --> MT-AL_F127_220225_b36369d3-140e-4aa9-b933-c9d5614ce457_0_r1d.csv
#        q_A^-1             I 
  4.457554e-03    6.180104e-03
  4.756484e-03    4.805923e-03
  5.055415e-03    3.402626e-03
  5.354345e-03    2.377540e-03
  5.653276e-03    1.832137e-03
  5.952206e-03    3.077728e-03
  6.251136e-03    2.807889e-03
  6.550067e-03    2.434296e-03
  6.848997e-03    2.065469e-03
  7.147927e-03    1.738680e-03
  7.446858e-03    1.483320e-03
  7.745788e-03    1.271388e-03
  8.044719e-03    1.095500e-03
  8.343649e-03    9.556910e-04
  8.642579e-03    8.344314e-04
  8.941510e-03    7.351311e-04
  9.240440e-03    6.505882e-04
  9.539371e-03    5.770260e-04
  9.838301e-03    5.124434e-04
  1.013723e-02    4.595359e-04
  1.043616e-02    4.146626e-04
  1.073509e-02    3.730232e-04
  1.103402e-02    3.381967e-04
  1.133295e-02    3.073916e-04
  1.163188e-02    2.799564e-04
  1.193081e-02    2.558628e-04
  1.222974e-02    2.339625e-04
  1.252867e-02    2.146820e-04
  1.282760e-02    1.981440e-04
  1.312654e-02    1.832414e-04
  1.342547e-02    1.699322e-04
  1.372440e-02    1.577320e-04
  1.402333e-02    1.467196e-04
  1.432226e-02    1.369680e-04
  1.462119e-02    1.279358e-04
  1.492012e-02    1.196989e-04
  1.521905e-02    1.120506e-04
  1.551798e-02    1.055996e-04
  1.581691e-02    9.923684e-05
  1.611584e-02    9.316982e-05
  1.641477e-02    8.814789e-05
  1.671370e-02    8.330940e-05
  1.701263e-02    7.910574e-05
  1.731156e-02    7.495058e-05
  1.761049e-02    7.105529e-05
  1.790942e-02    6.767106e-05
  1.820835e-02    6.451325e-05
  1.850728e-02    6.199606e-05
  1.880621e-02    5.945160e-05
  1.910514e-02    5.680229e-05
  1.940407e-02    5.453655e-05
  1.970300e-02    5.223652e-05
  2.000193e-02    5.021616e-05
  2.030086e-02    4.857530e-05
  2.059979e-02    4.699604e-05
  2.089873e-02    4.563470e-05
  2.119766e-02    4.411056e-05
  2.149659e-02    4.262586e-05
  2.179552e-02    4.120368e-05
  2.209445e-02    4.011900e-05
  2.239338e-02    3.905789e-05
  2.269231e-02    3.803585e-05
  2.299124e-02    3.690735e-05
  2.329017e-02    3.569007e-05
  2.358910e-02    3.496398e-05
  2.388803e-02    3.442929e-05
  2.418696e-02    3.346169e-05
  2.448589e-02    3.250917e-05
  2.478482e-02    3.177786e-05
  2.508375e-02    3.119265e-05
  2.538268e-02    3.062773e-05
  2.568161e-02    3.014943e-05
  2.598054e-02    2.950949e-05
  2.627947e-02    2.901000e-05
  2.657840e-02    2.849442e-05
  2.687733e-02    2.793334e-05
  2.717626e-02    2.758946e-05
  2.747519e-02    2.720828e-05
  2.777412e-02    2.681507e-05
  2.807305e-02    2.635347e-05
  2.837198e-02    2.624151e-05
  2.867092e-02    2.578998e-05
  2.896985e-02    2.546122e-05
  2.926878e-02    2.534033e-05
  2.956771e-02    2.500371e-05
  2.986664e-02    2.464202e-05
  3.016557e-02    2.434193e-05
  3.046450e-02    2.411679e-05
  3.076343e-02    2.382670e-05
  3.106236e-02    2.353428e-05
  3.136129e-02    2.341786e-05
  3.166022e-02    2.317378e-05
  3.195915e-02    2.293633e-05
  3.225808e-02    2.258699e-05
  3.255701e-02    2.247049e-05
  3.285594e-02    2.222139e-05
  3.315487e-02    2.202112e-05
  3.345380e-02    2.184112e-05
  3.375273e-02    2.152206e-05
  3.405166e-02    2.132850e-05
  3.435059e-02    2.119537e-05
  3.464952e-02    2.097864e-05
  3.494845e-02    2.072723e-05
  3.524738e-02    2.069128e-05
  3.554631e-02    2.057950e-05
  3.584524e-02    2.022896e-05
  3.614417e-02    2.009633e-05
  3.644310e-02    2.012107e-05
  3.674204e-02    1.989388e-05
  3.704097e-02    1.971637e-05
  3.733990e-02    1.958880e-05
  3.763883e-02    1.945822e-05
  3.793776e-02    1.940529e-05
  3.823669e-02    1.921536e-05
  3.853562e-02    1.907766e-05
  3.883455e-02    1.904778e-05
  3.913348e-02    1.874871e-05
  3.943241e-02    1.863175e-05
  3.973134e-02    1.862438e-05
  4.003027e-02    1.858833e-05
  4.032920e-02    1.838776e-05
  4.062813e-02    1.827926e-05
  4.092706e-02    1.823729e-05
  4.122599e-02    1.812915e-05
  4.152492e-02    1.809223e-05
  4.182385e-02    1.800142e-05
  4.212278e-02    1.792571e-05
  4.242171e-02    1.792776e-05
  4.272064e-02    1.789158e-05
  4.301957e-02    1.785577e-05
  4.331850e-02    1.767303e-05
  4.361743e-02    1.767870e-05
  4.391636e-02    1.748384e-05
  4.421529e-02    1.745236e-05
  4.451423e-02    1.755360e-05
  4.481316e-02    1.756454e-05
  4.511209e-02    1.747946e-05
  4.541102e-02    1.743229e-05
  4.570995e-02    1.753917e-05
  4.600888e-02    1.754133e-05
  4.630781e-02    1.734813e-05
  4.660674e-02    1.728760e-05
  4.690567e-02    1.728809e-05
  4.720460e-02    1.731692e-05
  4.750353e-02    1.745479e-05
  4.780246e-02    1.732482e-05
  4.810139e-02    1.739545e-05
  4.840032e-02    1.739866e-05
  4.869925e-02    1.718910e-05
  4.899818e-02    1.717115e-05
  4.929711e-02    1.714577e-05
  4.959604e-02    1.720971e-05
  4.989497e-02    1.729021e-05
  5.019390e-02    1.724466e-05
  5.049283e-02    1.720282e-05
  5.079176e-02    1.712765e-05
  5.109069e-02    1.719186e-05
  5.138962e-02    1.732737e-05
  5.168855e-02    1.761372e-05
  5.198748e-02    1.787980e-05
  5.228642e-02    1.778854e-05
  5.258535e-02    1.733259e-05
  5.288428e-02    1.719273e-05
  5.318321e-02    1.728412e-05
  5.348214e-02    1.714924e-05
  5.378107e-02    1.696587e-05
  5.408000e-02    1.706421e-05
  5.437893e-02    1.714433e-05
  5.467786e-02    1.720866e-05
  5.497679e-02    1.712726e-05
  5.527572e-02    1.715642e-05
  5.557465e-02    1.718906e-05
  5.587358e-02    1.720729e-05
  5.617251e-02    1.718096e-05
  5.647144e-02    1.708750e-05
  5.677037e-02    1.709390e-05
  5.706930e-02    1.710016e-05
  5.736823e-02    1.715329e-05
  5.766716e-02    1.724383e-05
  5.796609e-02    1.723397e-05
  5.826502e-02    1.719489e-05
  5.856395e-02    1.731614e-05
  5.886288e-02    1.735182e-05
  5.916181e-02    1.729537e-05
  5.946074e-02    1.732821e-05
  5.975967e-02    1.742145e-05
  6.005861e-02    1.741998e-05
  6.035754e-02    1.743687e-05
  6.065647e-02    1.746316e-05
  6.095540e-02    1.758215e-05
  6.125433e-02    1.781670e-05
  6.155326e-02    1.785418e-05
  6.185219e-02    1.770388e-05
  6.215112e-02    1.760803e-05
  6.245005e-02    1.749252e-05
  6.274898e-02    1.753017e-05
  6.304791e-02    1.753906e-05
  6.334684e-02    1.753171e-05
  6.364577e-02    1.764195e-05
  6.394470e-02    1.760326e-05
  6.424363e-02    1.761122e-05
  6.454256e-02    1.767639e-05
  6.484149e-02    1.769384e-05
  6.514042e-02    1.776677e-05
  6.543935e-02    1.772578e-05
  6.573828e-02    1.774657e-05
  6.603721e-02    1.773901e-05
  6.633614e-02    1.765834e-05
  6.663507e-02    1.771300e-05
  6.693400e-02    1.781960e-05
  6.723293e-02    1.784615e-05
  6.753186e-02    1.785207e-05
  6.783080e-02    1.790730e-05
  6.812973e-02    1.796266e-05
  6.842866e-02    1.802469e-05
  6.872759e-02    1.794570e-05
  6.902652e-02    1.796625e-05
  6.932545e-02    1.793819e-05
  6.962438e-02    1.790745e-05
  6.992331e-02    1.800926e-05
  7.022224e-02    1.806714e-05
  7.052117e-02    1.806386e-05
  7.082010e-02    1.812733e-05
  7.111903e-02    1.815143e-05
  7.141796e-02    1.811084e-05
  7.171689e-02    1.813232e-05
  7.201582e-02    1.816295e-05
  7.231475e-02    1.826145e-05
  7.261368e-02    1.822449e-05
  7.291261e-02    1.819255e-05
  7.321154e-02    1.825173e-05
  7.351047e-02    1.825271e-05
  7.380940e-02    1.820526e-05
  7.410833e-02    1.816571e-05
  7.440726e-02    1.816103e-05
  7.470619e-02    1.816759e-05
  7.500512e-02    1.823625e-05
  7.530405e-02    1.825370e-05
  7.560299e-02    1.823359e-05
  7.590192e-02    1.820415e-05
  7.620085e-02    1.815540e-05
  7.649978e-02    1.815704e-05
  7.679871e-02    1.817464e-05
  7.709764e-02    1.821769e-05
  7.739657e-02    1.820165e-05
  7.769550e-02    1.815201e-05
  7.799443e-02    1.816093e-05
  7.829336e-02    1.818615e-05
  7.859229e-02    1.814197e-05
  7.889122e-02    1.809664e-05
  7.919015e-02    1.810093e-05
  7.948908e-02    1.808725e-05
  7.978801e-02    1.804165e-05
  8.008694e-02    1.802878e-05
  8.038587e-02    1.805360e-05
  8.068480e-02    1.802899e-05
  8.098373e-02    1.795332e-05
  8.128266e-02    1.793679e-05
  8.158159e-02    1.796688e-05
  8.188052e-02    1.800283e-05
  8.217945e-02    1.805239e-05
  8.247838e-02    1.801862e-05
  8.277731e-02    1.798119e-05
  8.307624e-02    1.793864e-05
  8.337518e-02    1.789110e-05
  8.367411e-02    1.786828e-05
  8.397304e-02    1.775539e-05
  8.427197e-02    1.773189e-05
  8.457090e-02    1.780173e-05
  8.486983e-02    1.781020e-05
  8.516876e-02    1.771861e-05
  8.546769e-02    1.763642e-05
  8.576662e-02    1.763315e-05
  8.606555e-02    1.757488e-05
  8.636448e-02    1.762798e-05
  8.666341e-02    1.758857e-05
  8.696234e-02    1.754851e-05
  8.726127e-02    1.758085e-05
  8.756020e-02    1.753177e-05
  8.785913e-02    1.748915e-05
  8.815806e-02    1.739818e-05
  8.845699e-02    1.744886e-05
  8.875592e-02    1.742650e-05
  8.905485e-02    1.734053e-05
  8.935378e-02    1.728852e-05
  8.965271e-02    1.729860e-05
  8.995164e-02    1.726860e-05
  9.025057e-02    1.727940e-05
  9.054950e-02    1.727804e-05
  9.084843e-02    1.711247e-05
  9.114737e-02    1.715850e-05
  9.144630e-02    1.719323e-05
  9.174523e-02    1.715251e-05
  9.204416e-02    1.705992e-05
  9.234309e-02    1.701608e-05
  9.264202e-02    1.699547e-05
  9.294095e-02    1.703027e-05
  9.323988e-02    1.696131e-05
  9.353881e-02    1.690112e-05
  9.383774e-02    1.683498e-05
  9.413667e-02    1.683579e-05
  9.443560e-02    1.685658e-05
  9.473453e-02    1.684607e-05
  9.503346e-02    1.679152e-05
  9.533239e-02    1.671363e-05
  9.563132e-02    1.670218e-05
  9.593025e-02    1.676078e-05
  9.622918e-02    1.672752e-05
  9.652811e-02    1.676200e-05
  9.682704e-02    1.684263e-05
  9.712597e-02    1.682137e-05
  9.742490e-02    1.676445e-05
  9.772383e-02    1.667288e-05
  9.802276e-02    1.659276e-05
  9.832169e-02    1.655800e-05
  9.862062e-02    1.645379e-05
  9.891956e-02    1.642842e-05
  9.921849e-02    1.637173e-05
  9.951742e-02    1.630556e-05
  9.981635e-02    1.630236e-05
  1.001153e-01    1.635328e-05
  1.004142e-01    1.633088e-05
  1.007131e-01    1.624050e-05
  1.010121e-01    1.618630e-05
  1.013110e-01    1.616614e-05
  1.016099e-01    1.612014e-05
  1.019089e-01    1.603520e-05
  1.022078e-01    1.594377e-05
  1.025067e-01    1.599450e-05
  1.028057e-01    1.608922e-05
  1.031046e-01    1.607741e-05
  1.034035e-01    1.595382e-05
  1.037024e-01    1.589036e-05
  1.040014e-01    1.588382e-05
  1.043003e-01    1.578338e-05
  1.045992e-01    1.581085e-05
  1.048982e-01    1.585283e-05
  1.051971e-01    1.581579e-05
  1.054960e-01    1.573696e-05
  1.057950e-01    1.575358e-05
  1.060939e-01    1.568923e-05
  1.063928e-01    1.565718e-05
  1.066917e-01    1.562826e-05
  1.069907e-01    1.558526e-05
  1.072896e-01    1.555320e-05
  1.075885e-01    1.552990e-05
  1.078875e-01    1.550298e-05
  1.081864e-01    1.551227e-05
  1.084853e-01    1.555687e-05
  1.087843e-01    1.554949e-05
  1.090832e-01    1.550943e-05
  1.093821e-01    1.542135e-05
  1.096810e-01    1.529106e-05
  1.099800e-01    1.526313e-05
  1.102789e-01    1.526502e-05
  1.105778e-01    1.521107e-05
  1.108768e-01    1.513731e-05
  1.111757e-01    1.507598e-05
  1.114746e-01    1.507174e-05
  1.117736e-01    1.512038e-05
  1.120725e-01    1.511430e-05
  1.123714e-01    1.499138e-05
  1.126704e-01    1.491497e-05
  1.129693e-01    1.481321e-05
  1.132682e-01    1.474264e-05
  1.135671e-01    1.473747e-05
  1.138661e-01    1.466536e-05
  1.141650e-01    1.457147e-05
  1.144639e-01    1.475699e-05
  1.147629e-01    1.490341e-05
  1.150618e-01    1.478981e-05
  1.153607e-01    1.479254e-05
  1.156597e-01    1.465143e-05
  1.159586e-01    1.460379e-05
  1.162575e-01    1.454441e-05
  1.165564e-01    1.438044e-05
  1.168554e-01    1.436387e-05
  1.171543e-01    1.443412e-05
  1.174532e-01    1.455953e-05
  1.177522e-01    1.449209e-05
  1.180511e-01    1.443589e-05
  1.183500e-01    1.440862e-05
  1.186490e-01    1.441067e-05
  1.189479e-01    1.448029e-05
  1.192468e-01    1.447471e-05
  1.195458e-01    1.439890e-05
  1.198447e-01    1.425026e-05
  1.201436e-01    1.384663e-05
  1.204425e-01    1.375867e-05
  1.207415e-01    1.324270e-05
  1.210404e-01    1.243848e-05
  1.213393e-01    0.000000e+00
  1.216383e-01    0.000000e+00
  1.219372e-01    0.000000e+00
  1.222361e-01    0.000000e+00
  1.225351e-01    0.000000e+00
  1.228340e-01    0.000000e+00
  1.231329e-01    0.000000e+00
  1.234318e-01    0.000000e+00
  1.237308e-01    0.000000e+00
  1.240297e-01    0.000000e+00
  1.243286e-01    0.000000e+00
  1.246276e-01    0.000000e+00
  1.249265e-01    0.000000e+00
  1.252254e-01    0.000000e+00
  1.255244e-01    0.000000e+00
  1.258233e-01    0.000000e+00
  1.261222e-01    0.000000e+00
  1.264212e-01    0.000000e+00
  1.267201e-01    0.000000e+00
  1.270190e-01    0.000000e+00
  1.273179e-01    0.000000e+00
  1.276169e-01    0.000000e+00
  1.279158e-01    0.000000e+00
  1.282147e-01    0.000000e+00
  1.285137e-01    0.000000e+00
  1.288126e-01    0.000000e+00
  1.291115e-01    0.000000e+00
  1.294105e-01    0.000000e+00
  1.297094e-01    0.000000e+00
  1.300083e-01    0.000000e+00
  1.303072e-01    0.000000e+00
  1.306062e-01    0.000000e+00
  1.309051e-01    0.000000e+00
  1.312040e-01    0.000000e+00
  1.315030e-01    0.000000e+00
  1.318019e-01    0.000000e+00
  1.321008e-01    0.000000e+00
  1.323998e-01    0.000000e+00
  1.326987e-01    0.000000e+00
  1.329976e-01    0.000000e+00
  1.332965e-01    0.000000e+00
  1.335955e-01    0.000000e+00
  1.338944e-01    0.000000e+00
  1.341933e-01    0.000000e+00
  1.344923e-01    0.000000e+00
  1.347912e-01    0.000000e+00
  1.350901e-01    0.000000e+00
  1.353891e-01    0.000000e+00
  1.356880e-01    0.000000e+00
  1.359869e-01    0.000000e+00
  1.362859e-01    0.000000e+00
  1.365848e-01    0.000000e+00
  1.368837e-01    0.000000e+00
  1.371826e-01    0.000000e+00
  1.374816e-01    0.000000e+00
  1.377805e-01    0.000000e+00
  1.380794e-01    0.000000e+00
  1.383784e-01    0.000000e+00
  1.386773e-01    0.000000e+00
  1.389762e-01    0.000000e+00
  1.392752e-01    0.000000e+00
  1.395741e-01    0.000000e+00
  1.398730e-01    0.000000e+00
  1.401719e-01    0.000000e+00
  1.404709e-01    0.000000e+00
  1.407698e-01    0.000000e+00
  1.410687e-01    0.000000e+00
  1.413677e-01    0.000000e+00
  1.416666e-01    0.000000e+00
  1.419655e-01    0.000000e+00
  1.422645e-01    0.000000e+00
  1.425634e-01    0.000000e+00
  1.428623e-01    0.000000e+00
  1.431613e-01    0.000000e+00
  1.434602e-01    0.000000e+00
  1.437591e-01    0.000000e+00
  1.440580e-01    0.000000e+00
  1.443570e-01    0.000000e+00
  1.446559e-01    0.000000e+00
  1.449548e-01    0.000000e+00
  1.452538e-01    0.000000e+00
  1.455527e-01    0.000000e+00
  1.458516e-01    0.000000e+00
  1.461506e-01    0.000000e+00
  1.464495e-01    0.000000e+00
  1.467484e-01    0.000000e+00
  1.470473e-01    0.000000e+00
  1.473463e-01    0.000000e+00
  1.476452e-01    0.000000e+00
  1.479441e-01    0.000000e+00
  1.482431e-01    0.000000e+00
  1.485420e-01    0.000000e+00
  1.488409e-01    0.000000e+00
  1.491399e-01    0.000000e+00
  1.494388e-01    0.000000e+00
  1.497377e-01    0.000000e+00
  1.500367e-01    0.000000e+00
  1.503356e-01    0.000000e+00
  1.506345e-01    0.000000e+00
  1.509334e-01    0.000000e+00
  1.512324e-01    0.000000e+00
  1.515313e-01    0.000000e+00
  1.518302e-01    0.000000e+00
  1.521292e-01    0.000000e+00
  1.524281e-01    0.000000e+00
  1.527270e-01    0.000000e+00
  1.530260e-01    0.000000e+00
  1.533249e-01    0.000000e+00
  1.536238e-01    0.000000e+00
