# == pyFAI calibration ==
# Distance Sample to Detector: 2.266 m
# PONI: 5.659e-02, 4.293e-02 m
# Rotations: 0.000000 0.000000 0.000000 rad
# 
# == Fit2d calibration ==
# Distance Sample-beamCenter: 2266.000 mm
# Center: x=249.594, y=329.012 pix
# Tilt: 0.000 deg  TiltPlanRot: 0.000 deg
# 
# Detector Pilatus 300k	 PixelSize= 1.720e-04, 1.720e-04 m
#    Detector has a mask: True 
#    Detector has a dark current: False 
#    detector has a flat field: False 
# 
# Wavelength: 1.27818e-10 m
# Mask applied: user provided
# Dark current applied: False
# Flat field applied: False
# Polarization factor: None
# Normalization factor: 4942050.4
# --> MT-AL_F127_220301_39c3e499-ca6c-46a4-a90a-002a60ae06cb_2_r1d.csv
#        q_A^-1             I 
  4.457554e-03    2.022598e-03
  4.756484e-03    1.565611e-03
  5.055415e-03    1.106867e-03
  5.354345e-03    7.726832e-04
  5.653276e-03    5.844093e-04
  5.952206e-03    9.130103e-04
  6.251136e-03    8.373908e-04
  6.550067e-03    7.289522e-04
  6.848997e-03    6.238393e-04
  7.147927e-03    5.283774e-04
  7.446858e-03    4.526977e-04
  7.745788e-03    3.897814e-04
  8.044719e-03    3.343024e-04
  8.343649e-03    2.918829e-04
  8.642579e-03    2.560116e-04
  8.941510e-03    2.256241e-04
  9.240440e-03    2.000946e-04
  9.539371e-03    1.784334e-04
  9.838301e-03    1.585210e-04
  1.013723e-02    1.420024e-04
  1.043616e-02    1.278162e-04
  1.073509e-02    1.145429e-04
  1.103402e-02    1.038045e-04
  1.133295e-02    9.420008e-05
  1.163188e-02    8.583428e-05
  1.193081e-02    7.835530e-05
  1.222974e-02    7.156617e-05
  1.252867e-02    6.568617e-05
  1.282760e-02    6.027495e-05
  1.312654e-02    5.557236e-05
  1.342547e-02    5.166120e-05
  1.372440e-02    4.782919e-05
  1.402333e-02    4.430261e-05
  1.432226e-02    4.118107e-05
  1.462119e-02    3.838923e-05
  1.492012e-02    3.595708e-05
  1.521905e-02    3.345571e-05
  1.551798e-02    3.144704e-05
  1.581691e-02    2.968350e-05
  1.611584e-02    2.780186e-05
  1.641477e-02    2.599176e-05
  1.671370e-02    2.455278e-05
  1.701263e-02    2.337085e-05
  1.731156e-02    2.211436e-05
  1.761049e-02    2.091637e-05
  1.790942e-02    1.994255e-05
  1.820835e-02    1.899301e-05
  1.850728e-02    1.801320e-05
  1.880621e-02    1.717680e-05
  1.910514e-02    1.656463e-05
  1.940407e-02    1.585208e-05
  1.970300e-02    1.513851e-05
  2.000193e-02    1.462233e-05
  2.030086e-02    1.406930e-05
  2.059979e-02    1.345641e-05
  2.089873e-02    1.302123e-05
  2.119766e-02    1.262738e-05
  2.149659e-02    1.216669e-05
  2.179552e-02    1.176067e-05
  2.209445e-02    1.153202e-05
  2.239338e-02    1.121037e-05
  2.269231e-02    1.092276e-05
  2.299124e-02    1.052623e-05
  2.329017e-02    1.027348e-05
  2.358910e-02    1.012199e-05
  2.388803e-02    9.864766e-06
  2.418696e-02    9.686482e-06
  2.448589e-02    9.521181e-06
  2.478482e-02    9.256217e-06
  2.508375e-02    8.951307e-06
  2.538268e-02    8.763303e-06
  2.568161e-02    8.686161e-06
  2.598054e-02    8.459785e-06
  2.627947e-02    8.345248e-06
  2.657840e-02    8.230215e-06
  2.687733e-02    8.058175e-06
  2.717626e-02    7.957135e-06
  2.747519e-02    7.855931e-06
  2.777412e-02    7.761185e-06
  2.807305e-02    7.623125e-06
  2.837198e-02    7.615793e-06
  2.867092e-02    7.478578e-06
  2.896985e-02    7.324571e-06
  2.926878e-02    7.272356e-06
  2.956771e-02    7.254072e-06
  2.986664e-02    7.159408e-06
  3.016557e-02    7.063317e-06
  3.046450e-02    6.991724e-06
  3.076343e-02    6.831421e-06
  3.106236e-02    6.787097e-06
  3.136129e-02    6.760165e-06
  3.166022e-02    6.711716e-06
  3.195915e-02    6.678344e-06
  3.225808e-02    6.593907e-06
  3.255701e-02    6.468334e-06
  3.285594e-02    6.420284e-06
  3.315487e-02    6.310450e-06
  3.345380e-02    6.244562e-06
  3.375273e-02    6.217842e-06
  3.405166e-02    6.214247e-06
  3.435059e-02    6.205105e-06
  3.464952e-02    6.076446e-06
  3.494845e-02    6.021960e-06
  3.524738e-02    5.937663e-06
  3.554631e-02    5.848768e-06
  3.584524e-02    5.770046e-06
  3.614417e-02    5.755093e-06
  3.644310e-02    5.735379e-06
  3.674204e-02    5.712503e-06
  3.704097e-02    5.595085e-06
  3.733990e-02    5.515696e-06
  3.763883e-02    5.502598e-06
  3.793776e-02    5.447840e-06
  3.823669e-02    5.370527e-06
  3.853562e-02    5.328478e-06
  3.883455e-02    5.279445e-06
  3.913348e-02    5.308901e-06
  3.943241e-02    5.283023e-06
  3.973134e-02    5.214023e-06
  4.003027e-02    5.160404e-06
  4.032920e-02    5.148646e-06
  4.062813e-02    5.107140e-06
  4.092706e-02    5.106596e-06
  4.122599e-02    5.067279e-06
  4.152492e-02    5.047982e-06
  4.182385e-02    5.022484e-06
  4.212278e-02    4.984959e-06
  4.242171e-02    4.958864e-06
  4.272064e-02    4.956111e-06
  4.301957e-02    4.951339e-06
  4.331850e-02    4.931495e-06
  4.361743e-02    4.864700e-06
  4.391636e-02    4.842418e-06
  4.421529e-02    4.815358e-06
  4.451423e-02    4.829087e-06
  4.481316e-02    4.835448e-06
  4.511209e-02    4.873307e-06
  4.541102e-02    4.849072e-06
  4.570995e-02    4.839429e-06
  4.600888e-02    4.825342e-06
  4.630781e-02    4.821373e-06
  4.660674e-02    4.755410e-06
  4.690567e-02    4.817053e-06
  4.720460e-02    4.835204e-06
  4.750353e-02    4.823105e-06
  4.780246e-02    4.807427e-06
  4.810139e-02    4.751871e-06
  4.840032e-02    4.785043e-06
  4.869925e-02    4.775131e-06
  4.899818e-02    4.680115e-06
  4.929711e-02    4.689370e-06
  4.959604e-02    4.683974e-06
  4.989497e-02    4.704527e-06
  5.019390e-02    4.711381e-06
  5.049283e-02    4.758663e-06
  5.079176e-02    4.759304e-06
  5.109069e-02    4.749691e-06
  5.138962e-02    4.781616e-06
  5.168855e-02    4.950256e-06
  5.198748e-02    5.080555e-06
  5.228642e-02    5.015160e-06
  5.258535e-02    4.838379e-06
  5.288428e-02    4.719733e-06
  5.318321e-02    4.673552e-06
  5.348214e-02    4.684175e-06
  5.378107e-02    4.687005e-06
  5.408000e-02    4.685785e-06
  5.437893e-02    4.658325e-06
  5.467786e-02    4.639682e-06
  5.497679e-02    4.604937e-06
  5.527572e-02    4.670055e-06
  5.557465e-02    4.676470e-06
  5.587358e-02    4.700613e-06
  5.617251e-02    4.717013e-06
  5.647144e-02    4.654241e-06
  5.677037e-02    4.674003e-06
  5.706930e-02    4.682469e-06
  5.736823e-02    4.717368e-06
  5.766716e-02    4.695656e-06
  5.796609e-02    4.676838e-06
  5.826502e-02    4.670138e-06
  5.856395e-02    4.651041e-06
  5.886288e-02    4.675296e-06
  5.916181e-02    4.689948e-06
  5.946074e-02    4.719988e-06
  5.975967e-02    4.727748e-06
  6.005861e-02    4.720035e-06
  6.035754e-02    4.730234e-06
  6.065647e-02    4.769772e-06
  6.095540e-02    4.834888e-06
  6.125433e-02    4.912029e-06
  6.155326e-02    4.957399e-06
  6.185219e-02    4.874591e-06
  6.215112e-02    4.802750e-06
  6.245005e-02    4.783473e-06
  6.274898e-02    4.737070e-06
  6.304791e-02    4.733749e-06
  6.334684e-02    4.743410e-06
  6.364577e-02    4.736125e-06
  6.394470e-02    4.745778e-06
  6.424363e-02    4.817557e-06
  6.454256e-02    4.810880e-06
  6.484149e-02    4.758879e-06
  6.514042e-02    4.808410e-06
  6.543935e-02    4.846341e-06
  6.573828e-02    4.856643e-06
  6.603721e-02    4.849658e-06
  6.633614e-02    4.854765e-06
  6.663507e-02    4.860050e-06
  6.693400e-02    4.837640e-06
  6.723293e-02    4.814475e-06
  6.753186e-02    4.830670e-06
  6.783080e-02    4.849232e-06
  6.812973e-02    4.890160e-06
  6.842866e-02    4.905562e-06
  6.872759e-02    4.905448e-06
  6.902652e-02    4.875797e-06
  6.932545e-02    4.880647e-06
  6.962438e-02    4.923101e-06
  6.992331e-02    4.931861e-06
  7.022224e-02    4.931673e-06
  7.052117e-02    4.952085e-06
  7.082010e-02    4.967013e-06
  7.111903e-02    4.953269e-06
  7.141796e-02    4.963891e-06
  7.171689e-02    4.957279e-06
  7.201582e-02    4.963030e-06
  7.231475e-02    4.949644e-06
  7.261368e-02    4.931265e-06
  7.291261e-02    4.958679e-06
  7.321154e-02    4.983657e-06
  7.351047e-02    5.011214e-06
  7.380940e-02    4.976731e-06
  7.410833e-02    4.955481e-06
  7.440726e-02    4.963041e-06
  7.470619e-02    4.993337e-06
  7.500512e-02    4.989587e-06
  7.530405e-02    5.003555e-06
  7.560299e-02    5.029371e-06
  7.590192e-02    5.004714e-06
  7.620085e-02    4.988140e-06
  7.649978e-02    4.963894e-06
  7.679871e-02    4.956420e-06
  7.709764e-02    4.958612e-06
  7.739657e-02    4.963257e-06
  7.769550e-02    4.968300e-06
  7.799443e-02    4.974629e-06
  7.829336e-02    4.963546e-06
  7.859229e-02    4.923530e-06
  7.889122e-02    4.924619e-06
  7.919015e-02    4.923750e-06
  7.948908e-02    4.940947e-06
  7.978801e-02    4.947106e-06
  8.008694e-02    4.951587e-06
  8.038587e-02    4.951364e-06
  8.068480e-02    4.931273e-06
  8.098373e-02    4.921406e-06
  8.128266e-02    4.895349e-06
  8.158159e-02    4.901590e-06
  8.188052e-02    4.877094e-06
  8.217945e-02    4.867533e-06
  8.247838e-02    4.869536e-06
  8.277731e-02    4.917436e-06
  8.307624e-02    4.882563e-06
  8.337518e-02    4.842739e-06
  8.367411e-02    4.881695e-06
  8.397304e-02    4.878217e-06
  8.427197e-02    4.865532e-06
  8.457090e-02    4.854738e-06
  8.486983e-02    4.837715e-06
  8.516876e-02    4.855448e-06
  8.546769e-02    4.845834e-06
  8.576662e-02    4.850794e-06
  8.606555e-02    4.832648e-06
  8.636448e-02    4.803015e-06
  8.666341e-02    4.797022e-06
  8.696234e-02    4.807561e-06
  8.726127e-02    4.828421e-06
  8.756020e-02    4.830487e-06
  8.785913e-02    4.798984e-06
  8.815806e-02    4.770885e-06
  8.845699e-02    4.756565e-06
  8.875592e-02    4.745471e-06
  8.905485e-02    4.729518e-06
  8.935378e-02    4.737719e-06
  8.965271e-02    4.734522e-06
  8.995164e-02    4.694356e-06
  9.025057e-02    4.712444e-06
  9.054950e-02    4.713343e-06
  9.084843e-02    4.706058e-06
  9.114737e-02    4.684236e-06
  9.144630e-02    4.636622e-06
  9.174523e-02    4.631090e-06
  9.204416e-02    4.639926e-06
  9.234309e-02    4.605743e-06
  9.264202e-02    4.629014e-06
  9.294095e-02    4.649288e-06
  9.323988e-02    4.620294e-06
  9.353881e-02    4.583947e-06
  9.383774e-02    4.564903e-06
  9.413667e-02    4.561089e-06
  9.443560e-02    4.559483e-06
  9.473453e-02    4.560365e-06
  9.503346e-02    4.531950e-06
  9.533239e-02    4.563490e-06
  9.563132e-02    4.579717e-06
  9.593025e-02    4.561341e-06
  9.622918e-02    4.507247e-06
  9.652811e-02    4.554266e-06
  9.682704e-02    4.608131e-06
  9.712597e-02    4.597585e-06
  9.742490e-02    4.564694e-06
  9.772383e-02    4.529893e-06
  9.802276e-02    4.512911e-06
  9.832169e-02    4.490135e-06
  9.862062e-02    4.470329e-06
  9.891956e-02    4.457233e-06
  9.921849e-02    4.458136e-06
  9.951742e-02    4.442526e-06
  9.981635e-02    4.389955e-06
  1.001153e-01    4.373235e-06
  1.004142e-01    4.359748e-06
  1.007131e-01    4.358064e-06
  1.010121e-01    4.386475e-06
  1.013110e-01    4.342156e-06
  1.016099e-01    4.311760e-06
  1.019089e-01    4.323263e-06
  1.022078e-01    4.327454e-06
  1.025067e-01    4.312263e-06
  1.028057e-01    4.323630e-06
  1.031046e-01    4.308111e-06
  1.034035e-01    4.337079e-06
  1.037024e-01    4.313366e-06
  1.040014e-01    4.264738e-06
  1.043003e-01    4.262857e-06
  1.045992e-01    4.238270e-06
  1.048982e-01    4.268232e-06
  1.051971e-01    4.238021e-06
  1.054960e-01    4.216136e-06
  1.057950e-01    4.230053e-06
  1.060939e-01    4.210903e-06
  1.063928e-01    4.230595e-06
  1.066917e-01    4.226801e-06
  1.069907e-01    4.221138e-06
  1.072896e-01    4.203804e-06
  1.075885e-01    4.184375e-06
  1.078875e-01    4.224257e-06
  1.081864e-01    4.178604e-06
  1.084853e-01    4.183149e-06
  1.087843e-01    4.223109e-06
  1.090832e-01    4.209588e-06
  1.093821e-01    4.166368e-06
  1.096810e-01    4.135607e-06
  1.099800e-01    4.118556e-06
  1.102789e-01    4.100155e-06
  1.105778e-01    4.105700e-06
  1.108768e-01    4.117612e-06
  1.111757e-01    4.103944e-06
  1.114746e-01    4.076966e-06
  1.117736e-01    4.078564e-06
  1.120725e-01    4.088997e-06
  1.123714e-01    4.061826e-06
  1.126704e-01    4.041482e-06
  1.129693e-01    4.042439e-06
  1.132682e-01    3.977213e-06
  1.135671e-01    3.990254e-06
  1.138661e-01    4.011920e-06
  1.141650e-01    3.995426e-06
  1.144639e-01    3.984679e-06
  1.147629e-01    3.913354e-06
  1.150618e-01    3.858866e-06
  1.153607e-01    3.913991e-06
  1.156597e-01    3.951791e-06
  1.159586e-01    3.936600e-06
  1.162575e-01    3.967563e-06
  1.165564e-01    3.922184e-06
  1.168554e-01    3.930724e-06
  1.171543e-01    3.976806e-06
  1.174532e-01    3.923508e-06
  1.177522e-01    3.951309e-06
  1.180511e-01    3.957606e-06
  1.183500e-01    3.945575e-06
  1.186490e-01    3.891087e-06
  1.189479e-01    3.903605e-06
  1.192468e-01    3.906387e-06
  1.195458e-01    3.867786e-06
  1.198447e-01    3.912481e-06
  1.201436e-01    3.944853e-06
  1.204425e-01    3.919783e-06
  1.207415e-01    3.621925e-06
  1.210404e-01    3.645512e-06
  1.213393e-01    0.000000e+00
  1.216383e-01    0.000000e+00
  1.219372e-01    0.000000e+00
  1.222361e-01    0.000000e+00
  1.225351e-01    0.000000e+00
  1.228340e-01    0.000000e+00
  1.231329e-01    0.000000e+00
  1.234318e-01    0.000000e+00
  1.237308e-01    0.000000e+00
  1.240297e-01    0.000000e+00
  1.243286e-01    0.000000e+00
  1.246276e-01    0.000000e+00
  1.249265e-01    0.000000e+00
  1.252254e-01    0.000000e+00
  1.255244e-01    0.000000e+00
  1.258233e-01    0.000000e+00
  1.261222e-01    0.000000e+00
  1.264212e-01    0.000000e+00
  1.267201e-01    0.000000e+00
  1.270190e-01    0.000000e+00
  1.273179e-01    0.000000e+00
  1.276169e-01    0.000000e+00
  1.279158e-01    0.000000e+00
  1.282147e-01    0.000000e+00
  1.285137e-01    0.000000e+00
  1.288126e-01    0.000000e+00
  1.291115e-01    0.000000e+00
  1.294105e-01    0.000000e+00
  1.297094e-01    0.000000e+00
  1.300083e-01    0.000000e+00
  1.303072e-01    0.000000e+00
  1.306062e-01    0.000000e+00
  1.309051e-01    0.000000e+00
  1.312040e-01    0.000000e+00
  1.315030e-01    0.000000e+00
  1.318019e-01    0.000000e+00
  1.321008e-01    0.000000e+00
  1.323998e-01    0.000000e+00
  1.326987e-01    0.000000e+00
  1.329976e-01    0.000000e+00
  1.332965e-01    0.000000e+00
  1.335955e-01    0.000000e+00
  1.338944e-01    0.000000e+00
  1.341933e-01    0.000000e+00
  1.344923e-01    0.000000e+00
  1.347912e-01    0.000000e+00
  1.350901e-01    0.000000e+00
  1.353891e-01    0.000000e+00
  1.356880e-01    0.000000e+00
  1.359869e-01    0.000000e+00
  1.362859e-01    0.000000e+00
  1.365848e-01    0.000000e+00
  1.368837e-01    0.000000e+00
  1.371826e-01    0.000000e+00
  1.374816e-01    0.000000e+00
  1.377805e-01    0.000000e+00
  1.380794e-01    0.000000e+00
  1.383784e-01    0.000000e+00
  1.386773e-01    0.000000e+00
  1.389762e-01    0.000000e+00
  1.392752e-01    0.000000e+00
  1.395741e-01    0.000000e+00
  1.398730e-01    0.000000e+00
  1.401719e-01    0.000000e+00
  1.404709e-01    0.000000e+00
  1.407698e-01    0.000000e+00
  1.410687e-01    0.000000e+00
  1.413677e-01    0.000000e+00
  1.416666e-01    0.000000e+00
  1.419655e-01    0.000000e+00
  1.422645e-01    0.000000e+00
  1.425634e-01    0.000000e+00
  1.428623e-01    0.000000e+00
  1.431613e-01    0.000000e+00
  1.434602e-01    0.000000e+00
  1.437591e-01    0.000000e+00
  1.440580e-01    0.000000e+00
  1.443570e-01    0.000000e+00
  1.446559e-01    0.000000e+00
  1.449548e-01    0.000000e+00
  1.452538e-01    0.000000e+00
  1.455527e-01    0.000000e+00
  1.458516e-01    0.000000e+00
  1.461506e-01    0.000000e+00
  1.464495e-01    0.000000e+00
  1.467484e-01    0.000000e+00
  1.470473e-01    0.000000e+00
  1.473463e-01    0.000000e+00
  1.476452e-01    0.000000e+00
  1.479441e-01    0.000000e+00
  1.482431e-01    0.000000e+00
  1.485420e-01    0.000000e+00
  1.488409e-01    0.000000e+00
  1.491399e-01    0.000000e+00
  1.494388e-01    0.000000e+00
  1.497377e-01    0.000000e+00
  1.500367e-01    0.000000e+00
  1.503356e-01    0.000000e+00
  1.506345e-01    0.000000e+00
  1.509334e-01    0.000000e+00
  1.512324e-01    0.000000e+00
  1.515313e-01    0.000000e+00
  1.518302e-01    0.000000e+00
  1.521292e-01    0.000000e+00
  1.524281e-01    0.000000e+00
  1.527270e-01    0.000000e+00
  1.530260e-01    0.000000e+00
  1.533249e-01    0.000000e+00
  1.536238e-01    0.000000e+00
