# == pyFAI calibration ==
# Distance Sample to Detector: 2.266 m
# PONI: 5.659e-02, 4.293e-02 m
# Rotations: 0.000000 0.000000 0.000000 rad
# 
# == Fit2d calibration ==
# Distance Sample-beamCenter: 2266.000 mm
# Center: x=249.594, y=329.012 pix
# Tilt: 0.000 deg  TiltPlanRot: 0.000 deg
# 
# Detector Pilatus 300k	 PixelSize= 1.720e-04, 1.720e-04 m
#    Detector has a mask: True 
#    Detector has a dark current: False 
#    detector has a flat field: False 
# 
# Wavelength: 1.27818e-10 m
# Mask applied: user provided
# Dark current applied: False
# Flat field applied: False
# Polarization factor: None
# Normalization factor: 5257781.8
# --> MT-AL_F127_220301_39c3e499-ca6c-46a4-a90a-002a60ae06cb_1_r1d.csv
#        q_A^-1             I 
  4.457554e-03    2.147444e-03
  4.756484e-03    1.656209e-03
  5.055415e-03    1.159490e-03
  5.354345e-03    8.022861e-04
  5.653276e-03    6.049961e-04
  5.952206e-03    9.576718e-04
  6.251136e-03    8.760099e-04
  6.550067e-03    7.617093e-04
  6.848997e-03    6.498965e-04
  7.147927e-03    5.529627e-04
  7.446858e-03    4.721931e-04
  7.745788e-03    4.052721e-04
  8.044719e-03    3.484822e-04
  8.343649e-03    3.031664e-04
  8.642579e-03    2.648626e-04
  8.941510e-03    2.328220e-04
  9.240440e-03    2.058520e-04
  9.539371e-03    1.829574e-04
  9.838301e-03    1.635328e-04
  1.013723e-02    1.463067e-04
  1.043616e-02    1.311764e-04
  1.073509e-02    1.176759e-04
  1.103402e-02    1.068206e-04
  1.133295e-02    9.706862e-05
  1.163188e-02    8.834568e-05
  1.193081e-02    8.052631e-05
  1.222974e-02    7.367363e-05
  1.252867e-02    6.771062e-05
  1.282760e-02    6.254704e-05
  1.312654e-02    5.742120e-05
  1.342547e-02    5.306278e-05
  1.372440e-02    4.908962e-05
  1.402333e-02    4.569574e-05
  1.432226e-02    4.246867e-05
  1.462119e-02    3.964797e-05
  1.492012e-02    3.712915e-05
  1.521905e-02    3.461254e-05
  1.551798e-02    3.262049e-05
  1.581691e-02    3.067750e-05
  1.611584e-02    2.871437e-05
  1.641477e-02    2.717548e-05
  1.671370e-02    2.575541e-05
  1.701263e-02    2.422083e-05
  1.731156e-02    2.287023e-05
  1.761049e-02    2.187223e-05
  1.790942e-02    2.075527e-05
  1.820835e-02    1.987869e-05
  1.850728e-02    1.906488e-05
  1.880621e-02    1.808579e-05
  1.910514e-02    1.724227e-05
  1.940407e-02    1.656203e-05
  1.970300e-02    1.603094e-05
  2.000193e-02    1.557805e-05
  2.030086e-02    1.494388e-05
  2.059979e-02    1.435329e-05
  2.089873e-02    1.389786e-05
  2.119766e-02    1.348125e-05
  2.149659e-02    1.296474e-05
  2.179552e-02    1.256548e-05
  2.209445e-02    1.217551e-05
  2.239338e-02    1.175639e-05
  2.269231e-02    1.147901e-05
  2.299124e-02    1.119477e-05
  2.329017e-02    1.097120e-05
  2.358910e-02    1.073487e-05
  2.388803e-02    1.042995e-05
  2.418696e-02    1.021498e-05
  2.448589e-02    1.001286e-05
  2.478482e-02    9.807051e-06
  2.508375e-02    9.629895e-06
  2.538268e-02    9.450283e-06
  2.568161e-02    9.326865e-06
  2.598054e-02    9.091742e-06
  2.627947e-02    8.938973e-06
  2.657840e-02    8.889258e-06
  2.687733e-02    8.732249e-06
  2.717626e-02    8.508418e-06
  2.747519e-02    8.405734e-06
  2.777412e-02    8.401534e-06
  2.807305e-02    8.217940e-06
  2.837198e-02    7.983290e-06
  2.867092e-02    7.957359e-06
  2.896985e-02    7.883394e-06
  2.926878e-02    7.755284e-06
  2.956771e-02    7.677453e-06
  2.986664e-02    7.618425e-06
  3.016557e-02    7.547088e-06
  3.046450e-02    7.433912e-06
  3.076343e-02    7.454556e-06
  3.106236e-02    7.381423e-06
  3.136129e-02    7.261472e-06
  3.166022e-02    7.203452e-06
  3.195915e-02    7.144826e-06
  3.225808e-02    7.062220e-06
  3.255701e-02    7.047282e-06
  3.285594e-02    6.988354e-06
  3.315487e-02    6.834391e-06
  3.345380e-02    6.779818e-06
  3.375273e-02    6.739346e-06
  3.405166e-02    6.653147e-06
  3.435059e-02    6.519368e-06
  3.464952e-02    6.507176e-06
  3.494845e-02    6.520557e-06
  3.524738e-02    6.410375e-06
  3.554631e-02    6.296012e-06
  3.584524e-02    6.282352e-06
  3.614417e-02    6.168522e-06
  3.644310e-02    6.159258e-06
  3.674204e-02    6.179976e-06
  3.704097e-02    6.088960e-06
  3.733990e-02    6.045089e-06
  3.763883e-02    6.003917e-06
  3.793776e-02    5.951994e-06
  3.823669e-02    5.940625e-06
  3.853562e-02    5.884369e-06
  3.883455e-02    5.798644e-06
  3.913348e-02    5.774446e-06
  3.943241e-02    5.737820e-06
  3.973134e-02    5.704298e-06
  4.003027e-02    5.649546e-06
  4.032920e-02    5.573981e-06
  4.062813e-02    5.570453e-06
  4.092706e-02    5.565961e-06
  4.122599e-02    5.535826e-06
  4.152492e-02    5.486480e-06
  4.182385e-02    5.441646e-06
  4.212278e-02    5.428844e-06
  4.242171e-02    5.422185e-06
  4.272064e-02    5.417523e-06
  4.301957e-02    5.375026e-06
  4.331850e-02    5.368195e-06
  4.361743e-02    5.383936e-06
  4.391636e-02    5.347175e-06
  4.421529e-02    5.307361e-06
  4.451423e-02    5.323769e-06
  4.481316e-02    5.352264e-06
  4.511209e-02    5.314779e-06
  4.541102e-02    5.282548e-06
  4.570995e-02    5.301378e-06
  4.600888e-02    5.257391e-06
  4.630781e-02    5.210206e-06
  4.660674e-02    5.222298e-06
  4.690567e-02    5.241457e-06
  4.720460e-02    5.260481e-06
  4.750353e-02    5.241192e-06
  4.780246e-02    5.250666e-06
  4.810139e-02    5.220776e-06
  4.840032e-02    5.194978e-06
  4.869925e-02    5.166572e-06
  4.899818e-02    5.177020e-06
  4.929711e-02    5.164582e-06
  4.959604e-02    5.150236e-06
  4.989497e-02    5.167014e-06
  5.019390e-02    5.207391e-06
  5.049283e-02    5.212605e-06
  5.079176e-02    5.211928e-06
  5.109069e-02    5.244213e-06
  5.138962e-02    5.319995e-06
  5.168855e-02    5.372059e-06
  5.198748e-02    5.471695e-06
  5.228642e-02    5.461163e-06
  5.258535e-02    5.239028e-06
  5.288428e-02    5.174823e-06
  5.318321e-02    5.181129e-06
  5.348214e-02    5.160803e-06
  5.378107e-02    5.125214e-06
  5.408000e-02    5.141713e-06
  5.437893e-02    5.167360e-06
  5.467786e-02    5.124624e-06
  5.497679e-02    5.120995e-06
  5.527572e-02    5.164894e-06
  5.557465e-02    5.153909e-06
  5.587358e-02    5.090983e-06
  5.617251e-02    5.155903e-06
  5.647144e-02    5.211702e-06
  5.677037e-02    5.189981e-06
  5.706930e-02    5.195367e-06
  5.736823e-02    5.220461e-06
  5.766716e-02    5.174586e-06
  5.796609e-02    5.158275e-06
  5.826502e-02    5.180073e-06
  5.856395e-02    5.178974e-06
  5.886288e-02    5.175839e-06
  5.916181e-02    5.176084e-06
  5.946074e-02    5.187625e-06
  5.975967e-02    5.169194e-06
  6.005861e-02    5.161581e-06
  6.035754e-02    5.199924e-06
  6.065647e-02    5.267152e-06
  6.095540e-02    5.326587e-06
  6.125433e-02    5.374920e-06
  6.155326e-02    5.424711e-06
  6.185219e-02    5.371864e-06
  6.215112e-02    5.320337e-06
  6.245005e-02    5.309934e-06
  6.274898e-02    5.252667e-06
  6.304791e-02    5.243651e-06
  6.334684e-02    5.268128e-06
  6.364577e-02    5.258773e-06
  6.394470e-02    5.261018e-06
  6.424363e-02    5.280194e-06
  6.454256e-02    5.304723e-06
  6.484149e-02    5.291682e-06
  6.514042e-02    5.302849e-06
  6.543935e-02    5.332938e-06
  6.573828e-02    5.318512e-06
  6.603721e-02    5.307651e-06
  6.633614e-02    5.327057e-06
  6.663507e-02    5.383873e-06
  6.693400e-02    5.398948e-06
  6.723293e-02    5.398505e-06
  6.753186e-02    5.373960e-06
  6.783080e-02    5.361842e-06
  6.812973e-02    5.388735e-06
  6.842866e-02    5.403864e-06
  6.872759e-02    5.423862e-06
  6.902652e-02    5.395248e-06
  6.932545e-02    5.398212e-06
  6.962438e-02    5.420018e-06
  6.992331e-02    5.421793e-06
  7.022224e-02    5.461223e-06
  7.052117e-02    5.480550e-06
  7.082010e-02    5.434484e-06
  7.111903e-02    5.435455e-06
  7.141796e-02    5.437934e-06
  7.171689e-02    5.465470e-06
  7.201582e-02    5.493681e-06
  7.231475e-02    5.481779e-06
  7.261368e-02    5.472165e-06
  7.291261e-02    5.471861e-06
  7.321154e-02    5.484116e-06
  7.351047e-02    5.493010e-06
  7.380940e-02    5.506551e-06
  7.410833e-02    5.530136e-06
  7.440726e-02    5.463632e-06
  7.470619e-02    5.468718e-06
  7.500512e-02    5.479139e-06
  7.530405e-02    5.519554e-06
  7.560299e-02    5.533528e-06
  7.590192e-02    5.532013e-06
  7.620085e-02    5.516280e-06
  7.649978e-02    5.492091e-06
  7.679871e-02    5.497071e-06
  7.709764e-02    5.494805e-06
  7.739657e-02    5.513757e-06
  7.769550e-02    5.521248e-06
  7.799443e-02    5.479214e-06
  7.829336e-02    5.471690e-06
  7.859229e-02    5.534099e-06
  7.889122e-02    5.495934e-06
  7.919015e-02    5.519321e-06
  7.948908e-02    5.525943e-06
  7.978801e-02    5.476751e-06
  8.008694e-02    5.464704e-06
  8.038587e-02    5.473152e-06
  8.068480e-02    5.459344e-06
  8.098373e-02    5.449080e-06
  8.128266e-02    5.464829e-06
  8.158159e-02    5.471698e-06
  8.188052e-02    5.436692e-06
  8.217945e-02    5.434618e-06
  8.247838e-02    5.458210e-06
  8.277731e-02    5.415793e-06
  8.307624e-02    5.378102e-06
  8.337518e-02    5.363879e-06
  8.367411e-02    5.370384e-06
  8.397304e-02    5.367495e-06
  8.427197e-02    5.357260e-06
  8.457090e-02    5.337063e-06
  8.486983e-02    5.333111e-06
  8.516876e-02    5.359958e-06
  8.546769e-02    5.372358e-06
  8.576662e-02    5.344716e-06
  8.606555e-02    5.330332e-06
  8.636448e-02    5.341044e-06
  8.666341e-02    5.331240e-06
  8.696234e-02    5.314947e-06
  8.726127e-02    5.296011e-06
  8.756020e-02    5.338512e-06
  8.785913e-02    5.305843e-06
  8.815806e-02    5.276797e-06
  8.845699e-02    5.281671e-06
  8.875592e-02    5.271266e-06
  8.905485e-02    5.252932e-06
  8.935378e-02    5.229134e-06
  8.965271e-02    5.207934e-06
  8.995164e-02    5.191289e-06
  9.025057e-02    5.200930e-06
  9.054950e-02    5.167409e-06
  9.084843e-02    5.165071e-06
  9.114737e-02    5.166849e-06
  9.144630e-02    5.165525e-06
  9.174523e-02    5.135429e-06
  9.204416e-02    5.128104e-06
  9.234309e-02    5.137466e-06
  9.264202e-02    5.102341e-06
  9.294095e-02    5.094596e-06
  9.323988e-02    5.117589e-06
  9.353881e-02    5.111113e-06
  9.383774e-02    5.055844e-06
  9.413667e-02    5.043821e-06
  9.443560e-02    5.053311e-06
  9.473453e-02    5.038286e-06
  9.503346e-02    5.032517e-06
  9.533239e-02    5.060111e-06
  9.563132e-02    5.086770e-06
  9.593025e-02    5.067811e-06
  9.622918e-02    5.089300e-06
  9.652811e-02    5.112494e-06
  9.682704e-02    5.090963e-06
  9.712597e-02    5.043708e-06
  9.742490e-02    5.043544e-06
  9.772383e-02    5.025543e-06
  9.802276e-02    4.951882e-06
  9.832169e-02    4.923395e-06
  9.862062e-02    4.926032e-06
  9.891956e-02    4.884311e-06
  9.921849e-02    4.890562e-06
  9.951742e-02    4.865055e-06
  9.981635e-02    4.849885e-06
  1.001153e-01    4.845817e-06
  1.004142e-01    4.860942e-06
  1.007131e-01    4.847176e-06
  1.010121e-01    4.856658e-06
  1.013110e-01    4.841967e-06
  1.016099e-01    4.826108e-06
  1.019089e-01    4.813613e-06
  1.022078e-01    4.799208e-06
  1.025067e-01    4.814554e-06
  1.028057e-01    4.769750e-06
  1.031046e-01    4.734625e-06
  1.034035e-01    4.755140e-06
  1.037024e-01    4.757483e-06
  1.040014e-01    4.750639e-06
  1.043003e-01    4.797198e-06
  1.045992e-01    4.761474e-06
  1.048982e-01    4.703496e-06
  1.051971e-01    4.716671e-06
  1.054960e-01    4.706418e-06
  1.057950e-01    4.718824e-06
  1.060939e-01    4.707706e-06
  1.063928e-01    4.684106e-06
  1.066917e-01    4.673985e-06
  1.069907e-01    4.665776e-06
  1.072896e-01    4.677775e-06
  1.075885e-01    4.649746e-06
  1.078875e-01    4.638154e-06
  1.081864e-01    4.591536e-06
  1.084853e-01    4.600923e-06
  1.087843e-01    4.604409e-06
  1.090832e-01    4.608935e-06
  1.093821e-01    4.560477e-06
  1.096810e-01    4.577787e-06
  1.099800e-01    4.581216e-06
  1.102789e-01    4.529742e-06
  1.105778e-01    4.534665e-06
  1.108768e-01    4.515156e-06
  1.111757e-01    4.519414e-06
  1.114746e-01    4.524476e-06
  1.117736e-01    4.542342e-06
  1.120725e-01    4.555565e-06
  1.123714e-01    4.526463e-06
  1.126704e-01    4.448674e-06
  1.129693e-01    4.419445e-06
  1.132682e-01    4.360180e-06
  1.135671e-01    4.367567e-06
  1.138661e-01    4.429961e-06
  1.141650e-01    4.426202e-06
  1.144639e-01    4.369569e-06
  1.147629e-01    4.385840e-06
  1.150618e-01    4.406807e-06
  1.153607e-01    4.366917e-06
  1.156597e-01    4.368479e-06
  1.159586e-01    4.351114e-06
  1.162575e-01    4.325459e-06
  1.165564e-01    4.306715e-06
  1.168554e-01    4.431844e-06
  1.171543e-01    4.460922e-06
  1.174532e-01    4.366036e-06
  1.177522e-01    4.322508e-06
  1.180511e-01    4.306739e-06
  1.183500e-01    4.352014e-06
  1.186490e-01    4.343278e-06
  1.189479e-01    4.383396e-06
  1.192468e-01    4.293116e-06
  1.195458e-01    4.206601e-06
  1.198447e-01    4.224252e-06
  1.201436e-01    4.142885e-06
  1.204425e-01    4.084966e-06
  1.207415e-01    4.052290e-06
  1.210404e-01    3.807331e-06
  1.213393e-01    0.000000e+00
  1.216383e-01    0.000000e+00
  1.219372e-01    0.000000e+00
  1.222361e-01    0.000000e+00
  1.225351e-01    0.000000e+00
  1.228340e-01    0.000000e+00
  1.231329e-01    0.000000e+00
  1.234318e-01    0.000000e+00
  1.237308e-01    0.000000e+00
  1.240297e-01    0.000000e+00
  1.243286e-01    0.000000e+00
  1.246276e-01    0.000000e+00
  1.249265e-01    0.000000e+00
  1.252254e-01    0.000000e+00
  1.255244e-01    0.000000e+00
  1.258233e-01    0.000000e+00
  1.261222e-01    0.000000e+00
  1.264212e-01    0.000000e+00
  1.267201e-01    0.000000e+00
  1.270190e-01    0.000000e+00
  1.273179e-01    0.000000e+00
  1.276169e-01    0.000000e+00
  1.279158e-01    0.000000e+00
  1.282147e-01    0.000000e+00
  1.285137e-01    0.000000e+00
  1.288126e-01    0.000000e+00
  1.291115e-01    0.000000e+00
  1.294105e-01    0.000000e+00
  1.297094e-01    0.000000e+00
  1.300083e-01    0.000000e+00
  1.303072e-01    0.000000e+00
  1.306062e-01    0.000000e+00
  1.309051e-01    0.000000e+00
  1.312040e-01    0.000000e+00
  1.315030e-01    0.000000e+00
  1.318019e-01    0.000000e+00
  1.321008e-01    0.000000e+00
  1.323998e-01    0.000000e+00
  1.326987e-01    0.000000e+00
  1.329976e-01    0.000000e+00
  1.332965e-01    0.000000e+00
  1.335955e-01    0.000000e+00
  1.338944e-01    0.000000e+00
  1.341933e-01    0.000000e+00
  1.344923e-01    0.000000e+00
  1.347912e-01    0.000000e+00
  1.350901e-01    0.000000e+00
  1.353891e-01    0.000000e+00
  1.356880e-01    0.000000e+00
  1.359869e-01    0.000000e+00
  1.362859e-01    0.000000e+00
  1.365848e-01    0.000000e+00
  1.368837e-01    0.000000e+00
  1.371826e-01    0.000000e+00
  1.374816e-01    0.000000e+00
  1.377805e-01    0.000000e+00
  1.380794e-01    0.000000e+00
  1.383784e-01    0.000000e+00
  1.386773e-01    0.000000e+00
  1.389762e-01    0.000000e+00
  1.392752e-01    0.000000e+00
  1.395741e-01    0.000000e+00
  1.398730e-01    0.000000e+00
  1.401719e-01    0.000000e+00
  1.404709e-01    0.000000e+00
  1.407698e-01    0.000000e+00
  1.410687e-01    0.000000e+00
  1.413677e-01    0.000000e+00
  1.416666e-01    0.000000e+00
  1.419655e-01    0.000000e+00
  1.422645e-01    0.000000e+00
  1.425634e-01    0.000000e+00
  1.428623e-01    0.000000e+00
  1.431613e-01    0.000000e+00
  1.434602e-01    0.000000e+00
  1.437591e-01    0.000000e+00
  1.440580e-01    0.000000e+00
  1.443570e-01    0.000000e+00
  1.446559e-01    0.000000e+00
  1.449548e-01    0.000000e+00
  1.452538e-01    0.000000e+00
  1.455527e-01    0.000000e+00
  1.458516e-01    0.000000e+00
  1.461506e-01    0.000000e+00
  1.464495e-01    0.000000e+00
  1.467484e-01    0.000000e+00
  1.470473e-01    0.000000e+00
  1.473463e-01    0.000000e+00
  1.476452e-01    0.000000e+00
  1.479441e-01    0.000000e+00
  1.482431e-01    0.000000e+00
  1.485420e-01    0.000000e+00
  1.488409e-01    0.000000e+00
  1.491399e-01    0.000000e+00
  1.494388e-01    0.000000e+00
  1.497377e-01    0.000000e+00
  1.500367e-01    0.000000e+00
  1.503356e-01    0.000000e+00
  1.506345e-01    0.000000e+00
  1.509334e-01    0.000000e+00
  1.512324e-01    0.000000e+00
  1.515313e-01    0.000000e+00
  1.518302e-01    0.000000e+00
  1.521292e-01    0.000000e+00
  1.524281e-01    0.000000e+00
  1.527270e-01    0.000000e+00
  1.530260e-01    0.000000e+00
  1.533249e-01    0.000000e+00
  1.536238e-01    0.000000e+00
