# == pyFAI calibration ==
# Distance Sample to Detector: 2.266 m
# PONI: 5.659e-02, 4.293e-02 m
# Rotations: 0.000000 0.000000 0.000000 rad
# 
# == Fit2d calibration ==
# Distance Sample-beamCenter: 2266.000 mm
# Center: x=249.594, y=329.012 pix
# Tilt: 0.000 deg  TiltPlanRot: 0.000 deg
# 
# Detector Pilatus 300k	 PixelSize= 1.720e-04, 1.720e-04 m
#    Detector has a mask: True 
#    Detector has a dark current: False 
#    detector has a flat field: False 
# 
# Wavelength: 1.27818e-10 m
# Mask applied: user provided
# Dark current applied: False
# Flat field applied: False
# Polarization factor: None
# Normalization factor: 3197556.6
# --> MT-AL_F127_220226_5633c8c6-a2ca-4a33-9d3f-2040314a8135_2_r1d.csv
#        q_A^-1             I 
  4.457554e-03    2.196664e-03
  4.756484e-03    1.715030e-03
  5.055415e-03    1.209505e-03
  5.354345e-03    8.395890e-04
  5.653276e-03    6.452982e-04
  5.952206e-03    1.022616e-03
  6.251136e-03    9.296598e-04
  6.550067e-03    8.080976e-04
  6.848997e-03    6.895367e-04
  7.147927e-03    5.823243e-04
  7.446858e-03    5.004578e-04
  7.745788e-03    4.301916e-04
  8.044719e-03    3.693700e-04
  8.343649e-03    3.231625e-04
  8.642579e-03    2.825171e-04
  8.941510e-03    2.479824e-04
  9.240440e-03    2.198695e-04
  9.539371e-03    1.954535e-04
  9.838301e-03    1.742492e-04
  1.013723e-02    1.557672e-04
  1.043616e-02    1.397010e-04
  1.073509e-02    1.259698e-04
  1.103402e-02    1.141360e-04
  1.133295e-02    1.030535e-04
  1.163188e-02    9.340389e-05
  1.193081e-02    8.585306e-05
  1.222974e-02    7.894344e-05
  1.252867e-02    7.222590e-05
  1.282760e-02    6.623961e-05
  1.312654e-02    6.093925e-05
  1.342547e-02    5.622223e-05
  1.372440e-02    5.233109e-05
  1.402333e-02    4.871712e-05
  1.432226e-02    4.533143e-05
  1.462119e-02    4.181880e-05
  1.492012e-02    3.899856e-05
  1.521905e-02    3.648307e-05
  1.551798e-02    3.429088e-05
  1.581691e-02    3.222350e-05
  1.611584e-02    3.032463e-05
  1.641477e-02    2.856139e-05
  1.671370e-02    2.703369e-05
  1.701263e-02    2.569463e-05
  1.731156e-02    2.419415e-05
  1.761049e-02    2.293630e-05
  1.790942e-02    2.173683e-05
  1.820835e-02    2.078596e-05
  1.850728e-02    1.982445e-05
  1.880621e-02    1.897815e-05
  1.910514e-02    1.817721e-05
  1.940407e-02    1.732132e-05
  1.970300e-02    1.674829e-05
  2.000193e-02    1.616981e-05
  2.030086e-02    1.547318e-05
  2.059979e-02    1.488539e-05
  2.089873e-02    1.442019e-05
  2.119766e-02    1.397129e-05
  2.149659e-02    1.347463e-05
  2.179552e-02    1.300466e-05
  2.209445e-02    1.270071e-05
  2.239338e-02    1.239286e-05
  2.269231e-02    1.189806e-05
  2.299124e-02    1.155926e-05
  2.329017e-02    1.115886e-05
  2.358910e-02    1.094988e-05
  2.388803e-02    1.072764e-05
  2.418696e-02    1.038595e-05
  2.448589e-02    1.021321e-05
  2.478482e-02    9.950282e-06
  2.508375e-02    9.744855e-06
  2.538268e-02    9.645668e-06
  2.568161e-02    9.515690e-06
  2.598054e-02    9.264766e-06
  2.627947e-02    9.134288e-06
  2.657840e-02    8.999464e-06
  2.687733e-02    8.748779e-06
  2.717626e-02    8.589449e-06
  2.747519e-02    8.597060e-06
  2.777412e-02    8.445253e-06
  2.807305e-02    8.254602e-06
  2.837198e-02    8.195809e-06
  2.867092e-02    8.194217e-06
  2.896985e-02    8.079680e-06
  2.926878e-02    8.002594e-06
  2.956771e-02    7.850660e-06
  2.986664e-02    7.778721e-06
  3.016557e-02    7.625133e-06
  3.046450e-02    7.533607e-06
  3.076343e-02    7.532215e-06
  3.106236e-02    7.465558e-06
  3.136129e-02    7.354863e-06
  3.166022e-02    7.234735e-06
  3.195915e-02    7.132649e-06
  3.225808e-02    7.196099e-06
  3.255701e-02    7.103036e-06
  3.285594e-02    6.993943e-06
  3.315487e-02    6.906270e-06
  3.345380e-02    6.775054e-06
  3.375273e-02    6.706272e-06
  3.405166e-02    6.686098e-06
  3.435059e-02    6.672949e-06
  3.464952e-02    6.621864e-06
  3.494845e-02    6.553183e-06
  3.524738e-02    6.413394e-06
  3.554631e-02    6.393069e-06
  3.584524e-02    6.289117e-06
  3.614417e-02    6.225184e-06
  3.644310e-02    6.124155e-06
  3.674204e-02    6.014488e-06
  3.704097e-02    6.065732e-06
  3.733990e-02    6.088133e-06
  3.763883e-02    5.974061e-06
  3.793776e-02    5.910205e-06
  3.823669e-02    5.876264e-06
  3.853562e-02    5.853542e-06
  3.883455e-02    5.853694e-06
  3.913348e-02    5.773397e-06
  3.943241e-02    5.684163e-06
  3.973134e-02    5.645983e-06
  4.003027e-02    5.600419e-06
  4.032920e-02    5.593618e-06
  4.062813e-02    5.592494e-06
  4.092706e-02    5.513855e-06
  4.122599e-02    5.530009e-06
  4.152492e-02    5.494486e-06
  4.182385e-02    5.436569e-06
  4.212278e-02    5.476290e-06
  4.242171e-02    5.387839e-06
  4.272064e-02    5.358311e-06
  4.301957e-02    5.359638e-06
  4.331850e-02    5.359270e-06
  4.361743e-02    5.323067e-06
  4.391636e-02    5.228399e-06
  4.421529e-02    5.258470e-06
  4.451423e-02    5.274191e-06
  4.481316e-02    5.291237e-06
  4.511209e-02    5.278391e-06
  4.541102e-02    5.209438e-06
  4.570995e-02    5.168962e-06
  4.600888e-02    5.199190e-06
  4.630781e-02    5.270150e-06
  4.660674e-02    5.213084e-06
  4.690567e-02    5.222931e-06
  4.720460e-02    5.282560e-06
  4.750353e-02    5.291277e-06
  4.780246e-02    5.250836e-06
  4.810139e-02    5.211073e-06
  4.840032e-02    5.154588e-06
  4.869925e-02    5.185521e-06
  4.899818e-02    5.194690e-06
  4.929711e-02    5.106070e-06
  4.959604e-02    5.136581e-06
  4.989497e-02    5.151579e-06
  5.019390e-02    5.166755e-06
  5.049283e-02    5.139895e-06
  5.079176e-02    5.164539e-06
  5.109069e-02    5.156826e-06
  5.138962e-02    5.193182e-06
  5.168855e-02    5.330814e-06
  5.198748e-02    5.465361e-06
  5.228642e-02    5.413486e-06
  5.258535e-02    5.240951e-06
  5.288428e-02    5.105642e-06
  5.318321e-02    5.043193e-06
  5.348214e-02    5.049757e-06
  5.378107e-02    5.098103e-06
  5.408000e-02    5.149483e-06
  5.437893e-02    5.084934e-06
  5.467786e-02    5.066928e-06
  5.497679e-02    5.034539e-06
  5.527572e-02    5.019986e-06
  5.557465e-02    5.062984e-06
  5.587358e-02    5.041401e-06
  5.617251e-02    5.059630e-06
  5.647144e-02    5.047589e-06
  5.677037e-02    5.043139e-06
  5.706930e-02    5.043734e-06
  5.736823e-02    5.019957e-06
  5.766716e-02    5.121276e-06
  5.796609e-02    5.157699e-06
  5.826502e-02    5.014537e-06
  5.856395e-02    5.043867e-06
  5.886288e-02    5.083253e-06
  5.916181e-02    5.069307e-06
  5.946074e-02    5.113172e-06
  5.975967e-02    5.136329e-06
  6.005861e-02    5.198378e-06
  6.035754e-02    5.200316e-06
  6.065647e-02    5.178540e-06
  6.095540e-02    5.299503e-06
  6.125433e-02    5.432353e-06
  6.155326e-02    5.404459e-06
  6.185219e-02    5.284906e-06
  6.215112e-02    5.198319e-06
  6.245005e-02    5.189822e-06
  6.274898e-02    5.203065e-06
  6.304791e-02    5.211242e-06
  6.334684e-02    5.229130e-06
  6.364577e-02    5.219267e-06
  6.394470e-02    5.216164e-06
  6.424363e-02    5.259675e-06
  6.454256e-02    5.229916e-06
  6.484149e-02    5.223829e-06
  6.514042e-02    5.281007e-06
  6.543935e-02    5.281132e-06
  6.573828e-02    5.253877e-06
  6.603721e-02    5.281508e-06
  6.633614e-02    5.290555e-06
  6.663507e-02    5.265771e-06
  6.693400e-02    5.237230e-06
  6.723293e-02    5.279228e-06
  6.753186e-02    5.307640e-06
  6.783080e-02    5.376613e-06
  6.812973e-02    5.329144e-06
  6.842866e-02    5.327167e-06
  6.872759e-02    5.334447e-06
  6.902652e-02    5.317776e-06
  6.932545e-02    5.351025e-06
  6.962438e-02    5.390028e-06
  6.992331e-02    5.377229e-06
  7.022224e-02    5.364584e-06
  7.052117e-02    5.417090e-06
  7.082010e-02    5.420289e-06
  7.111903e-02    5.408012e-06
  7.141796e-02    5.426371e-06
  7.171689e-02    5.435671e-06
  7.201582e-02    5.426899e-06
  7.231475e-02    5.404041e-06
  7.261368e-02    5.432993e-06
  7.291261e-02    5.429757e-06
  7.321154e-02    5.419118e-06
  7.351047e-02    5.457379e-06
  7.380940e-02    5.496490e-06
  7.410833e-02    5.514363e-06
  7.440726e-02    5.527903e-06
  7.470619e-02    5.529275e-06
  7.500512e-02    5.539465e-06
  7.530405e-02    5.483579e-06
  7.560299e-02    5.428294e-06
  7.590192e-02    5.474871e-06
  7.620085e-02    5.474515e-06
  7.649978e-02    5.415577e-06
  7.679871e-02    5.430680e-06
  7.709764e-02    5.448852e-06
  7.739657e-02    5.461739e-06
  7.769550e-02    5.482199e-06
  7.799443e-02    5.456435e-06
  7.829336e-02    5.440009e-06
  7.859229e-02    5.437604e-06
  7.889122e-02    5.463463e-06
  7.919015e-02    5.456672e-06
  7.948908e-02    5.446811e-06
  7.978801e-02    5.401845e-06
  8.008694e-02    5.424046e-06
  8.038587e-02    5.437361e-06
  8.068480e-02    5.414212e-06
  8.098373e-02    5.460157e-06
  8.128266e-02    5.458281e-06
  8.158159e-02    5.412853e-06
  8.188052e-02    5.390688e-06
  8.217945e-02    5.358869e-06
  8.247838e-02    5.369737e-06
  8.277731e-02    5.391147e-06
  8.307624e-02    5.386837e-06
  8.337518e-02    5.364353e-06
  8.367411e-02    5.337864e-06
  8.397304e-02    5.293112e-06
  8.427197e-02    5.290541e-06
  8.457090e-02    5.359897e-06
  8.486983e-02    5.402073e-06
  8.516876e-02    5.405690e-06
  8.546769e-02    5.348996e-06
  8.576662e-02    5.331258e-06
  8.606555e-02    5.351882e-06
  8.636448e-02    5.300865e-06
  8.666341e-02    5.271268e-06
  8.696234e-02    5.317982e-06
  8.726127e-02    5.263583e-06
  8.756020e-02    5.178572e-06
  8.785913e-02    5.155969e-06
  8.815806e-02    5.200796e-06
  8.845699e-02    5.231655e-06
  8.875592e-02    5.206779e-06
  8.905485e-02    5.177722e-06
  8.935378e-02    5.136482e-06
  8.965271e-02    5.145395e-06
  8.995164e-02    5.146149e-06
  9.025057e-02    5.122173e-06
  9.054950e-02    5.115970e-06
  9.084843e-02    5.127103e-06
  9.114737e-02    5.107859e-06
  9.144630e-02    5.065838e-06
  9.174523e-02    5.066656e-06
  9.204416e-02    5.054095e-06
  9.234309e-02    4.997573e-06
  9.264202e-02    5.004481e-06
  9.294095e-02    5.057763e-06
  9.323988e-02    5.016783e-06
  9.353881e-02    5.019864e-06
  9.383774e-02    5.041614e-06
  9.413667e-02    4.982833e-06
  9.443560e-02    5.010477e-06
  9.473453e-02    5.032880e-06
  9.503346e-02    5.016874e-06
  9.533239e-02    5.031768e-06
  9.563132e-02    5.037676e-06
  9.593025e-02    5.025168e-06
  9.622918e-02    5.026884e-06
  9.652811e-02    5.020743e-06
  9.682704e-02    5.016137e-06
  9.712597e-02    5.019394e-06
  9.742490e-02    5.059533e-06
  9.772383e-02    4.974016e-06
  9.802276e-02    4.902863e-06
  9.832169e-02    4.884158e-06
  9.862062e-02    4.858229e-06
  9.891956e-02    4.832355e-06
  9.921849e-02    4.859878e-06
  9.951742e-02    4.892338e-06
  9.981635e-02    4.867322e-06
  1.001153e-01    4.890873e-06
  1.004142e-01    4.846421e-06
  1.007131e-01    4.812232e-06
  1.010121e-01    4.787501e-06
  1.013110e-01    4.797817e-06
  1.016099e-01    4.794812e-06
  1.019089e-01    4.773693e-06
  1.022078e-01    4.743059e-06
  1.025067e-01    4.745889e-06
  1.028057e-01    4.717765e-06
  1.031046e-01    4.740979e-06
  1.034035e-01    4.747644e-06
  1.037024e-01    4.690569e-06
  1.040014e-01    4.665083e-06
  1.043003e-01    4.690361e-06
  1.045992e-01    4.665239e-06
  1.048982e-01    4.645067e-06
  1.051971e-01    4.650635e-06
  1.054960e-01    4.627933e-06
  1.057950e-01    4.603002e-06
  1.060939e-01    4.628093e-06
  1.063928e-01    4.689864e-06
  1.066917e-01    4.641457e-06
  1.069907e-01    4.618424e-06
  1.072896e-01    4.588955e-06
  1.075885e-01    4.599547e-06
  1.078875e-01    4.629084e-06
  1.081864e-01    4.597389e-06
  1.084853e-01    4.582489e-06
  1.087843e-01    4.615746e-06
  1.090832e-01    4.605993e-06
  1.093821e-01    4.582364e-06
  1.096810e-01    4.587585e-06
  1.099800e-01    4.588302e-06
  1.102789e-01    4.517190e-06
  1.105778e-01    4.487119e-06
  1.108768e-01    4.520250e-06
  1.111757e-01    4.455633e-06
  1.114746e-01    4.399015e-06
  1.117736e-01    4.440614e-06
  1.120725e-01    4.478394e-06
  1.123714e-01    4.481606e-06
  1.126704e-01    4.431707e-06
  1.129693e-01    4.452293e-06
  1.132682e-01    4.416542e-06
  1.135671e-01    4.377760e-06
  1.138661e-01    4.376984e-06
  1.141650e-01    4.431678e-06
  1.144639e-01    4.373773e-06
  1.147629e-01    4.252613e-06
  1.150618e-01    4.265529e-06
  1.153607e-01    4.305947e-06
  1.156597e-01    4.312918e-06
  1.159586e-01    4.260562e-06
  1.162575e-01    4.204169e-06
  1.165564e-01    4.289102e-06
  1.168554e-01    4.295272e-06
  1.171543e-01    4.278630e-06
  1.174532e-01    4.320447e-06
  1.177522e-01    4.287525e-06
  1.180511e-01    4.232341e-06
  1.183500e-01    4.262164e-06
  1.186490e-01    4.301641e-06
  1.189479e-01    4.298623e-06
  1.192468e-01    4.241126e-06
  1.195458e-01    4.281274e-06
  1.198447e-01    4.313546e-06
  1.201436e-01    4.238603e-06
  1.204425e-01    3.902827e-06
  1.207415e-01    3.828789e-06
  1.210404e-01    3.130221e-06
  1.213393e-01    0.000000e+00
  1.216383e-01    0.000000e+00
  1.219372e-01    0.000000e+00
  1.222361e-01    0.000000e+00
  1.225351e-01    0.000000e+00
  1.228340e-01    0.000000e+00
  1.231329e-01    0.000000e+00
  1.234318e-01    0.000000e+00
  1.237308e-01    0.000000e+00
  1.240297e-01    0.000000e+00
  1.243286e-01    0.000000e+00
  1.246276e-01    0.000000e+00
  1.249265e-01    0.000000e+00
  1.252254e-01    0.000000e+00
  1.255244e-01    0.000000e+00
  1.258233e-01    0.000000e+00
  1.261222e-01    0.000000e+00
  1.264212e-01    0.000000e+00
  1.267201e-01    0.000000e+00
  1.270190e-01    0.000000e+00
  1.273179e-01    0.000000e+00
  1.276169e-01    0.000000e+00
  1.279158e-01    0.000000e+00
  1.282147e-01    0.000000e+00
  1.285137e-01    0.000000e+00
  1.288126e-01    0.000000e+00
  1.291115e-01    0.000000e+00
  1.294105e-01    0.000000e+00
  1.297094e-01    0.000000e+00
  1.300083e-01    0.000000e+00
  1.303072e-01    0.000000e+00
  1.306062e-01    0.000000e+00
  1.309051e-01    0.000000e+00
  1.312040e-01    0.000000e+00
  1.315030e-01    0.000000e+00
  1.318019e-01    0.000000e+00
  1.321008e-01    0.000000e+00
  1.323998e-01    0.000000e+00
  1.326987e-01    0.000000e+00
  1.329976e-01    0.000000e+00
  1.332965e-01    0.000000e+00
  1.335955e-01    0.000000e+00
  1.338944e-01    0.000000e+00
  1.341933e-01    0.000000e+00
  1.344923e-01    0.000000e+00
  1.347912e-01    0.000000e+00
  1.350901e-01    0.000000e+00
  1.353891e-01    0.000000e+00
  1.356880e-01    0.000000e+00
  1.359869e-01    0.000000e+00
  1.362859e-01    0.000000e+00
  1.365848e-01    0.000000e+00
  1.368837e-01    0.000000e+00
  1.371826e-01    0.000000e+00
  1.374816e-01    0.000000e+00
  1.377805e-01    0.000000e+00
  1.380794e-01    0.000000e+00
  1.383784e-01    0.000000e+00
  1.386773e-01    0.000000e+00
  1.389762e-01    0.000000e+00
  1.392752e-01    0.000000e+00
  1.395741e-01    0.000000e+00
  1.398730e-01    0.000000e+00
  1.401719e-01    0.000000e+00
  1.404709e-01    0.000000e+00
  1.407698e-01    0.000000e+00
  1.410687e-01    0.000000e+00
  1.413677e-01    0.000000e+00
  1.416666e-01    0.000000e+00
  1.419655e-01    0.000000e+00
  1.422645e-01    0.000000e+00
  1.425634e-01    0.000000e+00
  1.428623e-01    0.000000e+00
  1.431613e-01    0.000000e+00
  1.434602e-01    0.000000e+00
  1.437591e-01    0.000000e+00
  1.440580e-01    0.000000e+00
  1.443570e-01    0.000000e+00
  1.446559e-01    0.000000e+00
  1.449548e-01    0.000000e+00
  1.452538e-01    0.000000e+00
  1.455527e-01    0.000000e+00
  1.458516e-01    0.000000e+00
  1.461506e-01    0.000000e+00
  1.464495e-01    0.000000e+00
  1.467484e-01    0.000000e+00
  1.470473e-01    0.000000e+00
  1.473463e-01    0.000000e+00
  1.476452e-01    0.000000e+00
  1.479441e-01    0.000000e+00
  1.482431e-01    0.000000e+00
  1.485420e-01    0.000000e+00
  1.488409e-01    0.000000e+00
  1.491399e-01    0.000000e+00
  1.494388e-01    0.000000e+00
  1.497377e-01    0.000000e+00
  1.500367e-01    0.000000e+00
  1.503356e-01    0.000000e+00
  1.506345e-01    0.000000e+00
  1.509334e-01    0.000000e+00
  1.512324e-01    0.000000e+00
  1.515313e-01    0.000000e+00
  1.518302e-01    0.000000e+00
  1.521292e-01    0.000000e+00
  1.524281e-01    0.000000e+00
  1.527270e-01    0.000000e+00
  1.530260e-01    0.000000e+00
  1.533249e-01    0.000000e+00
  1.536238e-01    0.000000e+00
