# == pyFAI calibration ==
# Distance Sample to Detector: 2.266 m
# PONI: 5.659e-02, 4.293e-02 m
# Rotations: 0.000000 0.000000 0.000000 rad
# 
# == Fit2d calibration ==
# Distance Sample-beamCenter: 2266.000 mm
# Center: x=249.594, y=329.012 pix
# Tilt: 0.000 deg  TiltPlanRot: 0.000 deg
# 
# Detector Pilatus 300k	 PixelSize= 1.720e-04, 1.720e-04 m
#    Detector has a mask: True 
#    Detector has a dark current: False 
#    detector has a flat field: False 
# 
# Wavelength: 1.27818e-10 m
# Mask applied: user provided
# Dark current applied: False
# Flat field applied: False
# Polarization factor: None
# Normalization factor: 21896287.800000004
# --> MT-AL_F127_220228_389c7d5d-ee7b-437a-a95a-09af3fe05338_1_r1d.csv
#        q_A^-1             I 
  4.457554e-03    1.727532e-03
  4.756484e-03    1.364384e-03
  5.055415e-03    9.851763e-04
  5.354345e-03    6.986114e-04
  5.653276e-03    5.434091e-04
  5.952206e-03    8.885830e-04
  6.251136e-03    8.084583e-04
  6.550067e-03    6.973789e-04
  6.848997e-03    5.899824e-04
  7.147927e-03    4.981186e-04
  7.446858e-03    4.251795e-04
  7.745788e-03    3.644312e-04
  8.044719e-03    3.143147e-04
  8.343649e-03    2.743380e-04
  8.642579e-03    2.398124e-04
  8.941510e-03    2.110222e-04
  9.240440e-03    1.871117e-04
  9.539371e-03    1.660011e-04
  9.838301e-03    1.478760e-04
  1.013723e-02    1.329328e-04
  1.043616e-02    1.196405e-04
  1.073509e-02    1.074603e-04
  1.103402e-02    9.735056e-05
  1.133295e-02    8.848061e-05
  1.163188e-02    8.071691e-05
  1.193081e-02    7.376751e-05
  1.222974e-02    6.758269e-05
  1.252867e-02    6.222659e-05
  1.282760e-02    5.725116e-05
  1.312654e-02    5.285645e-05
  1.342547e-02    4.898109e-05
  1.372440e-02    4.551887e-05
  1.402333e-02    4.240123e-05
  1.432226e-02    3.930827e-05
  1.462119e-02    3.662696e-05
  1.492012e-02    3.427975e-05
  1.521905e-02    3.213350e-05
  1.551798e-02    3.031480e-05
  1.581691e-02    2.840778e-05
  1.611584e-02    2.675616e-05
  1.641477e-02    2.529976e-05
  1.671370e-02    2.392463e-05
  1.701263e-02    2.268612e-05
  1.731156e-02    2.159756e-05
  1.761049e-02    2.045612e-05
  1.790942e-02    1.941833e-05
  1.820835e-02    1.855099e-05
  1.850728e-02    1.767290e-05
  1.880621e-02    1.687006e-05
  1.910514e-02    1.609936e-05
  1.940407e-02    1.541321e-05
  1.970300e-02    1.485962e-05
  2.000193e-02    1.430710e-05
  2.030086e-02    1.382551e-05
  2.059979e-02    1.337061e-05
  2.089873e-02    1.291457e-05
  2.119766e-02    1.248976e-05
  2.149659e-02    1.209734e-05
  2.179552e-02    1.170770e-05
  2.209445e-02    1.136359e-05
  2.239338e-02    1.102450e-05
  2.269231e-02    1.070858e-05
  2.299124e-02    1.041823e-05
  2.329017e-02    1.013610e-05
  2.358910e-02    9.849677e-06
  2.388803e-02    9.642024e-06
  2.418696e-02    9.393975e-06
  2.448589e-02    9.232675e-06
  2.478482e-02    9.025710e-06
  2.508375e-02    8.815091e-06
  2.538268e-02    8.684503e-06
  2.568161e-02    8.489440e-06
  2.598054e-02    8.305326e-06
  2.627947e-02    8.180938e-06
  2.657840e-02    8.045020e-06
  2.687733e-02    7.932898e-06
  2.717626e-02    7.799816e-06
  2.747519e-02    7.714881e-06
  2.777412e-02    7.555504e-06
  2.807305e-02    7.434891e-06
  2.837198e-02    7.386939e-06
  2.867092e-02    7.331368e-06
  2.896985e-02    7.210551e-06
  2.926878e-02    7.094620e-06
  2.956771e-02    6.992935e-06
  2.986664e-02    6.892692e-06
  3.016557e-02    6.844058e-06
  3.046450e-02    6.782274e-06
  3.076343e-02    6.701236e-06
  3.106236e-02    6.621766e-06
  3.136129e-02    6.554444e-06
  3.166022e-02    6.503672e-06
  3.195915e-02    6.435711e-06
  3.225808e-02    6.384910e-06
  3.255701e-02    6.344724e-06
  3.285594e-02    6.288328e-06
  3.315487e-02    6.231816e-06
  3.345380e-02    6.175523e-06
  3.375273e-02    6.093444e-06
  3.405166e-02    6.030703e-06
  3.435059e-02    5.994720e-06
  3.464952e-02    5.904238e-06
  3.494845e-02    5.886810e-06
  3.524738e-02    5.863681e-06
  3.554631e-02    5.790717e-06
  3.584524e-02    5.746433e-06
  3.614417e-02    5.688471e-06
  3.644310e-02    5.664519e-06
  3.674204e-02    5.609766e-06
  3.704097e-02    5.575999e-06
  3.733990e-02    5.544236e-06
  3.763883e-02    5.534492e-06
  3.793776e-02    5.475332e-06
  3.823669e-02    5.417654e-06
  3.853562e-02    5.401203e-06
  3.883455e-02    5.372658e-06
  3.913348e-02    5.341080e-06
  3.943241e-02    5.318452e-06
  3.973134e-02    5.281793e-06
  4.003027e-02    5.264503e-06
  4.032920e-02    5.252557e-06
  4.062813e-02    5.217731e-06
  4.092706e-02    5.178235e-06
  4.122599e-02    5.159162e-06
  4.152492e-02    5.145040e-06
  4.182385e-02    5.127872e-06
  4.212278e-02    5.122831e-06
  4.242171e-02    5.093732e-06
  4.272064e-02    5.088492e-06
  4.301957e-02    5.062785e-06
  4.331850e-02    5.057143e-06
  4.361743e-02    5.043322e-06
  4.391636e-02    5.029227e-06
  4.421529e-02    5.041710e-06
  4.451423e-02    5.012789e-06
  4.481316e-02    4.995344e-06
  4.511209e-02    4.995300e-06
  4.541102e-02    4.989818e-06
  4.570995e-02    4.974011e-06
  4.600888e-02    4.972742e-06
  4.630781e-02    4.967880e-06
  4.660674e-02    4.962685e-06
  4.690567e-02    4.951477e-06
  4.720460e-02    4.973188e-06
  4.750353e-02    4.961993e-06
  4.780246e-02    4.924590e-06
  4.810139e-02    4.912628e-06
  4.840032e-02    4.921746e-06
  4.869925e-02    4.930652e-06
  4.899818e-02    4.934612e-06
  4.929711e-02    4.937005e-06
  4.959604e-02    4.922539e-06
  4.989497e-02    4.931925e-06
  5.019390e-02    4.973869e-06
  5.049283e-02    4.966912e-06
  5.079176e-02    4.940503e-06
  5.109069e-02    4.939501e-06
  5.138962e-02    4.962472e-06
  5.168855e-02    5.056137e-06
  5.198748e-02    5.124585e-06
  5.228642e-02    5.082079e-06
  5.258535e-02    4.981664e-06
  5.288428e-02    4.919696e-06
  5.318321e-02    4.938085e-06
  5.348214e-02    4.939083e-06
  5.378107e-02    4.929635e-06
  5.408000e-02    4.946332e-06
  5.437893e-02    4.940880e-06
  5.467786e-02    4.922112e-06
  5.497679e-02    4.943970e-06
  5.527572e-02    4.951256e-06
  5.557465e-02    4.928738e-06
  5.587358e-02    4.935420e-06
  5.617251e-02    4.939073e-06
  5.647144e-02    4.946603e-06
  5.677037e-02    4.950749e-06
  5.706930e-02    4.954782e-06
  5.736823e-02    4.955835e-06
  5.766716e-02    4.986419e-06
  5.796609e-02    4.975757e-06
  5.826502e-02    4.978821e-06
  5.856395e-02    4.992325e-06
  5.886288e-02    4.998333e-06
  5.916181e-02    4.987718e-06
  5.946074e-02    5.003516e-06
  5.975967e-02    5.020405e-06
  6.005861e-02    5.030528e-06
  6.035754e-02    5.061308e-06
  6.065647e-02    5.084751e-06
  6.095540e-02    5.097049e-06
  6.125433e-02    5.149170e-06
  6.155326e-02    5.171491e-06
  6.185219e-02    5.112666e-06
  6.215112e-02    5.100137e-06
  6.245005e-02    5.099428e-06
  6.274898e-02    5.111364e-06
  6.304791e-02    5.111066e-06
  6.334684e-02    5.106673e-06
  6.364577e-02    5.114493e-06
  6.394470e-02    5.128290e-06
  6.424363e-02    5.117836e-06
  6.454256e-02    5.136601e-06
  6.484149e-02    5.151670e-06
  6.514042e-02    5.144057e-06
  6.543935e-02    5.152569e-06
  6.573828e-02    5.177631e-06
  6.603721e-02    5.192573e-06
  6.633614e-02    5.187814e-06
  6.663507e-02    5.194258e-06
  6.693400e-02    5.216405e-06
  6.723293e-02    5.227221e-06
  6.753186e-02    5.221052e-06
  6.783080e-02    5.232691e-06
  6.812973e-02    5.244820e-06
  6.842866e-02    5.245457e-06
  6.872759e-02    5.245115e-06
  6.902652e-02    5.254672e-06
  6.932545e-02    5.256417e-06
  6.962438e-02    5.269026e-06
  6.992331e-02    5.265107e-06
  7.022224e-02    5.292136e-06
  7.052117e-02    5.297591e-06
  7.082010e-02    5.282609e-06
  7.111903e-02    5.301009e-06
  7.141796e-02    5.307381e-06
  7.171689e-02    5.323407e-06
  7.201582e-02    5.335313e-06
  7.231475e-02    5.338424e-06
  7.261368e-02    5.337394e-06
  7.291261e-02    5.344473e-06
  7.321154e-02    5.350276e-06
  7.351047e-02    5.354075e-06
  7.380940e-02    5.340220e-06
  7.410833e-02    5.344988e-06
  7.440726e-02    5.366759e-06
  7.470619e-02    5.360393e-06
  7.500512e-02    5.372175e-06
  7.530405e-02    5.370623e-06
  7.560299e-02    5.365816e-06
  7.590192e-02    5.381467e-06
  7.620085e-02    5.372223e-06
  7.649978e-02    5.361246e-06
  7.679871e-02    5.372497e-06
  7.709764e-02    5.361574e-06
  7.739657e-02    5.366884e-06
  7.769550e-02    5.368974e-06
  7.799443e-02    5.357717e-06
  7.829336e-02    5.365028e-06
  7.859229e-02    5.369718e-06
  7.889122e-02    5.363773e-06
  7.919015e-02    5.354118e-06
  7.948908e-02    5.350899e-06
  7.978801e-02    5.347051e-06
  8.008694e-02    5.357031e-06
  8.038587e-02    5.355570e-06
  8.068480e-02    5.325213e-06
  8.098373e-02    5.323356e-06
  8.128266e-02    5.338805e-06
  8.158159e-02    5.320455e-06
  8.188052e-02    5.305777e-06
  8.217945e-02    5.310515e-06
  8.247838e-02    5.306999e-06
  8.277731e-02    5.300308e-06
  8.307624e-02    5.304062e-06
  8.337518e-02    5.291551e-06
  8.367411e-02    5.289218e-06
  8.397304e-02    5.296045e-06
  8.427197e-02    5.282425e-06
  8.457090e-02    5.274532e-06
  8.486983e-02    5.275318e-06
  8.516876e-02    5.262172e-06
  8.546769e-02    5.247022e-06
  8.576662e-02    5.245401e-06
  8.606555e-02    5.239179e-06
  8.636448e-02    5.226212e-06
  8.666341e-02    5.224880e-06
  8.696234e-02    5.247472e-06
  8.726127e-02    5.240205e-06
  8.756020e-02    5.213627e-06
  8.785913e-02    5.193603e-06
  8.815806e-02    5.178640e-06
  8.845699e-02    5.165488e-06
  8.875592e-02    5.154855e-06
  8.905485e-02    5.143171e-06
  8.935378e-02    5.150574e-06
  8.965271e-02    5.125854e-06
  8.995164e-02    5.124421e-06
  9.025057e-02    5.127014e-06
  9.054950e-02    5.117622e-06
  9.084843e-02    5.105073e-06
  9.114737e-02    5.095505e-06
  9.144630e-02    5.088086e-06
  9.174523e-02    5.091481e-06
  9.204416e-02    5.073690e-06
  9.234309e-02    5.042260e-06
  9.264202e-02    5.035588e-06
  9.294095e-02    5.036227e-06
  9.323988e-02    5.052902e-06
  9.353881e-02    5.027081e-06
  9.383774e-02    5.001490e-06
  9.413667e-02    4.988935e-06
  9.443560e-02    4.996638e-06
  9.473453e-02    5.015527e-06
  9.503346e-02    5.001034e-06
  9.533239e-02    5.000937e-06
  9.563132e-02    4.982120e-06
  9.593025e-02    4.973938e-06
  9.622918e-02    4.964922e-06
  9.652811e-02    4.963204e-06
  9.682704e-02    4.974514e-06
  9.712597e-02    4.984446e-06
  9.742490e-02    4.959810e-06
  9.772383e-02    4.949201e-06
  9.802276e-02    4.916626e-06
  9.832169e-02    4.893959e-06
  9.862062e-02    4.877772e-06
  9.891956e-02    4.874771e-06
  9.921849e-02    4.854813e-06
  9.951742e-02    4.847127e-06
  9.981635e-02    4.852166e-06
  1.001153e-01    4.818610e-06
  1.004142e-01    4.805458e-06
  1.007131e-01    4.805637e-06
  1.010121e-01    4.804002e-06
  1.013110e-01    4.783617e-06
  1.016099e-01    4.771630e-06
  1.019089e-01    4.765040e-06
  1.022078e-01    4.745929e-06
  1.025067e-01    4.747819e-06
  1.028057e-01    4.758010e-06
  1.031046e-01    4.744026e-06
  1.034035e-01    4.720508e-06
  1.037024e-01    4.701751e-06
  1.040014e-01    4.688006e-06
  1.043003e-01    4.687546e-06
  1.045992e-01    4.693503e-06
  1.048982e-01    4.675804e-06
  1.051971e-01    4.665912e-06
  1.054960e-01    4.652373e-06
  1.057950e-01    4.634469e-06
  1.060939e-01    4.629252e-06
  1.063928e-01    4.613782e-06
  1.066917e-01    4.586934e-06
  1.069907e-01    4.591883e-06
  1.072896e-01    4.607152e-06
  1.075885e-01    4.574889e-06
  1.078875e-01    4.557866e-06
  1.081864e-01    4.564256e-06
  1.084853e-01    4.558711e-06
  1.087843e-01    4.569975e-06
  1.090832e-01    4.539726e-06
  1.093821e-01    4.545524e-06
  1.096810e-01    4.533558e-06
  1.099800e-01    4.502533e-06
  1.102789e-01    4.498940e-06
  1.105778e-01    4.492398e-06
  1.108768e-01    4.461803e-06
  1.111757e-01    4.452642e-06
  1.114746e-01    4.446635e-06
  1.117736e-01    4.450631e-06
  1.120725e-01    4.439552e-06
  1.123714e-01    4.413706e-06
  1.126704e-01    4.408046e-06
  1.129693e-01    4.401893e-06
  1.132682e-01    4.392618e-06
  1.135671e-01    4.370607e-06
  1.138661e-01    4.350697e-06
  1.141650e-01    4.360546e-06
  1.144639e-01    4.342799e-06
  1.147629e-01    4.322224e-06
  1.150618e-01    4.327746e-06
  1.153607e-01    4.356702e-06
  1.156597e-01    4.352339e-06
  1.159586e-01    4.339697e-06
  1.162575e-01    4.324428e-06
  1.165564e-01    4.274809e-06
  1.168554e-01    4.271289e-06
  1.171543e-01    4.301303e-06
  1.174532e-01    4.328710e-06
  1.177522e-01    4.325735e-06
  1.180511e-01    4.297736e-06
  1.183500e-01    4.323907e-06
  1.186490e-01    4.301551e-06
  1.189479e-01    4.311448e-06
  1.192468e-01    4.292609e-06
  1.195458e-01    4.247368e-06
  1.198447e-01    4.246961e-06
  1.201436e-01    4.211734e-06
  1.204425e-01    4.187222e-06
  1.207415e-01    4.116345e-06
  1.210404e-01    3.794030e-06
  1.213393e-01    0.000000e+00
  1.216383e-01    0.000000e+00
  1.219372e-01    0.000000e+00
  1.222361e-01    0.000000e+00
  1.225351e-01    0.000000e+00
  1.228340e-01    0.000000e+00
  1.231329e-01    0.000000e+00
  1.234318e-01    0.000000e+00
  1.237308e-01    0.000000e+00
  1.240297e-01    0.000000e+00
  1.243286e-01    0.000000e+00
  1.246276e-01    0.000000e+00
  1.249265e-01    0.000000e+00
  1.252254e-01    0.000000e+00
  1.255244e-01    0.000000e+00
  1.258233e-01    0.000000e+00
  1.261222e-01    0.000000e+00
  1.264212e-01    0.000000e+00
  1.267201e-01    0.000000e+00
  1.270190e-01    0.000000e+00
  1.273179e-01    0.000000e+00
  1.276169e-01    0.000000e+00
  1.279158e-01    0.000000e+00
  1.282147e-01    0.000000e+00
  1.285137e-01    0.000000e+00
  1.288126e-01    0.000000e+00
  1.291115e-01    0.000000e+00
  1.294105e-01    0.000000e+00
  1.297094e-01    0.000000e+00
  1.300083e-01    0.000000e+00
  1.303072e-01    0.000000e+00
  1.306062e-01    0.000000e+00
  1.309051e-01    0.000000e+00
  1.312040e-01    0.000000e+00
  1.315030e-01    0.000000e+00
  1.318019e-01    0.000000e+00
  1.321008e-01    0.000000e+00
  1.323998e-01    0.000000e+00
  1.326987e-01    0.000000e+00
  1.329976e-01    0.000000e+00
  1.332965e-01    0.000000e+00
  1.335955e-01    0.000000e+00
  1.338944e-01    0.000000e+00
  1.341933e-01    0.000000e+00
  1.344923e-01    0.000000e+00
  1.347912e-01    0.000000e+00
  1.350901e-01    0.000000e+00
  1.353891e-01    0.000000e+00
  1.356880e-01    0.000000e+00
  1.359869e-01    0.000000e+00
  1.362859e-01    0.000000e+00
  1.365848e-01    0.000000e+00
  1.368837e-01    0.000000e+00
  1.371826e-01    0.000000e+00
  1.374816e-01    0.000000e+00
  1.377805e-01    0.000000e+00
  1.380794e-01    0.000000e+00
  1.383784e-01    0.000000e+00
  1.386773e-01    0.000000e+00
  1.389762e-01    0.000000e+00
  1.392752e-01    0.000000e+00
  1.395741e-01    0.000000e+00
  1.398730e-01    0.000000e+00
  1.401719e-01    0.000000e+00
  1.404709e-01    0.000000e+00
  1.407698e-01    0.000000e+00
  1.410687e-01    0.000000e+00
  1.413677e-01    0.000000e+00
  1.416666e-01    0.000000e+00
  1.419655e-01    0.000000e+00
  1.422645e-01    0.000000e+00
  1.425634e-01    0.000000e+00
  1.428623e-01    0.000000e+00
  1.431613e-01    0.000000e+00
  1.434602e-01    0.000000e+00
  1.437591e-01    0.000000e+00
  1.440580e-01    0.000000e+00
  1.443570e-01    0.000000e+00
  1.446559e-01    0.000000e+00
  1.449548e-01    0.000000e+00
  1.452538e-01    0.000000e+00
  1.455527e-01    0.000000e+00
  1.458516e-01    0.000000e+00
  1.461506e-01    0.000000e+00
  1.464495e-01    0.000000e+00
  1.467484e-01    0.000000e+00
  1.470473e-01    0.000000e+00
  1.473463e-01    0.000000e+00
  1.476452e-01    0.000000e+00
  1.479441e-01    0.000000e+00
  1.482431e-01    0.000000e+00
  1.485420e-01    0.000000e+00
  1.488409e-01    0.000000e+00
  1.491399e-01    0.000000e+00
  1.494388e-01    0.000000e+00
  1.497377e-01    0.000000e+00
  1.500367e-01    0.000000e+00
  1.503356e-01    0.000000e+00
  1.506345e-01    0.000000e+00
  1.509334e-01    0.000000e+00
  1.512324e-01    0.000000e+00
  1.515313e-01    0.000000e+00
  1.518302e-01    0.000000e+00
  1.521292e-01    0.000000e+00
  1.524281e-01    0.000000e+00
  1.527270e-01    0.000000e+00
  1.530260e-01    0.000000e+00
  1.533249e-01    0.000000e+00
  1.536238e-01    0.000000e+00
