# == pyFAI calibration ==
# Distance Sample to Detector: 2.266 m
# PONI: 5.659e-02, 4.293e-02 m
# Rotations: 0.000000 0.000000 0.000000 rad
# 
# == Fit2d calibration ==
# Distance Sample-beamCenter: 2266.000 mm
# Center: x=249.594, y=329.012 pix
# Tilt: 0.000 deg  TiltPlanRot: 0.000 deg
# 
# Detector Pilatus 300k	 PixelSize= 1.720e-04, 1.720e-04 m
#    Detector has a mask: True 
#    Detector has a dark current: False 
#    detector has a flat field: False 
# 
# Wavelength: 1.27818e-10 m
# Mask applied: user provided
# Dark current applied: False
# Flat field applied: False
# Polarization factor: None
# Normalization factor: 4634693.0
# --> MT-AL_F127_220301_b35610e5-ffeb-437f-aec7-00063f67e9cb_0_r1d.csv
#        q_A^-1             I 
  4.457554e-03    9.651008e-03
  4.756484e-03    7.642186e-03
  5.055415e-03    5.536138e-03
  5.354345e-03    3.972724e-03
  5.653276e-03    3.139304e-03
  5.952206e-03    5.116815e-03
  6.251136e-03    4.635249e-03
  6.550067e-03    3.985975e-03
  6.848997e-03    3.366234e-03
  7.147927e-03    2.836127e-03
  7.446858e-03    2.421975e-03
  7.745788e-03    2.077630e-03
  8.044719e-03    1.791553e-03
  8.343649e-03    1.566823e-03
  8.642579e-03    1.370915e-03
  8.941510e-03    1.205425e-03
  9.240440e-03    1.069744e-03
  9.539371e-03    9.515528e-04
  9.838301e-03    8.482967e-04
  1.013723e-02    7.609029e-04
  1.043616e-02    6.852908e-04
  1.073509e-02    6.161476e-04
  1.103402e-02    5.594239e-04
  1.133295e-02    5.082163e-04
  1.163188e-02    4.625348e-04
  1.193081e-02    4.226759e-04
  1.222974e-02    3.867631e-04
  1.252867e-02    3.548334e-04
  1.282760e-02    3.268779e-04
  1.312654e-02    3.014233e-04
  1.342547e-02    2.794743e-04
  1.372440e-02    2.597393e-04
  1.402333e-02    2.412331e-04
  1.432226e-02    2.245462e-04
  1.462119e-02    2.091308e-04
  1.492012e-02    1.957574e-04
  1.521905e-02    1.830424e-04
  1.551798e-02    1.716317e-04
  1.581691e-02    1.616866e-04
  1.611584e-02    1.523650e-04
  1.641477e-02    1.435900e-04
  1.671370e-02    1.355649e-04
  1.701263e-02    1.282918e-04
  1.731156e-02    1.221522e-04
  1.761049e-02    1.164500e-04
  1.790942e-02    1.104081e-04
  1.820835e-02    1.050369e-04
  1.850728e-02    1.002585e-04
  1.880621e-02    9.611785e-05
  1.910514e-02    9.220490e-05
  1.940407e-02    8.827581e-05
  1.970300e-02    8.463595e-05
  2.000193e-02    8.157068e-05
  2.030086e-02    7.841347e-05
  2.059979e-02    7.555332e-05
  2.089873e-02    7.320294e-05
  2.119766e-02    7.102078e-05
  2.149659e-02    6.837196e-05
  2.179552e-02    6.627941e-05
  2.209445e-02    6.435431e-05
  2.239338e-02    6.233251e-05
  2.269231e-02    6.067481e-05
  2.299124e-02    5.909022e-05
  2.329017e-02    5.763569e-05
  2.358910e-02    5.602093e-05
  2.388803e-02    5.450300e-05
  2.418696e-02    5.316579e-05
  2.448589e-02    5.213706e-05
  2.478482e-02    5.111437e-05
  2.508375e-02    4.990782e-05
  2.538268e-02    4.883922e-05
  2.568161e-02    4.793339e-05
  2.598054e-02    4.732417e-05
  2.627947e-02    4.662115e-05
  2.657840e-02    4.589009e-05
  2.687733e-02    4.491971e-05
  2.717626e-02    4.402176e-05
  2.747519e-02    4.334036e-05
  2.777412e-02    4.290969e-05
  2.807305e-02    4.231800e-05
  2.837198e-02    4.160582e-05
  2.867092e-02    4.098710e-05
  2.896985e-02    4.042229e-05
  2.926878e-02    3.998972e-05
  2.956771e-02    3.964900e-05
  2.986664e-02    3.914281e-05
  3.016557e-02    3.858404e-05
  3.046450e-02    3.817248e-05
  3.076343e-02    3.787271e-05
  3.106236e-02    3.752649e-05
  3.136129e-02    3.714862e-05
  3.166022e-02    3.684240e-05
  3.195915e-02    3.646424e-05
  3.225808e-02    3.596598e-05
  3.255701e-02    3.558594e-05
  3.285594e-02    3.529830e-05
  3.315487e-02    3.496798e-05
  3.345380e-02    3.457877e-05
  3.375273e-02    3.444743e-05
  3.405166e-02    3.414148e-05
  3.435059e-02    3.384214e-05
  3.464952e-02    3.365743e-05
  3.494845e-02    3.342569e-05
  3.524738e-02    3.313323e-05
  3.554631e-02    3.287365e-05
  3.584524e-02    3.252383e-05
  3.614417e-02    3.214286e-05
  3.644310e-02    3.190754e-05
  3.674204e-02    3.162104e-05
  3.704097e-02    3.140796e-05
  3.733990e-02    3.133236e-05
  3.763883e-02    3.103695e-05
  3.793776e-02    3.083929e-05
  3.823669e-02    3.077349e-05
  3.853562e-02    3.050626e-05
  3.883455e-02    3.037298e-05
  3.913348e-02    3.016171e-05
  3.943241e-02    2.988035e-05
  3.973134e-02    2.977721e-05
  4.003027e-02    2.974740e-05
  4.032920e-02    2.954399e-05
  4.062813e-02    2.935150e-05
  4.092706e-02    2.925656e-05
  4.122599e-02    2.927299e-05
  4.152492e-02    2.908868e-05
  4.182385e-02    2.886896e-05
  4.212278e-02    2.887611e-05
  4.242171e-02    2.883222e-05
  4.272064e-02    2.884783e-05
  4.301957e-02    2.868277e-05
  4.331850e-02    2.849691e-05
  4.361743e-02    2.830857e-05
  4.391636e-02    2.826294e-05
  4.421529e-02    2.844473e-05
  4.451423e-02    2.842045e-05
  4.481316e-02    2.826092e-05
  4.511209e-02    2.817827e-05
  4.541102e-02    2.818085e-05
  4.570995e-02    2.811527e-05
  4.600888e-02    2.807562e-05
  4.630781e-02    2.804153e-05
  4.660674e-02    2.804280e-05
  4.690567e-02    2.790698e-05
  4.720460e-02    2.790978e-05
  4.750353e-02    2.800568e-05
  4.780246e-02    2.797256e-05
  4.810139e-02    2.790548e-05
  4.840032e-02    2.786758e-05
  4.869925e-02    2.783546e-05
  4.899818e-02    2.791109e-05
  4.929711e-02    2.794422e-05
  4.959604e-02    2.787052e-05
  4.989497e-02    2.788457e-05
  5.019390e-02    2.780204e-05
  5.049283e-02    2.779466e-05
  5.079176e-02    2.792088e-05
  5.109069e-02    2.800588e-05
  5.138962e-02    2.800777e-05
  5.168855e-02    2.836230e-05
  5.198748e-02    2.882221e-05
  5.228642e-02    2.859929e-05
  5.258535e-02    2.797354e-05
  5.288428e-02    2.769525e-05
  5.318321e-02    2.784458e-05
  5.348214e-02    2.776956e-05
  5.378107e-02    2.775255e-05
  5.408000e-02    2.774340e-05
  5.437893e-02    2.776921e-05
  5.467786e-02    2.789805e-05
  5.497679e-02    2.793515e-05
  5.527572e-02    2.788894e-05
  5.557465e-02    2.788132e-05
  5.587358e-02    2.794415e-05
  5.617251e-02    2.802027e-05
  5.647144e-02    2.803103e-05
  5.677037e-02    2.803406e-05
  5.706930e-02    2.805419e-05
  5.736823e-02    2.810445e-05
  5.766716e-02    2.810682e-05
  5.796609e-02    2.799481e-05
  5.826502e-02    2.818464e-05
  5.856395e-02    2.818461e-05
  5.886288e-02    2.807639e-05
  5.916181e-02    2.809299e-05
  5.946074e-02    2.830117e-05
  5.975967e-02    2.832203e-05
  6.005861e-02    2.844818e-05
  6.035754e-02    2.853131e-05
  6.065647e-02    2.852691e-05
  6.095540e-02    2.864272e-05
  6.125433e-02    2.898740e-05
  6.155326e-02    2.909187e-05
  6.185219e-02    2.878623e-05
  6.215112e-02    2.859157e-05
  6.245005e-02    2.862513e-05
  6.274898e-02    2.858386e-05
  6.304791e-02    2.855591e-05
  6.334684e-02    2.880198e-05
  6.364577e-02    2.884830e-05
  6.394470e-02    2.874648e-05
  6.424363e-02    2.870664e-05
  6.454256e-02    2.891648e-05
  6.484149e-02    2.904764e-05
  6.514042e-02    2.895380e-05
  6.543935e-02    2.908604e-05
  6.573828e-02    2.915496e-05
  6.603721e-02    2.912215e-05
  6.633614e-02    2.913193e-05
  6.663507e-02    2.926749e-05
  6.693400e-02    2.938678e-05
  6.723293e-02    2.930398e-05
  6.753186e-02    2.930495e-05
  6.783080e-02    2.934916e-05
  6.812973e-02    2.944791e-05
  6.842866e-02    2.958051e-05
  6.872759e-02    2.960806e-05
  6.902652e-02    2.959816e-05
  6.932545e-02    2.963615e-05
  6.962438e-02    2.969091e-05
  6.992331e-02    2.976978e-05
  7.022224e-02    2.979468e-05
  7.052117e-02    2.989697e-05
  7.082010e-02    2.993918e-05
  7.111903e-02    2.988207e-05
  7.141796e-02    2.980624e-05
  7.171689e-02    2.993545e-05
  7.201582e-02    2.995776e-05
  7.231475e-02    2.989222e-05
  7.261368e-02    2.995615e-05
  7.291261e-02    3.000749e-05
  7.321154e-02    3.007418e-05
  7.351047e-02    3.011491e-05
  7.380940e-02    3.005412e-05
  7.410833e-02    3.012810e-05
  7.440726e-02    3.016317e-05
  7.470619e-02    3.014070e-05
  7.500512e-02    3.007983e-05
  7.530405e-02    3.005094e-05
  7.560299e-02    3.011470e-05
  7.590192e-02    3.027064e-05
  7.620085e-02    3.030979e-05
  7.649978e-02    3.023674e-05
  7.679871e-02    3.017142e-05
  7.709764e-02    3.020169e-05
  7.739657e-02    3.017649e-05
  7.769550e-02    3.010884e-05
  7.799443e-02    3.016867e-05
  7.829336e-02    3.023702e-05
  7.859229e-02    3.020941e-05
  7.889122e-02    3.019417e-05
  7.919015e-02    3.018919e-05
  7.948908e-02    3.013739e-05
  7.978801e-02    3.006734e-05
  8.008694e-02    3.006038e-05
  8.038587e-02    3.010675e-05
  8.068480e-02    3.005203e-05
  8.098373e-02    2.998313e-05
  8.128266e-02    2.994098e-05
  8.158159e-02    2.997005e-05
  8.188052e-02    2.993103e-05
  8.217945e-02    2.985758e-05
  8.247838e-02    2.989534e-05
  8.277731e-02    2.987909e-05
  8.307624e-02    2.990162e-05
  8.337518e-02    2.982817e-05
  8.367411e-02    2.981750e-05
  8.397304e-02    2.983278e-05
  8.427197e-02    2.976654e-05
  8.457090e-02    2.977166e-05
  8.486983e-02    2.970130e-05
  8.516876e-02    2.958342e-05
  8.546769e-02    2.955936e-05
  8.576662e-02    2.947944e-05
  8.606555e-02    2.948296e-05
  8.636448e-02    2.951464e-05
  8.666341e-02    2.945923e-05
  8.696234e-02    2.931537e-05
  8.726127e-02    2.927666e-05
  8.756020e-02    2.936021e-05
  8.785913e-02    2.933386e-05
  8.815806e-02    2.928962e-05
  8.845699e-02    2.909409e-05
  8.875592e-02    2.903982e-05
  8.905485e-02    2.901005e-05
  8.935378e-02    2.901994e-05
  8.965271e-02    2.901381e-05
  8.995164e-02    2.897220e-05
  9.025057e-02    2.899155e-05
  9.054950e-02    2.884117e-05
  9.084843e-02    2.877520e-05
  9.114737e-02    2.878878e-05
  9.144630e-02    2.870975e-05
  9.174523e-02    2.865008e-05
  9.204416e-02    2.856464e-05
  9.234309e-02    2.846686e-05
  9.264202e-02    2.834004e-05
  9.294095e-02    2.833142e-05
  9.323988e-02    2.827121e-05
  9.353881e-02    2.834782e-05
  9.383774e-02    2.834676e-05
  9.413667e-02    2.819433e-05
  9.443560e-02    2.818600e-05
  9.473453e-02    2.818917e-05
  9.503346e-02    2.804355e-05
  9.533239e-02    2.808848e-05
  9.563132e-02    2.818301e-05
  9.593025e-02    2.805063e-05
  9.622918e-02    2.802951e-05
  9.652811e-02    2.808283e-05
  9.682704e-02    2.807249e-05
  9.712597e-02    2.802296e-05
  9.742490e-02    2.790926e-05
  9.772383e-02    2.784430e-05
  9.802276e-02    2.754356e-05
  9.832169e-02    2.745304e-05
  9.862062e-02    2.747564e-05
  9.891956e-02    2.743826e-05
  9.921849e-02    2.749383e-05
  9.951742e-02    2.742057e-05
  9.981635e-02    2.742315e-05
  1.001153e-01    2.735023e-05
  1.004142e-01    2.717741e-05
  1.007131e-01    2.709850e-05
  1.010121e-01    2.710771e-05
  1.013110e-01    2.704889e-05
  1.016099e-01    2.697523e-05
  1.019089e-01    2.680331e-05
  1.022078e-01    2.679849e-05
  1.025067e-01    2.678515e-05
  1.028057e-01    2.677005e-05
  1.031046e-01    2.672628e-05
  1.034035e-01    2.666094e-05
  1.037024e-01    2.665247e-05
  1.040014e-01    2.656316e-05
  1.043003e-01    2.651977e-05
  1.045992e-01    2.645789e-05
  1.048982e-01    2.634617e-05
  1.051971e-01    2.627711e-05
  1.054960e-01    2.622717e-05
  1.057950e-01    2.629684e-05
  1.060939e-01    2.620045e-05
  1.063928e-01    2.614961e-05
  1.066917e-01    2.604318e-05
  1.069907e-01    2.593892e-05
  1.072896e-01    2.597644e-05
  1.075885e-01    2.592249e-05
  1.078875e-01    2.592223e-05
  1.081864e-01    2.609446e-05
  1.084853e-01    2.590267e-05
  1.087843e-01    2.571493e-05
  1.090832e-01    2.569139e-05
  1.093821e-01    2.565326e-05
  1.096810e-01    2.562561e-05
  1.099800e-01    2.551839e-05
  1.102789e-01    2.530646e-05
  1.105778e-01    2.533760e-05
  1.108768e-01    2.527587e-05
  1.111757e-01    2.517214e-05
  1.114746e-01    2.516685e-05
  1.117736e-01    2.507073e-05
  1.120725e-01    2.493553e-05
  1.123714e-01    2.481291e-05
  1.126704e-01    2.480142e-05
  1.129693e-01    2.485438e-05
  1.132682e-01    2.470279e-05
  1.135671e-01    2.458238e-05
  1.138661e-01    2.458540e-05
  1.141650e-01    2.461506e-05
  1.144639e-01    2.448884e-05
  1.147629e-01    2.450811e-05
  1.150618e-01    2.449820e-05
  1.153607e-01    2.450958e-05
  1.156597e-01    2.458630e-05
  1.159586e-01    2.451544e-05
  1.162575e-01    2.436903e-05
  1.165564e-01    2.430865e-05
  1.168554e-01    2.423719e-05
  1.171543e-01    2.425378e-05
  1.174532e-01    2.431189e-05
  1.177522e-01    2.433676e-05
  1.180511e-01    2.414938e-05
  1.183500e-01    2.386149e-05
  1.186490e-01    2.400321e-05
  1.189479e-01    2.416959e-05
  1.192468e-01    2.404338e-05
  1.195458e-01    2.396996e-05
  1.198447e-01    2.402059e-05
  1.201436e-01    2.405885e-05
  1.204425e-01    2.424902e-05
  1.207415e-01    2.381707e-05
  1.210404e-01    2.267574e-05
  1.213393e-01    0.000000e+00
  1.216383e-01    0.000000e+00
  1.219372e-01    0.000000e+00
  1.222361e-01    0.000000e+00
  1.225351e-01    0.000000e+00
  1.228340e-01    0.000000e+00
  1.231329e-01    0.000000e+00
  1.234318e-01    0.000000e+00
  1.237308e-01    0.000000e+00
  1.240297e-01    0.000000e+00
  1.243286e-01    0.000000e+00
  1.246276e-01    0.000000e+00
  1.249265e-01    0.000000e+00
  1.252254e-01    0.000000e+00
  1.255244e-01    0.000000e+00
  1.258233e-01    0.000000e+00
  1.261222e-01    0.000000e+00
  1.264212e-01    0.000000e+00
  1.267201e-01    0.000000e+00
  1.270190e-01    0.000000e+00
  1.273179e-01    0.000000e+00
  1.276169e-01    0.000000e+00
  1.279158e-01    0.000000e+00
  1.282147e-01    0.000000e+00
  1.285137e-01    0.000000e+00
  1.288126e-01    0.000000e+00
  1.291115e-01    0.000000e+00
  1.294105e-01    0.000000e+00
  1.297094e-01    0.000000e+00
  1.300083e-01    0.000000e+00
  1.303072e-01    0.000000e+00
  1.306062e-01    0.000000e+00
  1.309051e-01    0.000000e+00
  1.312040e-01    0.000000e+00
  1.315030e-01    0.000000e+00
  1.318019e-01    0.000000e+00
  1.321008e-01    0.000000e+00
  1.323998e-01    0.000000e+00
  1.326987e-01    0.000000e+00
  1.329976e-01    0.000000e+00
  1.332965e-01    0.000000e+00
  1.335955e-01    0.000000e+00
  1.338944e-01    0.000000e+00
  1.341933e-01    0.000000e+00
  1.344923e-01    0.000000e+00
  1.347912e-01    0.000000e+00
  1.350901e-01    0.000000e+00
  1.353891e-01    0.000000e+00
  1.356880e-01    0.000000e+00
  1.359869e-01    0.000000e+00
  1.362859e-01    0.000000e+00
  1.365848e-01    0.000000e+00
  1.368837e-01    0.000000e+00
  1.371826e-01    0.000000e+00
  1.374816e-01    0.000000e+00
  1.377805e-01    0.000000e+00
  1.380794e-01    0.000000e+00
  1.383784e-01    0.000000e+00
  1.386773e-01    0.000000e+00
  1.389762e-01    0.000000e+00
  1.392752e-01    0.000000e+00
  1.395741e-01    0.000000e+00
  1.398730e-01    0.000000e+00
  1.401719e-01    0.000000e+00
  1.404709e-01    0.000000e+00
  1.407698e-01    0.000000e+00
  1.410687e-01    0.000000e+00
  1.413677e-01    0.000000e+00
  1.416666e-01    0.000000e+00
  1.419655e-01    0.000000e+00
  1.422645e-01    0.000000e+00
  1.425634e-01    0.000000e+00
  1.428623e-01    0.000000e+00
  1.431613e-01    0.000000e+00
  1.434602e-01    0.000000e+00
  1.437591e-01    0.000000e+00
  1.440580e-01    0.000000e+00
  1.443570e-01    0.000000e+00
  1.446559e-01    0.000000e+00
  1.449548e-01    0.000000e+00
  1.452538e-01    0.000000e+00
  1.455527e-01    0.000000e+00
  1.458516e-01    0.000000e+00
  1.461506e-01    0.000000e+00
  1.464495e-01    0.000000e+00
  1.467484e-01    0.000000e+00
  1.470473e-01    0.000000e+00
  1.473463e-01    0.000000e+00
  1.476452e-01    0.000000e+00
  1.479441e-01    0.000000e+00
  1.482431e-01    0.000000e+00
  1.485420e-01    0.000000e+00
  1.488409e-01    0.000000e+00
  1.491399e-01    0.000000e+00
  1.494388e-01    0.000000e+00
  1.497377e-01    0.000000e+00
  1.500367e-01    0.000000e+00
  1.503356e-01    0.000000e+00
  1.506345e-01    0.000000e+00
  1.509334e-01    0.000000e+00
  1.512324e-01    0.000000e+00
  1.515313e-01    0.000000e+00
  1.518302e-01    0.000000e+00
  1.521292e-01    0.000000e+00
  1.524281e-01    0.000000e+00
  1.527270e-01    0.000000e+00
  1.530260e-01    0.000000e+00
  1.533249e-01    0.000000e+00
  1.536238e-01    0.000000e+00
