# == pyFAI calibration ==
# Distance Sample to Detector: 2.266 m
# PONI: 5.659e-02, 4.293e-02 m
# Rotations: 0.000000 0.000000 0.000000 rad
# 
# == Fit2d calibration ==
# Distance Sample-beamCenter: 2266.000 mm
# Center: x=249.594, y=329.012 pix
# Tilt: 0.000 deg  TiltPlanRot: 0.000 deg
# 
# Detector Pilatus 300k	 PixelSize= 1.720e-04, 1.720e-04 m
#    Detector has a mask: True 
#    Detector has a dark current: False 
#    detector has a flat field: False 
# 
# Wavelength: 1.27818e-10 m
# Mask applied: user provided
# Dark current applied: False
# Flat field applied: False
# Polarization factor: None
# Normalization factor: 3632609.6
# --> MT-AL_F127_220225_8918b8e9-e007-4729-a9d8-a2ac137169c0_0_r1d.csv
#        q_A^-1             I 
  4.457554e-03    1.000069e-02
  4.756484e-03    7.963890e-03
  5.055415e-03    5.771616e-03
  5.354345e-03    4.128846e-03
  5.653276e-03    3.264890e-03
  5.952206e-03    5.527238e-03
  6.251136e-03    5.042124e-03
  6.550067e-03    4.363086e-03
  6.848997e-03    3.686555e-03
  7.147927e-03    3.105620e-03
  7.446858e-03    2.651393e-03
  7.745788e-03    2.274042e-03
  8.044719e-03    1.956124e-03
  8.343649e-03    1.705530e-03
  8.642579e-03    1.494337e-03
  8.941510e-03    1.313774e-03
  9.240440e-03    1.164400e-03
  9.539371e-03    1.034277e-03
  9.838301e-03    9.221878e-04
  1.013723e-02    8.280296e-04
  1.043616e-02    7.428115e-04
  1.073509e-02    6.675437e-04
  1.103402e-02    6.045330e-04
  1.133295e-02    5.480939e-04
  1.163188e-02    4.994824e-04
  1.193081e-02    4.564941e-04
  1.222974e-02    4.168630e-04
  1.252867e-02    3.830361e-04
  1.282760e-02    3.520088e-04
  1.312654e-02    3.249410e-04
  1.342547e-02    3.016658e-04
  1.372440e-02    2.799517e-04
  1.402333e-02    2.595288e-04
  1.432226e-02    2.414483e-04
  1.462119e-02    2.246817e-04
  1.492012e-02    2.099089e-04
  1.521905e-02    1.967410e-04
  1.551798e-02    1.847746e-04
  1.581691e-02    1.736258e-04
  1.611584e-02    1.635374e-04
  1.641477e-02    1.545978e-04
  1.671370e-02    1.459771e-04
  1.701263e-02    1.376422e-04
  1.731156e-02    1.305531e-04
  1.761049e-02    1.241805e-04
  1.790942e-02    1.179740e-04
  1.820835e-02    1.120009e-04
  1.850728e-02    1.073475e-04
  1.880621e-02    1.026369e-04
  1.910514e-02    9.752079e-05
  1.940407e-02    9.354122e-05
  1.970300e-02    8.995823e-05
  2.000193e-02    8.659376e-05
  2.030086e-02    8.351855e-05
  2.059979e-02    8.025089e-05
  2.089873e-02    7.735164e-05
  2.119766e-02    7.490772e-05
  2.149659e-02    7.239595e-05
  2.179552e-02    6.996005e-05
  2.209445e-02    6.807222e-05
  2.239338e-02    6.618010e-05
  2.269231e-02    6.433151e-05
  2.299124e-02    6.276687e-05
  2.329017e-02    6.093384e-05
  2.358910e-02    5.935220e-05
  2.388803e-02    5.766776e-05
  2.418696e-02    5.610963e-05
  2.448589e-02    5.473828e-05
  2.478482e-02    5.369317e-05
  2.508375e-02    5.250030e-05
  2.538268e-02    5.142033e-05
  2.568161e-02    5.049090e-05
  2.598054e-02    4.964563e-05
  2.627947e-02    4.873444e-05
  2.657840e-02    4.794417e-05
  2.687733e-02    4.711201e-05
  2.717626e-02    4.642010e-05
  2.747519e-02    4.572602e-05
  2.777412e-02    4.488751e-05
  2.807305e-02    4.415553e-05
  2.837198e-02    4.362336e-05
  2.867092e-02    4.292405e-05
  2.896985e-02    4.211218e-05
  2.926878e-02    4.177997e-05
  2.956771e-02    4.126763e-05
  2.986664e-02    4.075519e-05
  3.016557e-02    4.030558e-05
  3.046450e-02    3.997892e-05
  3.076343e-02    3.953189e-05
  3.106236e-02    3.916560e-05
  3.136129e-02    3.867016e-05
  3.166022e-02    3.813366e-05
  3.195915e-02    3.769498e-05
  3.225808e-02    3.737838e-05
  3.255701e-02    3.700890e-05
  3.285594e-02    3.662103e-05
  3.315487e-02    3.628985e-05
  3.345380e-02    3.613752e-05
  3.375273e-02    3.563630e-05
  3.405166e-02    3.533882e-05
  3.435059e-02    3.499527e-05
  3.464952e-02    3.446986e-05
  3.494845e-02    3.422029e-05
  3.524738e-02    3.400267e-05
  3.554631e-02    3.372844e-05
  3.584524e-02    3.346982e-05
  3.614417e-02    3.312891e-05
  3.644310e-02    3.285266e-05
  3.674204e-02    3.252134e-05
  3.704097e-02    3.249705e-05
  3.733990e-02    3.212604e-05
  3.763883e-02    3.186288e-05
  3.793776e-02    3.183401e-05
  3.823669e-02    3.170488e-05
  3.853562e-02    3.143935e-05
  3.883455e-02    3.119477e-05
  3.913348e-02    3.103793e-05
  3.943241e-02    3.094158e-05
  3.973134e-02    3.081053e-05
  4.003027e-02    3.060762e-05
  4.032920e-02    3.034550e-05
  4.062813e-02    3.018996e-05
  4.092706e-02    3.006686e-05
  4.122599e-02    3.003262e-05
  4.152492e-02    2.996610e-05
  4.182385e-02    2.972932e-05
  4.212278e-02    2.958676e-05
  4.242171e-02    2.956438e-05
  4.272064e-02    2.946585e-05
  4.301957e-02    2.931170e-05
  4.331850e-02    2.916855e-05
  4.361743e-02    2.905513e-05
  4.391636e-02    2.913699e-05
  4.421529e-02    2.905491e-05
  4.451423e-02    2.900668e-05
  4.481316e-02    2.887604e-05
  4.511209e-02    2.868459e-05
  4.541102e-02    2.862148e-05
  4.570995e-02    2.848433e-05
  4.600888e-02    2.865361e-05
  4.630781e-02    2.868407e-05
  4.660674e-02    2.869674e-05
  4.690567e-02    2.856158e-05
  4.720460e-02    2.850066e-05
  4.750353e-02    2.852750e-05
  4.780246e-02    2.842794e-05
  4.810139e-02    2.844529e-05
  4.840032e-02    2.842369e-05
  4.869925e-02    2.835411e-05
  4.899818e-02    2.833197e-05
  4.929711e-02    2.836055e-05
  4.959604e-02    2.836469e-05
  4.989497e-02    2.836102e-05
  5.019390e-02    2.843803e-05
  5.049283e-02    2.841691e-05
  5.079176e-02    2.843789e-05
  5.109069e-02    2.847379e-05
  5.138962e-02    2.857689e-05
  5.168855e-02    2.912946e-05
  5.198748e-02    2.946532e-05
  5.228642e-02    2.921733e-05
  5.258535e-02    2.862968e-05
  5.288428e-02    2.838619e-05
  5.318321e-02    2.818406e-05
  5.348214e-02    2.802131e-05
  5.378107e-02    2.803342e-05
  5.408000e-02    2.808717e-05
  5.437893e-02    2.820728e-05
  5.467786e-02    2.826474e-05
  5.497679e-02    2.819855e-05
  5.527572e-02    2.818453e-05
  5.557465e-02    2.813900e-05
  5.587358e-02    2.826703e-05
  5.617251e-02    2.826102e-05
  5.647144e-02    2.826897e-05
  5.677037e-02    2.831543e-05
  5.706930e-02    2.833374e-05
  5.736823e-02    2.837803e-05
  5.766716e-02    2.846334e-05
  5.796609e-02    2.840862e-05
  5.826502e-02    2.823302e-05
  5.856395e-02    2.832397e-05
  5.886288e-02    2.842435e-05
  5.916181e-02    2.843150e-05
  5.946074e-02    2.852189e-05
  5.975967e-02    2.858262e-05
  6.005861e-02    2.857832e-05
  6.035754e-02    2.859180e-05
  6.065647e-02    2.871599e-05
  6.095540e-02    2.886251e-05
  6.125433e-02    2.928346e-05
  6.155326e-02    2.930489e-05
  6.185219e-02    2.896903e-05
  6.215112e-02    2.882222e-05
  6.245005e-02    2.879274e-05
  6.274898e-02    2.891343e-05
  6.304791e-02    2.890353e-05
  6.334684e-02    2.897190e-05
  6.364577e-02    2.896450e-05
  6.394470e-02    2.898249e-05
  6.424363e-02    2.897742e-05
  6.454256e-02    2.909238e-05
  6.484149e-02    2.914433e-05
  6.514042e-02    2.918862e-05
  6.543935e-02    2.925862e-05
  6.573828e-02    2.920795e-05
  6.603721e-02    2.924275e-05
  6.633614e-02    2.925002e-05
  6.663507e-02    2.926055e-05
  6.693400e-02    2.937183e-05
  6.723293e-02    2.945572e-05
  6.753186e-02    2.953868e-05
  6.783080e-02    2.951700e-05
  6.812973e-02    2.955154e-05
  6.842866e-02    2.967060e-05
  6.872759e-02    2.964086e-05
  6.902652e-02    2.956303e-05
  6.932545e-02    2.966845e-05
  6.962438e-02    2.967329e-05
  6.992331e-02    2.964874e-05
  7.022224e-02    2.963793e-05
  7.052117e-02    2.975404e-05
  7.082010e-02    2.981204e-05
  7.111903e-02    2.985510e-05
  7.141796e-02    2.995140e-05
  7.171689e-02    2.994342e-05
  7.201582e-02    2.981081e-05
  7.231475e-02    2.981470e-05
  7.261368e-02    2.998383e-05
  7.291261e-02    2.993613e-05
  7.321154e-02    2.991379e-05
  7.351047e-02    2.982882e-05
  7.380940e-02    2.980943e-05
  7.410833e-02    2.984517e-05
  7.440726e-02    2.990339e-05
  7.470619e-02    2.993784e-05
  7.500512e-02    2.995028e-05
  7.530405e-02    2.995773e-05
  7.560299e-02    2.985360e-05
  7.590192e-02    2.982136e-05
  7.620085e-02    2.991495e-05
  7.649978e-02    2.995448e-05
  7.679871e-02    2.994363e-05
  7.709764e-02    2.993578e-05
  7.739657e-02    2.993189e-05
  7.769550e-02    2.991740e-05
  7.799443e-02    2.982163e-05
  7.829336e-02    2.985866e-05
  7.859229e-02    2.998160e-05
  7.889122e-02    2.988760e-05
  7.919015e-02    2.986869e-05
  7.948908e-02    2.985383e-05
  7.978801e-02    2.982001e-05
  8.008694e-02    2.976632e-05
  8.038587e-02    2.981264e-05
  8.068480e-02    2.968618e-05
  8.098373e-02    2.966954e-05
  8.128266e-02    2.964863e-05
  8.158159e-02    2.960512e-05
  8.188052e-02    2.958919e-05
  8.217945e-02    2.948742e-05
  8.247838e-02    2.955742e-05
  8.277731e-02    2.940793e-05
  8.307624e-02    2.943742e-05
  8.337518e-02    2.948998e-05
  8.367411e-02    2.939698e-05
  8.397304e-02    2.928453e-05
  8.427197e-02    2.924044e-05
  8.457090e-02    2.928158e-05
  8.486983e-02    2.926119e-05
  8.516876e-02    2.926585e-05
  8.546769e-02    2.920054e-05
  8.576662e-02    2.911069e-05
  8.606555e-02    2.908330e-05
  8.636448e-02    2.897780e-05
  8.666341e-02    2.894595e-05
  8.696234e-02    2.882685e-05
  8.726127e-02    2.884454e-05
  8.756020e-02    2.881154e-05
  8.785913e-02    2.876604e-05
  8.815806e-02    2.875177e-05
  8.845699e-02    2.873693e-05
  8.875592e-02    2.871420e-05
  8.905485e-02    2.873016e-05
  8.935378e-02    2.864771e-05
  8.965271e-02    2.860112e-05
  8.995164e-02    2.855195e-05
  9.025057e-02    2.842987e-05
  9.054950e-02    2.846996e-05
  9.084843e-02    2.829258e-05
  9.114737e-02    2.821629e-05
  9.144630e-02    2.822312e-05
  9.174523e-02    2.814551e-05
  9.204416e-02    2.822520e-05
  9.234309e-02    2.815198e-05
  9.264202e-02    2.796161e-05
  9.294095e-02    2.792527e-05
  9.323988e-02    2.782056e-05
  9.353881e-02    2.781704e-05
  9.383774e-02    2.782633e-05
  9.413667e-02    2.777924e-05
  9.443560e-02    2.784003e-05
  9.473453e-02    2.788022e-05
  9.503346e-02    2.770689e-05
  9.533239e-02    2.771461e-05
  9.563132e-02    2.772470e-05
  9.593025e-02    2.767328e-05
  9.622918e-02    2.763407e-05
  9.652811e-02    2.769798e-05
  9.682704e-02    2.758960e-05
  9.712597e-02    2.754310e-05
  9.742490e-02    2.757162e-05
  9.772383e-02    2.750206e-05
  9.802276e-02    2.731296e-05
  9.832169e-02    2.721421e-05
  9.862062e-02    2.713875e-05
  9.891956e-02    2.715149e-05
  9.921849e-02    2.702893e-05
  9.951742e-02    2.691916e-05
  9.981635e-02    2.693954e-05
  1.001153e-01    2.693206e-05
  1.004142e-01    2.675093e-05
  1.007131e-01    2.667930e-05
  1.010121e-01    2.656729e-05
  1.013110e-01    2.655958e-05
  1.016099e-01    2.656271e-05
  1.019089e-01    2.647815e-05
  1.022078e-01    2.645634e-05
  1.025067e-01    2.647580e-05
  1.028057e-01    2.643395e-05
  1.031046e-01    2.633157e-05
  1.034035e-01    2.625416e-05
  1.037024e-01    2.623544e-05
  1.040014e-01    2.611578e-05
  1.043003e-01    2.608267e-05
  1.045992e-01    2.610016e-05
  1.048982e-01    2.605001e-05
  1.051971e-01    2.603339e-05
  1.054960e-01    2.587916e-05
  1.057950e-01    2.591478e-05
  1.060939e-01    2.590597e-05
  1.063928e-01    2.583910e-05
  1.066917e-01    2.581540e-05
  1.069907e-01    2.583782e-05
  1.072896e-01    2.576542e-05
  1.075885e-01    2.569102e-05
  1.078875e-01    2.549315e-05
  1.081864e-01    2.547625e-05
  1.084853e-01    2.550137e-05
  1.087843e-01    2.550656e-05
  1.090832e-01    2.543388e-05
  1.093821e-01    2.546479e-05
  1.096810e-01    2.539701e-05
  1.099800e-01    2.519210e-05
  1.102789e-01    2.511978e-05
  1.105778e-01    2.516554e-05
  1.108768e-01    2.509764e-05
  1.111757e-01    2.489729e-05
  1.114746e-01    2.479760e-05
  1.117736e-01    2.480819e-05
  1.120725e-01    2.474978e-05
  1.123714e-01    2.460936e-05
  1.126704e-01    2.451158e-05
  1.129693e-01    2.446743e-05
  1.132682e-01    2.427604e-05
  1.135671e-01    2.430353e-05
  1.138661e-01    2.418231e-05
  1.141650e-01    2.414093e-05
  1.144639e-01    2.415917e-05
  1.147629e-01    2.406790e-05
  1.150618e-01    2.411146e-05
  1.153607e-01    2.415181e-05
  1.156597e-01    2.424166e-05
  1.159586e-01    2.429386e-05
  1.162575e-01    2.417684e-05
  1.165564e-01    2.404503e-05
  1.168554e-01    2.409412e-05
  1.171543e-01    2.409520e-05
  1.174532e-01    2.389431e-05
  1.177522e-01    2.379493e-05
  1.180511e-01    2.368725e-05
  1.183500e-01    2.401690e-05
  1.186490e-01    2.407461e-05
  1.189479e-01    2.369024e-05
  1.192468e-01    2.349057e-05
  1.195458e-01    2.379802e-05
  1.198447e-01    2.385614e-05
  1.201436e-01    2.375073e-05
  1.204425e-01    2.388038e-05
  1.207415e-01    2.380652e-05
  1.210404e-01    2.424695e-05
  1.213393e-01    0.000000e+00
  1.216383e-01    0.000000e+00
  1.219372e-01    0.000000e+00
  1.222361e-01    0.000000e+00
  1.225351e-01    0.000000e+00
  1.228340e-01    0.000000e+00
  1.231329e-01    0.000000e+00
  1.234318e-01    0.000000e+00
  1.237308e-01    0.000000e+00
  1.240297e-01    0.000000e+00
  1.243286e-01    0.000000e+00
  1.246276e-01    0.000000e+00
  1.249265e-01    0.000000e+00
  1.252254e-01    0.000000e+00
  1.255244e-01    0.000000e+00
  1.258233e-01    0.000000e+00
  1.261222e-01    0.000000e+00
  1.264212e-01    0.000000e+00
  1.267201e-01    0.000000e+00
  1.270190e-01    0.000000e+00
  1.273179e-01    0.000000e+00
  1.276169e-01    0.000000e+00
  1.279158e-01    0.000000e+00
  1.282147e-01    0.000000e+00
  1.285137e-01    0.000000e+00
  1.288126e-01    0.000000e+00
  1.291115e-01    0.000000e+00
  1.294105e-01    0.000000e+00
  1.297094e-01    0.000000e+00
  1.300083e-01    0.000000e+00
  1.303072e-01    0.000000e+00
  1.306062e-01    0.000000e+00
  1.309051e-01    0.000000e+00
  1.312040e-01    0.000000e+00
  1.315030e-01    0.000000e+00
  1.318019e-01    0.000000e+00
  1.321008e-01    0.000000e+00
  1.323998e-01    0.000000e+00
  1.326987e-01    0.000000e+00
  1.329976e-01    0.000000e+00
  1.332965e-01    0.000000e+00
  1.335955e-01    0.000000e+00
  1.338944e-01    0.000000e+00
  1.341933e-01    0.000000e+00
  1.344923e-01    0.000000e+00
  1.347912e-01    0.000000e+00
  1.350901e-01    0.000000e+00
  1.353891e-01    0.000000e+00
  1.356880e-01    0.000000e+00
  1.359869e-01    0.000000e+00
  1.362859e-01    0.000000e+00
  1.365848e-01    0.000000e+00
  1.368837e-01    0.000000e+00
  1.371826e-01    0.000000e+00
  1.374816e-01    0.000000e+00
  1.377805e-01    0.000000e+00
  1.380794e-01    0.000000e+00
  1.383784e-01    0.000000e+00
  1.386773e-01    0.000000e+00
  1.389762e-01    0.000000e+00
  1.392752e-01    0.000000e+00
  1.395741e-01    0.000000e+00
  1.398730e-01    0.000000e+00
  1.401719e-01    0.000000e+00
  1.404709e-01    0.000000e+00
  1.407698e-01    0.000000e+00
  1.410687e-01    0.000000e+00
  1.413677e-01    0.000000e+00
  1.416666e-01    0.000000e+00
  1.419655e-01    0.000000e+00
  1.422645e-01    0.000000e+00
  1.425634e-01    0.000000e+00
  1.428623e-01    0.000000e+00
  1.431613e-01    0.000000e+00
  1.434602e-01    0.000000e+00
  1.437591e-01    0.000000e+00
  1.440580e-01    0.000000e+00
  1.443570e-01    0.000000e+00
  1.446559e-01    0.000000e+00
  1.449548e-01    0.000000e+00
  1.452538e-01    0.000000e+00
  1.455527e-01    0.000000e+00
  1.458516e-01    0.000000e+00
  1.461506e-01    0.000000e+00
  1.464495e-01    0.000000e+00
  1.467484e-01    0.000000e+00
  1.470473e-01    0.000000e+00
  1.473463e-01    0.000000e+00
  1.476452e-01    0.000000e+00
  1.479441e-01    0.000000e+00
  1.482431e-01    0.000000e+00
  1.485420e-01    0.000000e+00
  1.488409e-01    0.000000e+00
  1.491399e-01    0.000000e+00
  1.494388e-01    0.000000e+00
  1.497377e-01    0.000000e+00
  1.500367e-01    0.000000e+00
  1.503356e-01    0.000000e+00
  1.506345e-01    0.000000e+00
  1.509334e-01    0.000000e+00
  1.512324e-01    0.000000e+00
  1.515313e-01    0.000000e+00
  1.518302e-01    0.000000e+00
  1.521292e-01    0.000000e+00
  1.524281e-01    0.000000e+00
  1.527270e-01    0.000000e+00
  1.530260e-01    0.000000e+00
  1.533249e-01    0.000000e+00
  1.536238e-01    0.000000e+00
