# == pyFAI calibration ==
# Distance Sample to Detector: 2.266 m
# PONI: 5.659e-02, 4.293e-02 m
# Rotations: 0.000000 0.000000 0.000000 rad
# 
# == Fit2d calibration ==
# Distance Sample-beamCenter: 2266.000 mm
# Center: x=249.594, y=329.012 pix
# Tilt: 0.000 deg  TiltPlanRot: 0.000 deg
# 
# Detector Pilatus 300k	 PixelSize= 1.720e-04, 1.720e-04 m
#    Detector has a mask: True 
#    Detector has a dark current: False 
#    detector has a flat field: False 
# 
# Wavelength: 1.27818e-10 m
# Mask applied: user provided
# Dark current applied: False
# Flat field applied: False
# Polarization factor: None
# Normalization factor: 14865.43
# --> MT-AL_DowExpt1_220227_555cf593-04d7-4371-83a2-fe95ca58dc59_0_r1d.csv
#        q_A^-1             I 
  4.457554e-03    2.266299e-01
  4.756484e-03    1.867754e-01
  5.055415e-03    1.428356e-01
  5.354345e-03    1.102161e-01
  5.653276e-03    9.063150e-02
  5.952206e-03    1.355862e-01
  6.251136e-03    1.228919e-01
  6.550067e-03    1.061397e-01
  6.848997e-03    9.022085e-02
  7.147927e-03    7.641739e-02
  7.446858e-03    6.602401e-02
  7.745788e-03    5.721539e-02
  8.044719e-03    4.964994e-02
  8.343649e-03    4.355702e-02
  8.642579e-03    3.807830e-02
  8.941510e-03    3.371252e-02
  9.240440e-03    2.996276e-02
  9.539371e-03    2.678213e-02
  9.838301e-03    2.393436e-02
  1.013723e-02    2.144513e-02
  1.043616e-02    1.929443e-02
  1.073509e-02    1.726820e-02
  1.103402e-02    1.569304e-02
  1.133295e-02    1.431496e-02
  1.163188e-02    1.304780e-02
  1.193081e-02    1.186678e-02
  1.222974e-02    1.078837e-02
  1.252867e-02    9.879386e-03
  1.282760e-02    9.089036e-03
  1.312654e-02    8.390216e-03
  1.342547e-02    7.631052e-03
  1.372440e-02    7.036308e-03
  1.402333e-02    6.580754e-03
  1.432226e-02    6.095071e-03
  1.462119e-02    5.635443e-03
  1.492012e-02    5.245220e-03
  1.521905e-02    4.869424e-03
  1.551798e-02    4.541511e-03
  1.581691e-02    4.238747e-03
  1.611584e-02    3.959836e-03
  1.641477e-02    3.695580e-03
  1.671370e-02    3.487538e-03
  1.701263e-02    3.305252e-03
  1.731156e-02    3.141382e-03
  1.761049e-02    2.979785e-03
  1.790942e-02    2.784461e-03
  1.820835e-02    2.623410e-03
  1.850728e-02    2.511772e-03
  1.880621e-02    2.402316e-03
  1.910514e-02    2.301212e-03
  1.940407e-02    2.180563e-03
  1.970300e-02    2.056505e-03
  2.000193e-02    1.998997e-03
  2.030086e-02    1.908061e-03
  2.059979e-02    1.819613e-03
  2.089873e-02    1.757869e-03
  2.119766e-02    1.675567e-03
  2.149659e-02    1.623399e-03
  2.179552e-02    1.555063e-03
  2.209445e-02    1.491212e-03
  2.239338e-02    1.470796e-03
  2.269231e-02    1.404010e-03
  2.299124e-02    1.367669e-03
  2.329017e-02    1.335326e-03
  2.358910e-02    1.280272e-03
  2.388803e-02    1.244528e-03
  2.418696e-02    1.217139e-03
  2.448589e-02    1.184753e-03
  2.478482e-02    1.145483e-03
  2.508375e-02    1.116041e-03
  2.538268e-02    1.084735e-03
  2.568161e-02    1.064576e-03
  2.598054e-02    1.038737e-03
  2.627947e-02    1.010649e-03
  2.657840e-02    1.006150e-03
  2.687733e-02    9.991647e-04
  2.717626e-02    9.675580e-04
  2.747519e-02    9.506701e-04
  2.777412e-02    9.251307e-04
  2.807305e-02    9.075199e-04
  2.837198e-02    8.895950e-04
  2.867092e-02    8.769571e-04
  2.896985e-02    8.655732e-04
  2.926878e-02    8.486658e-04
  2.956771e-02    8.368520e-04
  2.986664e-02    8.230602e-04
  3.016557e-02    7.952924e-04
  3.046450e-02    7.928769e-04
  3.076343e-02    8.002759e-04
  3.106236e-02    7.870896e-04
  3.136129e-02    7.820424e-04
  3.166022e-02    7.688708e-04
  3.195915e-02    7.607816e-04
  3.225808e-02    7.407495e-04
  3.255701e-02    7.417907e-04
  3.285594e-02    7.335066e-04
  3.315487e-02    7.189600e-04
  3.345380e-02    7.107029e-04
  3.375273e-02    7.050302e-04
  3.405166e-02    6.876520e-04
  3.435059e-02    6.834826e-04
  3.464952e-02    6.790548e-04
  3.494845e-02    6.780987e-04
  3.524738e-02    6.649891e-04
  3.554631e-02    6.512548e-04
  3.584524e-02    6.466777e-04
  3.614417e-02    6.537131e-04
  3.644310e-02    6.550842e-04
  3.674204e-02    6.402358e-04
  3.704097e-02    6.393092e-04
  3.733990e-02    6.295923e-04
  3.763883e-02    6.184282e-04
  3.793776e-02    6.264740e-04
  3.823669e-02    6.309716e-04
  3.853562e-02    6.223083e-04
  3.883455e-02    6.091782e-04
  3.913348e-02    6.002735e-04
  3.943241e-02    5.964797e-04
  3.973134e-02    5.935148e-04
  4.003027e-02    5.837315e-04
  4.032920e-02    5.890625e-04
  4.062813e-02    5.972217e-04
  4.092706e-02    5.911116e-04
  4.122599e-02    5.845270e-04
  4.152492e-02    5.784137e-04
  4.182385e-02    5.769738e-04
  4.212278e-02    5.824429e-04
  4.242171e-02    5.708809e-04
  4.272064e-02    5.705667e-04
  4.301957e-02    5.630832e-04
  4.331850e-02    5.598326e-04
  4.361743e-02    5.560108e-04
  4.391636e-02    5.555541e-04
  4.421529e-02    5.540084e-04
  4.451423e-02    5.638937e-04
  4.481316e-02    5.584267e-04
  4.511209e-02    5.520928e-04
  4.541102e-02    5.602313e-04
  4.570995e-02    5.627848e-04
  4.600888e-02    5.536501e-04
  4.630781e-02    5.493705e-04
  4.660674e-02    5.457624e-04
  4.690567e-02    5.576929e-04
  4.720460e-02    5.706655e-04
  4.750353e-02    5.611504e-04
  4.780246e-02    5.543546e-04
  4.810139e-02    5.570847e-04
  4.840032e-02    5.551559e-04
  4.869925e-02    5.553280e-04
  4.899818e-02    5.473632e-04
  4.929711e-02    5.439137e-04
  4.959604e-02    5.452686e-04
  4.989497e-02    5.488977e-04
  5.019390e-02    5.549576e-04
  5.049283e-02    5.525214e-04
  5.079176e-02    5.479804e-04
  5.109069e-02    5.539286e-04
  5.138962e-02    5.589681e-04
  5.168855e-02    5.638713e-04
  5.198748e-02    5.647180e-04
  5.228642e-02    5.551020e-04
  5.258535e-02    5.488599e-04
  5.288428e-02    5.527108e-04
  5.318321e-02    5.477348e-04
  5.348214e-02    5.442505e-04
  5.378107e-02    5.404642e-04
  5.408000e-02    5.472158e-04
  5.437893e-02    5.490442e-04
  5.467786e-02    5.417523e-04
  5.497679e-02    5.464267e-04
  5.527572e-02    5.479970e-04
  5.557465e-02    5.461352e-04
  5.587358e-02    5.506182e-04
  5.617251e-02    5.477648e-04
  5.647144e-02    5.494299e-04
  5.677037e-02    5.479127e-04
  5.706930e-02    5.533027e-04
  5.736823e-02    5.584424e-04
  5.766716e-02    5.550652e-04
  5.796609e-02    5.522735e-04
  5.826502e-02    5.478660e-04
  5.856395e-02    5.532766e-04
  5.886288e-02    5.474361e-04
  5.916181e-02    5.562054e-04
  5.946074e-02    5.526274e-04
  5.975967e-02    5.450529e-04
  6.005861e-02    5.465178e-04
  6.035754e-02    5.464267e-04
  6.065647e-02    5.566936e-04
  6.095540e-02    5.643464e-04
  6.125433e-02    5.614946e-04
  6.155326e-02    5.601736e-04
  6.185219e-02    5.618780e-04
  6.215112e-02    5.680958e-04
  6.245005e-02    5.637297e-04
  6.274898e-02    5.607369e-04
  6.304791e-02    5.609342e-04
  6.334684e-02    5.632388e-04
  6.364577e-02    5.596715e-04
  6.394470e-02    5.611834e-04
  6.424363e-02    5.725789e-04
  6.454256e-02    5.689116e-04
  6.484149e-02    5.672657e-04
  6.514042e-02    5.698249e-04
  6.543935e-02    5.653449e-04
  6.573828e-02    5.685223e-04
  6.603721e-02    5.682872e-04
  6.633614e-02    5.678071e-04
  6.663507e-02    5.705600e-04
  6.693400e-02    5.689821e-04
  6.723293e-02    5.636043e-04
  6.753186e-02    5.717031e-04
  6.783080e-02    5.774401e-04
  6.812973e-02    5.686230e-04
  6.842866e-02    5.708620e-04
  6.872759e-02    5.711452e-04
  6.902652e-02    5.733342e-04
  6.932545e-02    5.774313e-04
  6.962438e-02    5.822051e-04
  6.992331e-02    5.814012e-04
  7.022224e-02    5.802370e-04
  7.052117e-02    5.820179e-04
  7.082010e-02    5.719393e-04
  7.111903e-02    5.605958e-04
  7.141796e-02    5.690356e-04
  7.171689e-02    5.782460e-04
  7.201582e-02    5.783913e-04
  7.231475e-02    5.772963e-04
  7.261368e-02    5.800468e-04
  7.291261e-02    5.745264e-04
  7.321154e-02    5.786250e-04
  7.351047e-02    5.829071e-04
  7.380940e-02    5.699627e-04
  7.410833e-02    5.728153e-04
  7.440726e-02    5.740655e-04
  7.470619e-02    5.793757e-04
  7.500512e-02    5.811764e-04
  7.530405e-02    5.694756e-04
  7.560299e-02    5.710568e-04
  7.590192e-02    5.810686e-04
  7.620085e-02    5.762503e-04
  7.649978e-02    5.803039e-04
  7.679871e-02    5.812368e-04
  7.709764e-02    5.746848e-04
  7.739657e-02    5.750587e-04
  7.769550e-02    5.758873e-04
  7.799443e-02    5.792215e-04
  7.829336e-02    5.794894e-04
  7.859229e-02    5.686851e-04
  7.889122e-02    5.674132e-04
  7.919015e-02    5.708064e-04
  7.948908e-02    5.692621e-04
  7.978801e-02    5.752051e-04
  8.008694e-02    5.768865e-04
  8.038587e-02    5.687629e-04
  8.068480e-02    5.732802e-04
  8.098373e-02    5.727208e-04
  8.128266e-02    5.768550e-04
  8.158159e-02    5.782218e-04
  8.188052e-02    5.755420e-04
  8.217945e-02    5.715124e-04
  8.247838e-02    5.752207e-04
  8.277731e-02    5.734517e-04
  8.307624e-02    5.740288e-04
  8.337518e-02    5.693978e-04
  8.367411e-02    5.605646e-04
  8.397304e-02    5.602263e-04
  8.427197e-02    5.658118e-04
  8.457090e-02    5.681314e-04
  8.486983e-02    5.666377e-04
  8.516876e-02    5.566493e-04
  8.546769e-02    5.592609e-04
  8.576662e-02    5.683610e-04
  8.606555e-02    5.605764e-04
  8.636448e-02    5.559488e-04
  8.666341e-02    5.592112e-04
  8.696234e-02    5.621121e-04
  8.726127e-02    5.607353e-04
  8.756020e-02    5.577732e-04
  8.785913e-02    5.536549e-04
  8.815806e-02    5.526613e-04
  8.845699e-02    5.517554e-04
  8.875592e-02    5.503534e-04
  8.905485e-02    5.497157e-04
  8.935378e-02    5.528766e-04
  8.965271e-02    5.529631e-04
  8.995164e-02    5.492454e-04
  9.025057e-02    5.532965e-04
  9.054950e-02    5.510515e-04
  9.084843e-02    5.456650e-04
  9.114737e-02    5.470460e-04
  9.144630e-02    5.339509e-04
  9.174523e-02    5.338332e-04
  9.204416e-02    5.360061e-04
  9.234309e-02    5.303328e-04
  9.264202e-02    5.312036e-04
  9.294095e-02    5.361419e-04
  9.323988e-02    5.425071e-04
  9.353881e-02    5.351961e-04
  9.383774e-02    5.346767e-04
  9.413667e-02    5.307189e-04
  9.443560e-02    5.240731e-04
  9.473453e-02    5.264218e-04
  9.503346e-02    5.327507e-04
  9.533239e-02    5.328720e-04
  9.563132e-02    5.410122e-04
  9.593025e-02    5.297432e-04
  9.622918e-02    5.229565e-04
  9.652811e-02    5.230635e-04
  9.682704e-02    5.245954e-04
  9.712597e-02    5.254550e-04
  9.742490e-02    5.228801e-04
  9.772383e-02    5.110318e-04
  9.802276e-02    5.093659e-04
  9.832169e-02    5.216912e-04
  9.862062e-02    5.207122e-04
  9.891956e-02    5.177236e-04
  9.921849e-02    5.180731e-04
  9.951742e-02    5.184941e-04
  9.981635e-02    5.094010e-04
  1.001153e-01    5.105600e-04
  1.004142e-01    5.143532e-04
  1.007131e-01    5.111187e-04
  1.010121e-01    5.106144e-04
  1.013110e-01    5.084181e-04
  1.016099e-01    5.091246e-04
  1.019089e-01    5.090963e-04
  1.022078e-01    5.043601e-04
  1.025067e-01    5.054921e-04
  1.028057e-01    5.100463e-04
  1.031046e-01    5.056884e-04
  1.034035e-01    5.003563e-04
  1.037024e-01    5.055603e-04
  1.040014e-01    5.046991e-04
  1.043003e-01    4.975339e-04
  1.045992e-01    4.961886e-04
  1.048982e-01    4.949769e-04
  1.051971e-01    4.909963e-04
  1.054960e-01    4.930423e-04
  1.057950e-01    4.895262e-04
  1.060939e-01    4.930536e-04
  1.063928e-01    4.864600e-04
  1.066917e-01    4.810113e-04
  1.069907e-01    4.843403e-04
  1.072896e-01    4.941545e-04
  1.075885e-01    5.040363e-04
  1.078875e-01    4.969303e-04
  1.081864e-01    4.878152e-04
  1.084853e-01    4.832179e-04
  1.087843e-01    4.797317e-04
  1.090832e-01    4.811381e-04
  1.093821e-01    4.759844e-04
  1.096810e-01    4.742900e-04
  1.099800e-01    4.822689e-04
  1.102789e-01    4.827019e-04
  1.105778e-01    4.866118e-04
  1.108768e-01    4.846666e-04
  1.111757e-01    4.726576e-04
  1.114746e-01    4.845516e-04
  1.117736e-01    4.844159e-04
  1.120725e-01    4.722821e-04
  1.123714e-01    4.694844e-04
  1.126704e-01    4.698048e-04
  1.129693e-01    4.601131e-04
  1.132682e-01    4.585299e-04
  1.135671e-01    4.660373e-04
  1.138661e-01    4.776652e-04
  1.141650e-01    4.777178e-04
  1.144639e-01    4.677137e-04
  1.147629e-01    4.539280e-04
  1.150618e-01    4.574076e-04
  1.153607e-01    4.651347e-04
  1.156597e-01    4.698992e-04
  1.159586e-01    4.625408e-04
  1.162575e-01    4.602369e-04
  1.165564e-01    4.558879e-04
  1.168554e-01    4.500492e-04
  1.171543e-01    4.564129e-04
  1.174532e-01    4.549949e-04
  1.177522e-01    4.500037e-04
  1.180511e-01    4.533630e-04
  1.183500e-01    4.384984e-04
  1.186490e-01    4.327858e-04
  1.189479e-01    4.398764e-04
  1.192468e-01    4.741462e-04
  1.195458e-01    4.617643e-04
  1.198447e-01    4.331535e-04
  1.201436e-01    4.267507e-04
  1.204425e-01    4.280673e-04
  1.207415e-01    4.379763e-04
  1.210404e-01    4.039867e-04
  1.213393e-01    0.000000e+00
  1.216383e-01    0.000000e+00
  1.219372e-01    0.000000e+00
  1.222361e-01    0.000000e+00
  1.225351e-01    0.000000e+00
  1.228340e-01    0.000000e+00
  1.231329e-01    0.000000e+00
  1.234318e-01    0.000000e+00
  1.237308e-01    0.000000e+00
  1.240297e-01    0.000000e+00
  1.243286e-01    0.000000e+00
  1.246276e-01    0.000000e+00
  1.249265e-01    0.000000e+00
  1.252254e-01    0.000000e+00
  1.255244e-01    0.000000e+00
  1.258233e-01    0.000000e+00
  1.261222e-01    0.000000e+00
  1.264212e-01    0.000000e+00
  1.267201e-01    0.000000e+00
  1.270190e-01    0.000000e+00
  1.273179e-01    0.000000e+00
  1.276169e-01    0.000000e+00
  1.279158e-01    0.000000e+00
  1.282147e-01    0.000000e+00
  1.285137e-01    0.000000e+00
  1.288126e-01    0.000000e+00
  1.291115e-01    0.000000e+00
  1.294105e-01    0.000000e+00
  1.297094e-01    0.000000e+00
  1.300083e-01    0.000000e+00
  1.303072e-01    0.000000e+00
  1.306062e-01    0.000000e+00
  1.309051e-01    0.000000e+00
  1.312040e-01    0.000000e+00
  1.315030e-01    0.000000e+00
  1.318019e-01    0.000000e+00
  1.321008e-01    0.000000e+00
  1.323998e-01    0.000000e+00
  1.326987e-01    0.000000e+00
  1.329976e-01    0.000000e+00
  1.332965e-01    0.000000e+00
  1.335955e-01    0.000000e+00
  1.338944e-01    0.000000e+00
  1.341933e-01    0.000000e+00
  1.344923e-01    0.000000e+00
  1.347912e-01    0.000000e+00
  1.350901e-01    0.000000e+00
  1.353891e-01    0.000000e+00
  1.356880e-01    0.000000e+00
  1.359869e-01    0.000000e+00
  1.362859e-01    0.000000e+00
  1.365848e-01    0.000000e+00
  1.368837e-01    0.000000e+00
  1.371826e-01    0.000000e+00
  1.374816e-01    0.000000e+00
  1.377805e-01    0.000000e+00
  1.380794e-01    0.000000e+00
  1.383784e-01    0.000000e+00
  1.386773e-01    0.000000e+00
  1.389762e-01    0.000000e+00
  1.392752e-01    0.000000e+00
  1.395741e-01    0.000000e+00
  1.398730e-01    0.000000e+00
  1.401719e-01    0.000000e+00
  1.404709e-01    0.000000e+00
  1.407698e-01    0.000000e+00
  1.410687e-01    0.000000e+00
  1.413677e-01    0.000000e+00
  1.416666e-01    0.000000e+00
  1.419655e-01    0.000000e+00
  1.422645e-01    0.000000e+00
  1.425634e-01    0.000000e+00
  1.428623e-01    0.000000e+00
  1.431613e-01    0.000000e+00
  1.434602e-01    0.000000e+00
  1.437591e-01    0.000000e+00
  1.440580e-01    0.000000e+00
  1.443570e-01    0.000000e+00
  1.446559e-01    0.000000e+00
  1.449548e-01    0.000000e+00
  1.452538e-01    0.000000e+00
  1.455527e-01    0.000000e+00
  1.458516e-01    0.000000e+00
  1.461506e-01    0.000000e+00
  1.464495e-01    0.000000e+00
  1.467484e-01    0.000000e+00
  1.470473e-01    0.000000e+00
  1.473463e-01    0.000000e+00
  1.476452e-01    0.000000e+00
  1.479441e-01    0.000000e+00
  1.482431e-01    0.000000e+00
  1.485420e-01    0.000000e+00
  1.488409e-01    0.000000e+00
  1.491399e-01    0.000000e+00
  1.494388e-01    0.000000e+00
  1.497377e-01    0.000000e+00
  1.500367e-01    0.000000e+00
  1.503356e-01    0.000000e+00
  1.506345e-01    0.000000e+00
  1.509334e-01    0.000000e+00
  1.512324e-01    0.000000e+00
  1.515313e-01    0.000000e+00
  1.518302e-01    0.000000e+00
  1.521292e-01    0.000000e+00
  1.524281e-01    0.000000e+00
  1.527270e-01    0.000000e+00
  1.530260e-01    0.000000e+00
  1.533249e-01    0.000000e+00
  1.536238e-01    0.000000e+00
