# == pyFAI calibration ==
# Distance Sample to Detector: 2.266 m
# PONI: 5.659e-02, 4.293e-02 m
# Rotations: 0.000000 0.000000 0.000000 rad
# 
# == Fit2d calibration ==
# Distance Sample-beamCenter: 2266.000 mm
# Center: x=249.594, y=329.012 pix
# Tilt: 0.000 deg  TiltPlanRot: 0.000 deg
# 
# Detector Pilatus 300k	 PixelSize= 1.720e-04, 1.720e-04 m
#    Detector has a mask: True 
#    Detector has a dark current: False 
#    detector has a flat field: False 
# 
# Wavelength: 1.27818e-10 m
# Mask applied: user provided
# Dark current applied: False
# Flat field applied: False
# Polarization factor: None
# Normalization factor: 12702283.6
# --> MT-AL_F127_220226_9c5cac4b-ccee-4540-814d-c525b378021d_2_r1d.csv
#        q_A^-1             I 
  4.457554e-03    1.996000e-03
  4.756484e-03    1.579296e-03
  5.055415e-03    1.128719e-03
  5.354345e-03    7.963204e-04
  5.653276e-03    6.202242e-04
  5.952206e-03    1.011547e-03
  6.251136e-03    9.269401e-04
  6.550067e-03    8.063006e-04
  6.848997e-03    6.846028e-04
  7.147927e-03    5.790452e-04
  7.446858e-03    4.943071e-04
  7.745788e-03    4.240608e-04
  8.044719e-03    3.659988e-04
  8.343649e-03    3.193683e-04
  8.642579e-03    2.790351e-04
  8.941510e-03    2.458528e-04
  9.240440e-03    2.173859e-04
  9.539371e-03    1.928860e-04
  9.838301e-03    1.717805e-04
  1.013723e-02    1.538892e-04
  1.043616e-02    1.383100e-04
  1.073509e-02    1.240175e-04
  1.103402e-02    1.120913e-04
  1.133295e-02    1.017459e-04
  1.163188e-02    9.245739e-05
  1.193081e-02    8.450860e-05
  1.222974e-02    7.744708e-05
  1.252867e-02    7.120283e-05
  1.282760e-02    6.556112e-05
  1.312654e-02    6.033152e-05
  1.342547e-02    5.593888e-05
  1.372440e-02    5.175603e-05
  1.402333e-02    4.804369e-05
  1.432226e-02    4.452806e-05
  1.462119e-02    4.139415e-05
  1.492012e-02    3.879524e-05
  1.521905e-02    3.619280e-05
  1.551798e-02    3.398169e-05
  1.581691e-02    3.198288e-05
  1.611584e-02    2.985864e-05
  1.641477e-02    2.821183e-05
  1.671370e-02    2.671909e-05
  1.701263e-02    2.532700e-05
  1.731156e-02    2.404138e-05
  1.761049e-02    2.268547e-05
  1.790942e-02    2.157516e-05
  1.820835e-02    2.053774e-05
  1.850728e-02    1.961753e-05
  1.880621e-02    1.878223e-05
  1.910514e-02    1.794194e-05
  1.940407e-02    1.714395e-05
  1.970300e-02    1.648008e-05
  2.000193e-02    1.587461e-05
  2.030086e-02    1.523200e-05
  2.059979e-02    1.459701e-05
  2.089873e-02    1.405732e-05
  2.119766e-02    1.360607e-05
  2.149659e-02    1.314621e-05
  2.179552e-02    1.271555e-05
  2.209445e-02    1.228455e-05
  2.239338e-02    1.190760e-05
  2.269231e-02    1.161446e-05
  2.299124e-02    1.129386e-05
  2.329017e-02    1.099079e-05
  2.358910e-02    1.065763e-05
  2.388803e-02    1.038646e-05
  2.418696e-02    1.017717e-05
  2.448589e-02    9.921909e-06
  2.478482e-02    9.652852e-06
  2.508375e-02    9.462103e-06
  2.538268e-02    9.326476e-06
  2.568161e-02    9.185368e-06
  2.598054e-02    8.946477e-06
  2.627947e-02    8.788457e-06
  2.657840e-02    8.676404e-06
  2.687733e-02    8.544175e-06
  2.717626e-02    8.426653e-06
  2.747519e-02    8.323724e-06
  2.777412e-02    8.208777e-06
  2.807305e-02    8.072954e-06
  2.837198e-02    7.931323e-06
  2.867092e-02    7.838848e-06
  2.896985e-02    7.721717e-06
  2.926878e-02    7.644577e-06
  2.956771e-02    7.523960e-06
  2.986664e-02    7.442312e-06
  3.016557e-02    7.354411e-06
  3.046450e-02    7.290253e-06
  3.076343e-02    7.229505e-06
  3.106236e-02    7.082825e-06
  3.136129e-02    7.021304e-06
  3.166022e-02    7.014222e-06
  3.195915e-02    6.952136e-06
  3.225808e-02    6.903747e-06
  3.255701e-02    6.823861e-06
  3.285594e-02    6.724257e-06
  3.315487e-02    6.621855e-06
  3.345380e-02    6.543442e-06
  3.375273e-02    6.511930e-06
  3.405166e-02    6.450014e-06
  3.435059e-02    6.393694e-06
  3.464952e-02    6.340991e-06
  3.494845e-02    6.254393e-06
  3.524738e-02    6.173064e-06
  3.554631e-02    6.160207e-06
  3.584524e-02    6.106500e-06
  3.614417e-02    6.015639e-06
  3.644310e-02    5.966693e-06
  3.674204e-02    5.903023e-06
  3.704097e-02    5.875814e-06
  3.733990e-02    5.870567e-06
  3.763883e-02    5.820499e-06
  3.793776e-02    5.728956e-06
  3.823669e-02    5.713940e-06
  3.853562e-02    5.701572e-06
  3.883455e-02    5.648400e-06
  3.913348e-02    5.643666e-06
  3.943241e-02    5.600998e-06
  3.973134e-02    5.546138e-06
  4.003027e-02    5.506784e-06
  4.032920e-02    5.482847e-06
  4.062813e-02    5.458675e-06
  4.092706e-02    5.426522e-06
  4.122599e-02    5.417609e-06
  4.152492e-02    5.405437e-06
  4.182385e-02    5.356771e-06
  4.212278e-02    5.370218e-06
  4.242171e-02    5.343571e-06
  4.272064e-02    5.325811e-06
  4.301957e-02    5.290856e-06
  4.331850e-02    5.270341e-06
  4.361743e-02    5.252279e-06
  4.391636e-02    5.242280e-06
  4.421529e-02    5.242203e-06
  4.451423e-02    5.190815e-06
  4.481316e-02    5.204060e-06
  4.511209e-02    5.205296e-06
  4.541102e-02    5.164909e-06
  4.570995e-02    5.184130e-06
  4.600888e-02    5.169030e-06
  4.630781e-02    5.161083e-06
  4.660674e-02    5.165900e-06
  4.690567e-02    5.161859e-06
  4.720460e-02    5.179819e-06
  4.750353e-02    5.169096e-06
  4.780246e-02    5.172662e-06
  4.810139e-02    5.156917e-06
  4.840032e-02    5.131686e-06
  4.869925e-02    5.133194e-06
  4.899818e-02    5.154478e-06
  4.929711e-02    5.136088e-06
  4.959604e-02    5.145418e-06
  4.989497e-02    5.138809e-06
  5.019390e-02    5.164757e-06
  5.049283e-02    5.144183e-06
  5.079176e-02    5.129226e-06
  5.109069e-02    5.152602e-06
  5.138962e-02    5.191396e-06
  5.168855e-02    5.261764e-06
  5.198748e-02    5.333337e-06
  5.228642e-02    5.304578e-06
  5.258535e-02    5.190422e-06
  5.288428e-02    5.124426e-06
  5.318321e-02    5.107928e-06
  5.348214e-02    5.149947e-06
  5.378107e-02    5.150618e-06
  5.408000e-02    5.127674e-06
  5.437893e-02    5.088628e-06
  5.467786e-02    5.102712e-06
  5.497679e-02    5.136981e-06
  5.527572e-02    5.142227e-06
  5.557465e-02    5.145314e-06
  5.587358e-02    5.150332e-06
  5.617251e-02    5.153698e-06
  5.647144e-02    5.147823e-06
  5.677037e-02    5.164311e-06
  5.706930e-02    5.152678e-06
  5.736823e-02    5.139422e-06
  5.766716e-02    5.130462e-06
  5.796609e-02    5.139534e-06
  5.826502e-02    5.144161e-06
  5.856395e-02    5.123145e-06
  5.886288e-02    5.116128e-06
  5.916181e-02    5.181099e-06
  5.946074e-02    5.210179e-06
  5.975967e-02    5.218707e-06
  6.005861e-02    5.232158e-06
  6.035754e-02    5.223570e-06
  6.065647e-02    5.233849e-06
  6.095540e-02    5.284359e-06
  6.125433e-02    5.355639e-06
  6.155326e-02    5.353289e-06
  6.185219e-02    5.302516e-06
  6.215112e-02    5.293761e-06
  6.245005e-02    5.278194e-06
  6.274898e-02    5.256533e-06
  6.304791e-02    5.275323e-06
  6.334684e-02    5.286034e-06
  6.364577e-02    5.310951e-06
  6.394470e-02    5.328842e-06
  6.424363e-02    5.306568e-06
  6.454256e-02    5.288273e-06
  6.484149e-02    5.294060e-06
  6.514042e-02    5.299666e-06
  6.543935e-02    5.328976e-06
  6.573828e-02    5.325202e-06
  6.603721e-02    5.340220e-06
  6.633614e-02    5.392715e-06
  6.663507e-02    5.400293e-06
  6.693400e-02    5.397813e-06
  6.723293e-02    5.389653e-06
  6.753186e-02    5.398200e-06
  6.783080e-02    5.412071e-06
  6.812973e-02    5.432051e-06
  6.842866e-02    5.425001e-06
  6.872759e-02    5.433523e-06
  6.902652e-02    5.453180e-06
  6.932545e-02    5.446519e-06
  6.962438e-02    5.479777e-06
  6.992331e-02    5.480397e-06
  7.022224e-02    5.505407e-06
  7.052117e-02    5.513639e-06
  7.082010e-02    5.498165e-06
  7.111903e-02    5.497670e-06
  7.141796e-02    5.510006e-06
  7.171689e-02    5.504353e-06
  7.201582e-02    5.515300e-06
  7.231475e-02    5.517320e-06
  7.261368e-02    5.520605e-06
  7.291261e-02    5.519373e-06
  7.321154e-02    5.532867e-06
  7.351047e-02    5.530132e-06
  7.380940e-02    5.540712e-06
  7.410833e-02    5.542716e-06
  7.440726e-02    5.544991e-06
  7.470619e-02    5.568982e-06
  7.500512e-02    5.581675e-06
  7.530405e-02    5.554950e-06
  7.560299e-02    5.537005e-06
  7.590192e-02    5.552046e-06
  7.620085e-02    5.576456e-06
  7.649978e-02    5.604759e-06
  7.679871e-02    5.566581e-06
  7.709764e-02    5.531398e-06
  7.739657e-02    5.546621e-06
  7.769550e-02    5.544819e-06
  7.799443e-02    5.530419e-06
  7.829336e-02    5.523481e-06
  7.859229e-02    5.524812e-06
  7.889122e-02    5.537115e-06
  7.919015e-02    5.531066e-06
  7.948908e-02    5.538190e-06
  7.978801e-02    5.553128e-06
  8.008694e-02    5.546172e-06
  8.038587e-02    5.547404e-06
  8.068480e-02    5.562959e-06
  8.098373e-02    5.538504e-06
  8.128266e-02    5.509845e-06
  8.158159e-02    5.530395e-06
  8.188052e-02    5.545285e-06
  8.217945e-02    5.555351e-06
  8.247838e-02    5.536370e-06
  8.277731e-02    5.518724e-06
  8.307624e-02    5.516617e-06
  8.337518e-02    5.482412e-06
  8.367411e-02    5.494643e-06
  8.397304e-02    5.487359e-06
  8.427197e-02    5.461323e-06
  8.457090e-02    5.442284e-06
  8.486983e-02    5.460691e-06
  8.516876e-02    5.430917e-06
  8.546769e-02    5.446363e-06
  8.576662e-02    5.439071e-06
  8.606555e-02    5.416117e-06
  8.636448e-02    5.411485e-06
  8.666341e-02    5.421195e-06
  8.696234e-02    5.410015e-06
  8.726127e-02    5.411066e-06
  8.756020e-02    5.414511e-06
  8.785913e-02    5.385934e-06
  8.815806e-02    5.342273e-06
  8.845699e-02    5.336179e-06
  8.875592e-02    5.353382e-06
  8.905485e-02    5.356387e-06
  8.935378e-02    5.331113e-06
  8.965271e-02    5.298809e-06
  8.995164e-02    5.278512e-06
  9.025057e-02    5.256823e-06
  9.054950e-02    5.292668e-06
  9.084843e-02    5.276928e-06
  9.114737e-02    5.258216e-06
  9.144630e-02    5.248331e-06
  9.174523e-02    5.251413e-06
  9.204416e-02    5.235584e-06
  9.234309e-02    5.224307e-06
  9.264202e-02    5.199550e-06
  9.294095e-02    5.181250e-06
  9.323988e-02    5.185324e-06
  9.353881e-02    5.174235e-06
  9.383774e-02    5.189672e-06
  9.413667e-02    5.187173e-06
  9.443560e-02    5.162206e-06
  9.473453e-02    5.141286e-06
  9.503346e-02    5.116812e-06
  9.533239e-02    5.135669e-06
  9.563132e-02    5.150271e-06
  9.593025e-02    5.165191e-06
  9.622918e-02    5.156637e-06
  9.652811e-02    5.171485e-06
  9.682704e-02    5.178831e-06
  9.712597e-02    5.158972e-06
  9.742490e-02    5.112991e-06
  9.772383e-02    5.074528e-06
  9.802276e-02    5.066893e-06
  9.832169e-02    5.068225e-06
  9.862062e-02    5.014229e-06
  9.891956e-02    5.012022e-06
  9.921849e-02    5.003209e-06
  9.951742e-02    4.991379e-06
  9.981635e-02    4.971392e-06
  1.001153e-01    4.972517e-06
  1.004142e-01    4.990913e-06
  1.007131e-01    4.991027e-06
  1.010121e-01    4.953450e-06
  1.013110e-01    4.927379e-06
  1.016099e-01    4.942099e-06
  1.019089e-01    4.917264e-06
  1.022078e-01    4.909352e-06
  1.025067e-01    4.907687e-06
  1.028057e-01    4.867841e-06
  1.031046e-01    4.859505e-06
  1.034035e-01    4.869250e-06
  1.037024e-01    4.876296e-06
  1.040014e-01    4.881289e-06
  1.043003e-01    4.842298e-06
  1.045992e-01    4.808336e-06
  1.048982e-01    4.806772e-06
  1.051971e-01    4.831400e-06
  1.054960e-01    4.813871e-06
  1.057950e-01    4.780947e-06
  1.060939e-01    4.771438e-06
  1.063928e-01    4.772974e-06
  1.066917e-01    4.782364e-06
  1.069907e-01    4.774210e-06
  1.072896e-01    4.766207e-06
  1.075885e-01    4.756002e-06
  1.078875e-01    4.727379e-06
  1.081864e-01    4.719465e-06
  1.084853e-01    4.713454e-06
  1.087843e-01    4.712211e-06
  1.090832e-01    4.722614e-06
  1.093821e-01    4.692257e-06
  1.096810e-01    4.667412e-06
  1.099800e-01    4.664204e-06
  1.102789e-01    4.637700e-06
  1.105778e-01    4.608543e-06
  1.108768e-01    4.596699e-06
  1.111757e-01    4.582957e-06
  1.114746e-01    4.582406e-06
  1.117736e-01    4.588239e-06
  1.120725e-01    4.584937e-06
  1.123714e-01    4.556121e-06
  1.126704e-01    4.550208e-06
  1.129693e-01    4.527698e-06
  1.132682e-01    4.514797e-06
  1.135671e-01    4.523078e-06
  1.138661e-01    4.530616e-06
  1.141650e-01    4.529447e-06
  1.144639e-01    4.503005e-06
  1.147629e-01    4.500050e-06
  1.150618e-01    4.487886e-06
  1.153607e-01    4.442717e-06
  1.156597e-01    4.424888e-06
  1.159586e-01    4.445127e-06
  1.162575e-01    4.450667e-06
  1.165564e-01    4.442080e-06
  1.168554e-01    4.478214e-06
  1.171543e-01    4.480557e-06
  1.174532e-01    4.445793e-06
  1.177522e-01    4.440391e-06
  1.180511e-01    4.454749e-06
  1.183500e-01    4.413107e-06
  1.186490e-01    4.427437e-06
  1.189479e-01    4.421300e-06
  1.192468e-01    4.414915e-06
  1.195458e-01    4.398351e-06
  1.198447e-01    4.394372e-06
  1.201436e-01    4.333609e-06
  1.204425e-01    4.390811e-06
  1.207415e-01    4.302855e-06
  1.210404e-01    3.703474e-06
  1.213393e-01    0.000000e+00
  1.216383e-01    0.000000e+00
  1.219372e-01    0.000000e+00
  1.222361e-01    0.000000e+00
  1.225351e-01    0.000000e+00
  1.228340e-01    0.000000e+00
  1.231329e-01    0.000000e+00
  1.234318e-01    0.000000e+00
  1.237308e-01    0.000000e+00
  1.240297e-01    0.000000e+00
  1.243286e-01    0.000000e+00
  1.246276e-01    0.000000e+00
  1.249265e-01    0.000000e+00
  1.252254e-01    0.000000e+00
  1.255244e-01    0.000000e+00
  1.258233e-01    0.000000e+00
  1.261222e-01    0.000000e+00
  1.264212e-01    0.000000e+00
  1.267201e-01    0.000000e+00
  1.270190e-01    0.000000e+00
  1.273179e-01    0.000000e+00
  1.276169e-01    0.000000e+00
  1.279158e-01    0.000000e+00
  1.282147e-01    0.000000e+00
  1.285137e-01    0.000000e+00
  1.288126e-01    0.000000e+00
  1.291115e-01    0.000000e+00
  1.294105e-01    0.000000e+00
  1.297094e-01    0.000000e+00
  1.300083e-01    0.000000e+00
  1.303072e-01    0.000000e+00
  1.306062e-01    0.000000e+00
  1.309051e-01    0.000000e+00
  1.312040e-01    0.000000e+00
  1.315030e-01    0.000000e+00
  1.318019e-01    0.000000e+00
  1.321008e-01    0.000000e+00
  1.323998e-01    0.000000e+00
  1.326987e-01    0.000000e+00
  1.329976e-01    0.000000e+00
  1.332965e-01    0.000000e+00
  1.335955e-01    0.000000e+00
  1.338944e-01    0.000000e+00
  1.341933e-01    0.000000e+00
  1.344923e-01    0.000000e+00
  1.347912e-01    0.000000e+00
  1.350901e-01    0.000000e+00
  1.353891e-01    0.000000e+00
  1.356880e-01    0.000000e+00
  1.359869e-01    0.000000e+00
  1.362859e-01    0.000000e+00
  1.365848e-01    0.000000e+00
  1.368837e-01    0.000000e+00
  1.371826e-01    0.000000e+00
  1.374816e-01    0.000000e+00
  1.377805e-01    0.000000e+00
  1.380794e-01    0.000000e+00
  1.383784e-01    0.000000e+00
  1.386773e-01    0.000000e+00
  1.389762e-01    0.000000e+00
  1.392752e-01    0.000000e+00
  1.395741e-01    0.000000e+00
  1.398730e-01    0.000000e+00
  1.401719e-01    0.000000e+00
  1.404709e-01    0.000000e+00
  1.407698e-01    0.000000e+00
  1.410687e-01    0.000000e+00
  1.413677e-01    0.000000e+00
  1.416666e-01    0.000000e+00
  1.419655e-01    0.000000e+00
  1.422645e-01    0.000000e+00
  1.425634e-01    0.000000e+00
  1.428623e-01    0.000000e+00
  1.431613e-01    0.000000e+00
  1.434602e-01    0.000000e+00
  1.437591e-01    0.000000e+00
  1.440580e-01    0.000000e+00
  1.443570e-01    0.000000e+00
  1.446559e-01    0.000000e+00
  1.449548e-01    0.000000e+00
  1.452538e-01    0.000000e+00
  1.455527e-01    0.000000e+00
  1.458516e-01    0.000000e+00
  1.461506e-01    0.000000e+00
  1.464495e-01    0.000000e+00
  1.467484e-01    0.000000e+00
  1.470473e-01    0.000000e+00
  1.473463e-01    0.000000e+00
  1.476452e-01    0.000000e+00
  1.479441e-01    0.000000e+00
  1.482431e-01    0.000000e+00
  1.485420e-01    0.000000e+00
  1.488409e-01    0.000000e+00
  1.491399e-01    0.000000e+00
  1.494388e-01    0.000000e+00
  1.497377e-01    0.000000e+00
  1.500367e-01    0.000000e+00
  1.503356e-01    0.000000e+00
  1.506345e-01    0.000000e+00
  1.509334e-01    0.000000e+00
  1.512324e-01    0.000000e+00
  1.515313e-01    0.000000e+00
  1.518302e-01    0.000000e+00
  1.521292e-01    0.000000e+00
  1.524281e-01    0.000000e+00
  1.527270e-01    0.000000e+00
  1.530260e-01    0.000000e+00
  1.533249e-01    0.000000e+00
  1.536238e-01    0.000000e+00
