# == pyFAI calibration ==
# Distance Sample to Detector: 2.266 m
# PONI: 5.659e-02, 4.293e-02 m
# Rotations: 0.000000 0.000000 0.000000 rad
# 
# == Fit2d calibration ==
# Distance Sample-beamCenter: 2266.000 mm
# Center: x=249.594, y=329.012 pix
# Tilt: 0.000 deg  TiltPlanRot: 0.000 deg
# 
# Detector Pilatus 300k	 PixelSize= 1.720e-04, 1.720e-04 m
#    Detector has a mask: True 
#    Detector has a dark current: False 
#    detector has a flat field: False 
# 
# Wavelength: 1.27818e-10 m
# Mask applied: user provided
# Dark current applied: False
# Flat field applied: False
# Polarization factor: None
# Normalization factor: 46136.79
# --> MT-AL_DowExpt1_220227_bf83ef6c-a499-4a04-95d8-958c7a5ee667_0_r1d.csv
#        q_A^-1             I 
  4.457554e-03    3.278815e-02
  4.756484e-03    2.604208e-02
  5.055415e-03    1.872314e-02
  5.354345e-03    1.318916e-02
  5.653276e-03    1.023439e-02
  5.952206e-03    1.610768e-02
  6.251136e-03    1.467567e-02
  6.550067e-03    1.278154e-02
  6.848997e-03    1.097803e-02
  7.147927e-03    9.242204e-03
  7.446858e-03    7.912357e-03
  7.745788e-03    6.805877e-03
  8.044719e-03    5.859383e-03
  8.343649e-03    5.107285e-03
  8.642579e-03    4.449804e-03
  8.941510e-03    3.883487e-03
  9.240440e-03    3.443069e-03
  9.539371e-03    3.056863e-03
  9.838301e-03    2.724890e-03
  1.013723e-02    2.446004e-03
  1.043616e-02    2.196406e-03
  1.073509e-02    1.973188e-03
  1.103402e-02    1.771376e-03
  1.133295e-02    1.621375e-03
  1.163188e-02    1.478753e-03
  1.193081e-02    1.338991e-03
  1.222974e-02    1.229760e-03
  1.252867e-02    1.125613e-03
  1.282760e-02    1.046943e-03
  1.312654e-02    9.601977e-04
  1.342547e-02    8.744884e-04
  1.372440e-02    8.140649e-04
  1.402333e-02    7.549233e-04
  1.432226e-02    7.096295e-04
  1.462119e-02    6.609812e-04
  1.492012e-02    6.142271e-04
  1.521905e-02    5.727886e-04
  1.551798e-02    5.387359e-04
  1.581691e-02    5.015230e-04
  1.611584e-02    4.678699e-04
  1.641477e-02    4.438394e-04
  1.671370e-02    4.199849e-04
  1.701263e-02    3.949195e-04
  1.731156e-02    3.752928e-04
  1.761049e-02    3.566346e-04
  1.790942e-02    3.412635e-04
  1.820835e-02    3.254423e-04
  1.850728e-02    3.021935e-04
  1.880621e-02    2.959956e-04
  1.910514e-02    2.867949e-04
  1.940407e-02    2.685286e-04
  1.970300e-02    2.617127e-04
  2.000193e-02    2.484236e-04
  2.030086e-02    2.366693e-04
  2.059979e-02    2.285696e-04
  2.089873e-02    2.252615e-04
  2.119766e-02    2.152294e-04
  2.149659e-02    2.046469e-04
  2.179552e-02    2.005609e-04
  2.209445e-02    1.964464e-04
  2.239338e-02    1.867902e-04
  2.269231e-02    1.815577e-04
  2.299124e-02    1.778483e-04
  2.329017e-02    1.733813e-04
  2.358910e-02    1.672285e-04
  2.388803e-02    1.633102e-04
  2.418696e-02    1.585222e-04
  2.448589e-02    1.551359e-04
  2.478482e-02    1.485982e-04
  2.508375e-02    1.495526e-04
  2.538268e-02    1.489713e-04
  2.568161e-02    1.461818e-04
  2.598054e-02    1.403589e-04
  2.627947e-02    1.372256e-04
  2.657840e-02    1.394732e-04
  2.687733e-02    1.382124e-04
  2.717626e-02    1.310584e-04
  2.747519e-02    1.293046e-04
  2.777412e-02    1.274574e-04
  2.807305e-02    1.256251e-04
  2.837198e-02    1.249878e-04
  2.867092e-02    1.240204e-04
  2.896985e-02    1.213334e-04
  2.926878e-02    1.197705e-04
  2.956771e-02    1.168805e-04
  2.986664e-02    1.151871e-04
  3.016557e-02    1.139459e-04
  3.046450e-02    1.146480e-04
  3.076343e-02    1.147848e-04
  3.106236e-02    1.146641e-04
  3.136129e-02    1.135005e-04
  3.166022e-02    1.130779e-04
  3.195915e-02    1.093971e-04
  3.225808e-02    1.057729e-04
  3.255701e-02    1.056580e-04
  3.285594e-02    1.040008e-04
  3.315487e-02    1.057107e-04
  3.345380e-02    1.065341e-04
  3.375273e-02    1.028677e-04
  3.405166e-02    9.945912e-05
  3.435059e-02    9.972994e-05
  3.464952e-02    9.773114e-05
  3.494845e-02    9.806728e-05
  3.524738e-02    9.756400e-05
  3.554631e-02    9.739493e-05
  3.584524e-02    9.662237e-05
  3.614417e-02    9.564042e-05
  3.644310e-02    9.216453e-05
  3.674204e-02    9.340211e-05
  3.704097e-02    9.167555e-05
  3.733990e-02    8.872098e-05
  3.763883e-02    8.920135e-05
  3.793776e-02    9.176243e-05
  3.823669e-02    9.077128e-05
  3.853562e-02    8.907123e-05
  3.883455e-02    8.946566e-05
  3.913348e-02    9.073286e-05
  3.943241e-02    8.958799e-05
  3.973134e-02    8.663263e-05
  4.003027e-02    8.695007e-05
  4.032920e-02    8.624123e-05
  4.062813e-02    8.656352e-05
  4.092706e-02    8.540848e-05
  4.122599e-02    8.546797e-05
  4.152492e-02    8.575198e-05
  4.182385e-02    8.722521e-05
  4.212278e-02    8.459656e-05
  4.242171e-02    8.128009e-05
  4.272064e-02    8.178383e-05
  4.301957e-02    8.188062e-05
  4.331850e-02    8.265262e-05
  4.361743e-02    8.221476e-05
  4.391636e-02    8.425572e-05
  4.421529e-02    8.308169e-05
  4.451423e-02    8.245970e-05
  4.481316e-02    8.308937e-05
  4.511209e-02    8.287974e-05
  4.541102e-02    8.293245e-05
  4.570995e-02    8.222884e-05
  4.600888e-02    8.070773e-05
  4.630781e-02    8.198470e-05
  4.660674e-02    8.147441e-05
  4.690567e-02    7.987383e-05
  4.720460e-02    8.050284e-05
  4.750353e-02    8.148126e-05
  4.780246e-02    8.129893e-05
  4.810139e-02    7.909344e-05
  4.840032e-02    7.994213e-05
  4.869925e-02    8.091381e-05
  4.899818e-02    8.032104e-05
  4.929711e-02    7.952579e-05
  4.959604e-02    8.143491e-05
  4.989497e-02    8.183231e-05
  5.019390e-02    8.150028e-05
  5.049283e-02    8.236421e-05
  5.079176e-02    8.212333e-05
  5.109069e-02    7.965384e-05
  5.138962e-02    8.150471e-05
  5.168855e-02    8.440960e-05
  5.198748e-02    8.476801e-05
  5.228642e-02    8.382637e-05
  5.258535e-02    8.153445e-05
  5.288428e-02    8.131843e-05
  5.318321e-02    8.103297e-05
  5.348214e-02    8.094017e-05
  5.378107e-02    8.086485e-05
  5.408000e-02    8.120354e-05
  5.437893e-02    8.239513e-05
  5.467786e-02    8.205308e-05
  5.497679e-02    8.084485e-05
  5.527572e-02    8.211796e-05
  5.557465e-02    8.250911e-05
  5.587358e-02    7.974877e-05
  5.617251e-02    8.025650e-05
  5.647144e-02    8.253361e-05
  5.677037e-02    8.148428e-05
  5.706930e-02    8.230728e-05
  5.736823e-02    8.118461e-05
  5.766716e-02    8.221552e-05
  5.796609e-02    8.397022e-05
  5.826502e-02    8.248577e-05
  5.856395e-02    8.172871e-05
  5.886288e-02    8.131342e-05
  5.916181e-02    8.225752e-05
  5.946074e-02    8.178686e-05
  5.975967e-02    8.098520e-05
  6.005861e-02    8.179499e-05
  6.035754e-02    8.131284e-05
  6.065647e-02    8.189609e-05
  6.095540e-02    8.296956e-05
  6.125433e-02    8.427960e-05
  6.155326e-02    8.431150e-05
  6.185219e-02    8.375994e-05
  6.215112e-02    8.394448e-05
  6.245005e-02    8.448985e-05
  6.274898e-02    8.373604e-05
  6.304791e-02    8.353857e-05
  6.334684e-02    8.380470e-05
  6.364577e-02    8.388962e-05
  6.394470e-02    8.420259e-05
  6.424363e-02    8.321387e-05
  6.454256e-02    8.360972e-05
  6.484149e-02    8.429390e-05
  6.514042e-02    8.504169e-05
  6.543935e-02    8.368820e-05
  6.573828e-02    8.317005e-05
  6.603721e-02    8.535988e-05
  6.633614e-02    8.643500e-05
  6.663507e-02    8.465607e-05
  6.693400e-02    8.590571e-05
  6.723293e-02    8.593545e-05
  6.753186e-02    8.432342e-05
  6.783080e-02    8.446578e-05
  6.812973e-02    8.427749e-05
  6.842866e-02    8.522621e-05
  6.872759e-02    8.489171e-05
  6.902652e-02    8.563019e-05
  6.932545e-02    8.614697e-05
  6.962438e-02    8.493898e-05
  6.992331e-02    8.415533e-05
  7.022224e-02    8.567482e-05
  7.052117e-02    8.727399e-05
  7.082010e-02    8.774111e-05
  7.111903e-02    8.525508e-05
  7.141796e-02    8.408289e-05
  7.171689e-02    8.423626e-05
  7.201582e-02    8.615955e-05
  7.231475e-02    8.524143e-05
  7.261368e-02    8.631124e-05
  7.291261e-02    8.631113e-05
  7.321154e-02    8.596858e-05
  7.351047e-02    8.514507e-05
  7.380940e-02    8.589276e-05
  7.410833e-02    8.591372e-05
  7.440726e-02    8.622221e-05
  7.470619e-02    8.601172e-05
  7.500512e-02    8.572251e-05
  7.530405e-02    8.515683e-05
  7.560299e-02    8.612952e-05
  7.590192e-02    8.578839e-05
  7.620085e-02    8.596016e-05
  7.649978e-02    8.533066e-05
  7.679871e-02    8.557109e-05
  7.709764e-02    8.770454e-05
  7.739657e-02    8.776298e-05
  7.769550e-02    8.648656e-05
  7.799443e-02    8.543399e-05
  7.829336e-02    8.657587e-05
  7.859229e-02    8.618727e-05
  7.889122e-02    8.676852e-05
  7.919015e-02    8.661857e-05
  7.948908e-02    8.577001e-05
  7.978801e-02    8.591128e-05
  8.008694e-02    8.611508e-05
  8.038587e-02    8.697748e-05
  8.068480e-02    8.727759e-05
  8.098373e-02    8.705552e-05
  8.128266e-02    8.639652e-05
  8.158159e-02    8.645812e-05
  8.188052e-02    8.387245e-05
  8.217945e-02    8.301871e-05
  8.247838e-02    8.364478e-05
  8.277731e-02    8.401264e-05
  8.307624e-02    8.533384e-05
  8.337518e-02    8.663849e-05
  8.367411e-02    8.414412e-05
  8.397304e-02    8.303265e-05
  8.427197e-02    8.305485e-05
  8.457090e-02    8.293977e-05
  8.486983e-02    8.215797e-05
  8.516876e-02    8.480370e-05
  8.546769e-02    8.484030e-05
  8.576662e-02    8.213866e-05
  8.606555e-02    8.346755e-05
  8.636448e-02    8.343690e-05
  8.666341e-02    8.285722e-05
  8.696234e-02    8.228490e-05
  8.726127e-02    8.422323e-05
  8.756020e-02    8.366745e-05
  8.785913e-02    8.272975e-05
  8.815806e-02    8.230923e-05
  8.845699e-02    8.111544e-05
  8.875592e-02    8.182698e-05
  8.905485e-02    8.234964e-05
  8.935378e-02    8.132563e-05
  8.965271e-02    8.096193e-05
  8.995164e-02    8.132294e-05
  9.025057e-02    8.103372e-05
  9.054950e-02    7.989873e-05
  9.084843e-02    7.988374e-05
  9.114737e-02    8.072386e-05
  9.144630e-02    8.137950e-05
  9.174523e-02    8.169808e-05
  9.204416e-02    8.260943e-05
  9.234309e-02    8.029675e-05
  9.264202e-02    7.914546e-05
  9.294095e-02    7.994152e-05
  9.323988e-02    7.968282e-05
  9.353881e-02    8.055694e-05
  9.383774e-02    8.049391e-05
  9.413667e-02    7.981806e-05
  9.443560e-02    7.868657e-05
  9.473453e-02    7.707984e-05
  9.503346e-02    7.884882e-05
  9.533239e-02    7.949056e-05
  9.563132e-02    7.956474e-05
  9.593025e-02    7.952866e-05
  9.622918e-02    7.994381e-05
  9.652811e-02    7.918165e-05
  9.682704e-02    7.925458e-05
  9.712597e-02    7.965037e-05
  9.742490e-02    7.878101e-05
  9.772383e-02    7.805807e-05
  9.802276e-02    7.641214e-05
  9.832169e-02    7.517536e-05
  9.862062e-02    7.565878e-05
  9.891956e-02    7.738264e-05
  9.921849e-02    7.676503e-05
  9.951742e-02    7.601485e-05
  9.981635e-02    7.483266e-05
  1.001153e-01    7.565805e-05
  1.004142e-01    7.679664e-05
  1.007131e-01    7.722568e-05
  1.010121e-01    7.651735e-05
  1.013110e-01    7.494204e-05
  1.016099e-01    7.490157e-05
  1.019089e-01    7.628524e-05
  1.022078e-01    7.602564e-05
  1.025067e-01    7.616168e-05
  1.028057e-01    7.675851e-05
  1.031046e-01    7.605780e-05
  1.034035e-01    7.538599e-05
  1.037024e-01    7.289647e-05
  1.040014e-01    7.244262e-05
  1.043003e-01    7.416419e-05
  1.045992e-01    7.408254e-05
  1.048982e-01    7.337858e-05
  1.051971e-01    7.341358e-05
  1.054960e-01    7.270880e-05
  1.057950e-01    7.359985e-05
  1.060939e-01    7.332301e-05
  1.063928e-01    7.318104e-05
  1.066917e-01    7.427490e-05
  1.069907e-01    7.450740e-05
  1.072896e-01    7.370808e-05
  1.075885e-01    7.279277e-05
  1.078875e-01    7.301591e-05
  1.081864e-01    7.443670e-05
  1.084853e-01    7.418016e-05
  1.087843e-01    7.480720e-05
  1.090832e-01    7.223467e-05
  1.093821e-01    7.127011e-05
  1.096810e-01    7.193718e-05
  1.099800e-01    7.173006e-05
  1.102789e-01    7.086684e-05
  1.105778e-01    7.284243e-05
  1.108768e-01    7.107197e-05
  1.111757e-01    6.975485e-05
  1.114746e-01    6.967615e-05
  1.117736e-01    6.896861e-05
  1.120725e-01    6.895654e-05
  1.123714e-01    6.880699e-05
  1.126704e-01    6.913497e-05
  1.129693e-01    6.878383e-05
  1.132682e-01    6.847230e-05
  1.135671e-01    7.009578e-05
  1.138661e-01    7.038816e-05
  1.141650e-01    6.812800e-05
  1.144639e-01    6.721351e-05
  1.147629e-01    6.650316e-05
  1.150618e-01    6.764202e-05
  1.153607e-01    6.837068e-05
  1.156597e-01    6.958509e-05
  1.159586e-01    6.768259e-05
  1.162575e-01    6.697200e-05
  1.165564e-01    6.972405e-05
  1.168554e-01    6.804083e-05
  1.171543e-01    6.669469e-05
  1.174532e-01    6.788492e-05
  1.177522e-01    6.845334e-05
  1.180511e-01    6.593818e-05
  1.183500e-01    6.690310e-05
  1.186490e-01    7.232549e-05
  1.189479e-01    7.345675e-05
  1.192468e-01    7.184996e-05
  1.195458e-01    7.201856e-05
  1.198447e-01    7.126053e-05
  1.201436e-01    7.419175e-05
  1.204425e-01    7.845063e-05
  1.207415e-01    8.232181e-05
  1.210404e-01    4.338862e-05
  1.213393e-01    0.000000e+00
  1.216383e-01    0.000000e+00
  1.219372e-01    0.000000e+00
  1.222361e-01    0.000000e+00
  1.225351e-01    0.000000e+00
  1.228340e-01    0.000000e+00
  1.231329e-01    0.000000e+00
  1.234318e-01    0.000000e+00
  1.237308e-01    0.000000e+00
  1.240297e-01    0.000000e+00
  1.243286e-01    0.000000e+00
  1.246276e-01    0.000000e+00
  1.249265e-01    0.000000e+00
  1.252254e-01    0.000000e+00
  1.255244e-01    0.000000e+00
  1.258233e-01    0.000000e+00
  1.261222e-01    0.000000e+00
  1.264212e-01    0.000000e+00
  1.267201e-01    0.000000e+00
  1.270190e-01    0.000000e+00
  1.273179e-01    0.000000e+00
  1.276169e-01    0.000000e+00
  1.279158e-01    0.000000e+00
  1.282147e-01    0.000000e+00
  1.285137e-01    0.000000e+00
  1.288126e-01    0.000000e+00
  1.291115e-01    0.000000e+00
  1.294105e-01    0.000000e+00
  1.297094e-01    0.000000e+00
  1.300083e-01    0.000000e+00
  1.303072e-01    0.000000e+00
  1.306062e-01    0.000000e+00
  1.309051e-01    0.000000e+00
  1.312040e-01    0.000000e+00
  1.315030e-01    0.000000e+00
  1.318019e-01    0.000000e+00
  1.321008e-01    0.000000e+00
  1.323998e-01    0.000000e+00
  1.326987e-01    0.000000e+00
  1.329976e-01    0.000000e+00
  1.332965e-01    0.000000e+00
  1.335955e-01    0.000000e+00
  1.338944e-01    0.000000e+00
  1.341933e-01    0.000000e+00
  1.344923e-01    0.000000e+00
  1.347912e-01    0.000000e+00
  1.350901e-01    0.000000e+00
  1.353891e-01    0.000000e+00
  1.356880e-01    0.000000e+00
  1.359869e-01    0.000000e+00
  1.362859e-01    0.000000e+00
  1.365848e-01    0.000000e+00
  1.368837e-01    0.000000e+00
  1.371826e-01    0.000000e+00
  1.374816e-01    0.000000e+00
  1.377805e-01    0.000000e+00
  1.380794e-01    0.000000e+00
  1.383784e-01    0.000000e+00
  1.386773e-01    0.000000e+00
  1.389762e-01    0.000000e+00
  1.392752e-01    0.000000e+00
  1.395741e-01    0.000000e+00
  1.398730e-01    0.000000e+00
  1.401719e-01    0.000000e+00
  1.404709e-01    0.000000e+00
  1.407698e-01    0.000000e+00
  1.410687e-01    0.000000e+00
  1.413677e-01    0.000000e+00
  1.416666e-01    0.000000e+00
  1.419655e-01    0.000000e+00
  1.422645e-01    0.000000e+00
  1.425634e-01    0.000000e+00
  1.428623e-01    0.000000e+00
  1.431613e-01    0.000000e+00
  1.434602e-01    0.000000e+00
  1.437591e-01    0.000000e+00
  1.440580e-01    0.000000e+00
  1.443570e-01    0.000000e+00
  1.446559e-01    0.000000e+00
  1.449548e-01    0.000000e+00
  1.452538e-01    0.000000e+00
  1.455527e-01    0.000000e+00
  1.458516e-01    0.000000e+00
  1.461506e-01    0.000000e+00
  1.464495e-01    0.000000e+00
  1.467484e-01    0.000000e+00
  1.470473e-01    0.000000e+00
  1.473463e-01    0.000000e+00
  1.476452e-01    0.000000e+00
  1.479441e-01    0.000000e+00
  1.482431e-01    0.000000e+00
  1.485420e-01    0.000000e+00
  1.488409e-01    0.000000e+00
  1.491399e-01    0.000000e+00
  1.494388e-01    0.000000e+00
  1.497377e-01    0.000000e+00
  1.500367e-01    0.000000e+00
  1.503356e-01    0.000000e+00
  1.506345e-01    0.000000e+00
  1.509334e-01    0.000000e+00
  1.512324e-01    0.000000e+00
  1.515313e-01    0.000000e+00
  1.518302e-01    0.000000e+00
  1.521292e-01    0.000000e+00
  1.524281e-01    0.000000e+00
  1.527270e-01    0.000000e+00
  1.530260e-01    0.000000e+00
  1.533249e-01    0.000000e+00
  1.536238e-01    0.000000e+00
