# == pyFAI calibration ==
# Distance Sample to Detector: 2.266 m
# PONI: 5.659e-02, 4.293e-02 m
# Rotations: 0.000000 0.000000 0.000000 rad
# 
# == Fit2d calibration ==
# Distance Sample-beamCenter: 2266.000 mm
# Center: x=249.594, y=329.012 pix
# Tilt: 0.000 deg  TiltPlanRot: 0.000 deg
# 
# Detector Pilatus 300k	 PixelSize= 1.720e-04, 1.720e-04 m
#    Detector has a mask: True 
#    Detector has a dark current: False 
#    detector has a flat field: False 
# 
# Wavelength: 1.27818e-10 m
# Mask applied: user provided
# Dark current applied: False
# Flat field applied: False
# Polarization factor: None
# Normalization factor: 9646532.0
# --> MT-AL_F127_220301_dd101086-72da-4bd0-8fc4-fc9f06668594_0_r1d.csv
#        q_A^-1             I 
  4.457554e-03    1.502422e-03
  4.756484e-03    1.166701e-03
  5.055415e-03    8.146811e-04
  5.354345e-03    5.576820e-04
  5.653276e-03    4.185013e-04
  5.952206e-03    6.608284e-04
  6.251136e-03    6.054954e-04
  6.550067e-03    5.283370e-04
  6.848997e-03    4.505978e-04
  7.147927e-03    3.810930e-04
  7.446858e-03    3.254937e-04
  7.745788e-03    2.794287e-04
  8.044719e-03    2.407005e-04
  8.343649e-03    2.098017e-04
  8.642579e-03    1.829489e-04
  8.941510e-03    1.612543e-04
  9.240440e-03    1.431573e-04
  9.539371e-03    1.273762e-04
  9.838301e-03    1.132928e-04
  1.013723e-02    1.014320e-04
  1.043616e-02    9.123469e-05
  1.073509e-02    8.201457e-05
  1.103402e-02    7.419613e-05
  1.133295e-02    6.693467e-05
  1.163188e-02    6.123759e-05
  1.193081e-02    5.605150e-05
  1.222974e-02    5.144954e-05
  1.252867e-02    4.745672e-05
  1.282760e-02    4.357336e-05
  1.312654e-02    4.018050e-05
  1.342547e-02    3.717291e-05
  1.372440e-02    3.444458e-05
  1.402333e-02    3.196576e-05
  1.432226e-02    2.972351e-05
  1.462119e-02    2.776041e-05
  1.492012e-02    2.601157e-05
  1.521905e-02    2.431050e-05
  1.551798e-02    2.288700e-05
  1.581691e-02    2.148443e-05
  1.611584e-02    2.023445e-05
  1.641477e-02    1.911274e-05
  1.671370e-02    1.801023e-05
  1.701263e-02    1.700311e-05
  1.731156e-02    1.616426e-05
  1.761049e-02    1.537152e-05
  1.790942e-02    1.467666e-05
  1.820835e-02    1.407049e-05
  1.850728e-02    1.339638e-05
  1.880621e-02    1.281253e-05
  1.910514e-02    1.218334e-05
  1.940407e-02    1.168399e-05
  1.970300e-02    1.124457e-05
  2.000193e-02    1.080088e-05
  2.030086e-02    1.043577e-05
  2.059979e-02    1.008587e-05
  2.089873e-02    9.728739e-06
  2.119766e-02    9.424500e-06
  2.149659e-02    9.040108e-06
  2.179552e-02    8.829714e-06
  2.209445e-02    8.688924e-06
  2.239338e-02    8.458447e-06
  2.269231e-02    8.166890e-06
  2.299124e-02    7.869450e-06
  2.329017e-02    7.678304e-06
  2.358910e-02    7.537039e-06
  2.388803e-02    7.346267e-06
  2.418696e-02    7.232267e-06
  2.448589e-02    7.067796e-06
  2.478482e-02    6.920080e-06
  2.508375e-02    6.786867e-06
  2.538268e-02    6.652728e-06
  2.568161e-02    6.610748e-06
  2.598054e-02    6.468102e-06
  2.627947e-02    6.341169e-06
  2.657840e-02    6.219070e-06
  2.687733e-02    6.102998e-06
  2.717626e-02    5.996746e-06
  2.747519e-02    5.900870e-06
  2.777412e-02    5.851206e-06
  2.807305e-02    5.800536e-06
  2.837198e-02    5.691345e-06
  2.867092e-02    5.628272e-06
  2.896985e-02    5.602863e-06
  2.926878e-02    5.531074e-06
  2.956771e-02    5.453028e-06
  2.986664e-02    5.413036e-06
  3.016557e-02    5.342411e-06
  3.046450e-02    5.271497e-06
  3.076343e-02    5.244693e-06
  3.106236e-02    5.170689e-06
  3.136129e-02    5.097158e-06
  3.166022e-02    5.074207e-06
  3.195915e-02    5.015015e-06
  3.225808e-02    4.969719e-06
  3.255701e-02    4.953502e-06
  3.285594e-02    4.896278e-06
  3.315487e-02    4.835152e-06
  3.345380e-02    4.753881e-06
  3.375273e-02    4.738427e-06
  3.405166e-02    4.695462e-06
  3.435059e-02    4.657521e-06
  3.464952e-02    4.598429e-06
  3.494845e-02    4.609065e-06
  3.524738e-02    4.542807e-06
  3.554631e-02    4.439428e-06
  3.584524e-02    4.422646e-06
  3.614417e-02    4.374288e-06
  3.644310e-02    4.356603e-06
  3.674204e-02    4.319574e-06
  3.704097e-02    4.266155e-06
  3.733990e-02    4.210741e-06
  3.763883e-02    4.212809e-06
  3.793776e-02    4.207303e-06
  3.823669e-02    4.152470e-06
  3.853562e-02    4.084505e-06
  3.883455e-02    4.059268e-06
  3.913348e-02    4.056067e-06
  3.943241e-02    4.045321e-06
  3.973134e-02    4.035003e-06
  4.003027e-02    4.023275e-06
  4.032920e-02    3.986836e-06
  4.062813e-02    3.981721e-06
  4.092706e-02    3.927711e-06
  4.122599e-02    3.886393e-06
  4.152492e-02    3.903381e-06
  4.182385e-02    3.888926e-06
  4.212278e-02    3.874455e-06
  4.242171e-02    3.835281e-06
  4.272064e-02    3.797496e-06
  4.301957e-02    3.776254e-06
  4.331850e-02    3.803549e-06
  4.361743e-02    3.787353e-06
  4.391636e-02    3.761333e-06
  4.421529e-02    3.755563e-06
  4.451423e-02    3.753068e-06
  4.481316e-02    3.718122e-06
  4.511209e-02    3.692106e-06
  4.541102e-02    3.725655e-06
  4.570995e-02    3.721608e-06
  4.600888e-02    3.708114e-06
  4.630781e-02    3.673925e-06
  4.660674e-02    3.681449e-06
  4.690567e-02    3.729496e-06
  4.720460e-02    3.701557e-06
  4.750353e-02    3.695316e-06
  4.780246e-02    3.698636e-06
  4.810139e-02    3.682530e-06
  4.840032e-02    3.647863e-06
  4.869925e-02    3.672268e-06
  4.899818e-02    3.693219e-06
  4.929711e-02    3.684573e-06
  4.959604e-02    3.674623e-06
  4.989497e-02    3.662086e-06
  5.019390e-02    3.684833e-06
  5.049283e-02    3.717595e-06
  5.079176e-02    3.682795e-06
  5.109069e-02    3.691478e-06
  5.138962e-02    3.724071e-06
  5.168855e-02    3.808394e-06
  5.198748e-02    3.864005e-06
  5.228642e-02    3.814195e-06
  5.258535e-02    3.705423e-06
  5.288428e-02    3.658173e-06
  5.318321e-02    3.639927e-06
  5.348214e-02    3.652099e-06
  5.378107e-02    3.657303e-06
  5.408000e-02    3.653504e-06
  5.437893e-02    3.641451e-06
  5.467786e-02    3.632190e-06
  5.497679e-02    3.638596e-06
  5.527572e-02    3.651432e-06
  5.557465e-02    3.624379e-06
  5.587358e-02    3.606552e-06
  5.617251e-02    3.622369e-06
  5.647144e-02    3.642573e-06
  5.677037e-02    3.633955e-06
  5.706930e-02    3.647929e-06
  5.736823e-02    3.655463e-06
  5.766716e-02    3.659561e-06
  5.796609e-02    3.638532e-06
  5.826502e-02    3.636920e-06
  5.856395e-02    3.643122e-06
  5.886288e-02    3.630205e-06
  5.916181e-02    3.627147e-06
  5.946074e-02    3.649928e-06
  5.975967e-02    3.679269e-06
  6.005861e-02    3.651225e-06
  6.035754e-02    3.660321e-06
  6.065647e-02    3.713637e-06
  6.095540e-02    3.758163e-06
  6.125433e-02    3.841529e-06
  6.155326e-02    3.846705e-06
  6.185219e-02    3.769060e-06
  6.215112e-02    3.721929e-06
  6.245005e-02    3.716903e-06
  6.274898e-02    3.710294e-06
  6.304791e-02    3.698366e-06
  6.334684e-02    3.683788e-06
  6.364577e-02    3.722142e-06
  6.394470e-02    3.753489e-06
  6.424363e-02    3.731821e-06
  6.454256e-02    3.733378e-06
  6.484149e-02    3.743971e-06
  6.514042e-02    3.740271e-06
  6.543935e-02    3.735857e-06
  6.573828e-02    3.746274e-06
  6.603721e-02    3.768845e-06
  6.633614e-02    3.789898e-06
  6.663507e-02    3.789531e-06
  6.693400e-02    3.765837e-06
  6.723293e-02    3.773664e-06
  6.753186e-02    3.774151e-06
  6.783080e-02    3.770595e-06
  6.812973e-02    3.786001e-06
  6.842866e-02    3.788422e-06
  6.872759e-02    3.795897e-06
  6.902652e-02    3.822508e-06
  6.932545e-02    3.808099e-06
  6.962438e-02    3.829239e-06
  6.992331e-02    3.865101e-06
  7.022224e-02    3.880426e-06
  7.052117e-02    3.861248e-06
  7.082010e-02    3.831995e-06
  7.111903e-02    3.817563e-06
  7.141796e-02    3.842330e-06
  7.171689e-02    3.833196e-06
  7.201582e-02    3.849538e-06
  7.231475e-02    3.870297e-06
  7.261368e-02    3.861552e-06
  7.291261e-02    3.851696e-06
  7.321154e-02    3.889812e-06
  7.351047e-02    3.919033e-06
  7.380940e-02    3.885336e-06
  7.410833e-02    3.872438e-06
  7.440726e-02    3.894239e-06
  7.470619e-02    3.881850e-06
  7.500512e-02    3.894942e-06
  7.530405e-02    3.901627e-06
  7.560299e-02    3.909175e-06
  7.590192e-02    3.931425e-06
  7.620085e-02    3.885224e-06
  7.649978e-02    3.880944e-06
  7.679871e-02    3.881146e-06
  7.709764e-02    3.863852e-06
  7.739657e-02    3.883847e-06
  7.769550e-02    3.887699e-06
  7.799443e-02    3.901005e-06
  7.829336e-02    3.913758e-06
  7.859229e-02    3.901352e-06
  7.889122e-02    3.873174e-06
  7.919015e-02    3.853150e-06
  7.948908e-02    3.868543e-06
  7.978801e-02    3.870301e-06
  8.008694e-02    3.864127e-06
  8.038587e-02    3.836787e-06
  8.068480e-02    3.851459e-06
  8.098373e-02    3.857073e-06
  8.128266e-02    3.838461e-06
  8.158159e-02    3.843599e-06
  8.188052e-02    3.854878e-06
  8.217945e-02    3.867232e-06
  8.247838e-02    3.836443e-06
  8.277731e-02    3.826894e-06
  8.307624e-02    3.834090e-06
  8.337518e-02    3.814163e-06
  8.367411e-02    3.814754e-06
  8.397304e-02    3.822346e-06
  8.427197e-02    3.799320e-06
  8.457090e-02    3.757253e-06
  8.486983e-02    3.772373e-06
  8.516876e-02    3.788564e-06
  8.546769e-02    3.791052e-06
  8.576662e-02    3.774725e-06
  8.606555e-02    3.770911e-06
  8.636448e-02    3.763460e-06
  8.666341e-02    3.776527e-06
  8.696234e-02    3.767479e-06
  8.726127e-02    3.761550e-06
  8.756020e-02    3.724705e-06
  8.785913e-02    3.702880e-06
  8.815806e-02    3.706349e-06
  8.845699e-02    3.720696e-06
  8.875592e-02    3.723586e-06
  8.905485e-02    3.722237e-06
  8.935378e-02    3.698595e-06
  8.965271e-02    3.671901e-06
  8.995164e-02    3.656031e-06
  9.025057e-02    3.661356e-06
  9.054950e-02    3.651985e-06
  9.084843e-02    3.642280e-06
  9.114737e-02    3.643431e-06
  9.144630e-02    3.639921e-06
  9.174523e-02    3.632050e-06
  9.204416e-02    3.626581e-06
  9.234309e-02    3.615774e-06
  9.264202e-02    3.613088e-06
  9.294095e-02    3.624354e-06
  9.323988e-02    3.610670e-06
  9.353881e-02    3.628327e-06
  9.383774e-02    3.615993e-06
  9.413667e-02    3.579969e-06
  9.443560e-02    3.561339e-06
  9.473453e-02    3.561045e-06
  9.503346e-02    3.565583e-06
  9.533239e-02    3.567311e-06
  9.563132e-02    3.576982e-06
  9.593025e-02    3.571376e-06
  9.622918e-02    3.579774e-06
  9.652811e-02    3.572974e-06
  9.682704e-02    3.588152e-06
  9.712597e-02    3.577592e-06
  9.742490e-02    3.561768e-06
  9.772383e-02    3.554696e-06
  9.802276e-02    3.531127e-06
  9.832169e-02    3.501570e-06
  9.862062e-02    3.488649e-06
  9.891956e-02    3.482703e-06
  9.921849e-02    3.470650e-06
  9.951742e-02    3.453499e-06
  9.981635e-02    3.442401e-06
  1.001153e-01    3.468467e-06
  1.004142e-01    3.473205e-06
  1.007131e-01    3.429585e-06
  1.010121e-01    3.407171e-06
  1.013110e-01    3.417033e-06
  1.016099e-01    3.415413e-06
  1.019089e-01    3.425463e-06
  1.022078e-01    3.426183e-06
  1.025067e-01    3.425292e-06
  1.028057e-01    3.407088e-06
  1.031046e-01    3.404826e-06
  1.034035e-01    3.402226e-06
  1.037024e-01    3.388374e-06
  1.040014e-01    3.359961e-06
  1.043003e-01    3.335933e-06
  1.045992e-01    3.342486e-06
  1.048982e-01    3.362106e-06
  1.051971e-01    3.358539e-06
  1.054960e-01    3.344354e-06
  1.057950e-01    3.340053e-06
  1.060939e-01    3.318248e-06
  1.063928e-01    3.308205e-06
  1.066917e-01    3.311441e-06
  1.069907e-01    3.303389e-06
  1.072896e-01    3.317350e-06
  1.075885e-01    3.316788e-06
  1.078875e-01    3.292008e-06
  1.081864e-01    3.284921e-06
  1.084853e-01    3.271544e-06
  1.087843e-01    3.266529e-06
  1.090832e-01    3.262585e-06
  1.093821e-01    3.234793e-06
  1.096810e-01    3.225018e-06
  1.099800e-01    3.222151e-06
  1.102789e-01    3.233434e-06
  1.105778e-01    3.236674e-06
  1.108768e-01    3.210952e-06
  1.111757e-01    3.186422e-06
  1.114746e-01    3.201874e-06
  1.117736e-01    3.234143e-06
  1.120725e-01    3.212233e-06
  1.123714e-01    3.188760e-06
  1.126704e-01    3.188026e-06
  1.129693e-01    3.166027e-06
  1.132682e-01    3.124540e-06
  1.135671e-01    3.131948e-06
  1.138661e-01    3.161759e-06
  1.141650e-01    3.127114e-06
  1.144639e-01    3.126253e-06
  1.147629e-01    3.120828e-06
  1.150618e-01    3.100439e-06
  1.153607e-01    3.117450e-06
  1.156597e-01    3.096012e-06
  1.159586e-01    3.047793e-06
  1.162575e-01    3.066254e-06
  1.165564e-01    3.091251e-06
  1.168554e-01    3.097713e-06
  1.171543e-01    3.149057e-06
  1.174532e-01    3.102273e-06
  1.177522e-01    3.075745e-06
  1.180511e-01    3.120633e-06
  1.183500e-01    3.121280e-06
  1.186490e-01    3.107062e-06
  1.189479e-01    3.094040e-06
  1.192468e-01    3.073578e-06
  1.195458e-01    3.116742e-06
  1.198447e-01    3.114738e-06
  1.201436e-01    3.041770e-06
  1.204425e-01    3.002350e-06
  1.207415e-01    2.879018e-06
  1.210404e-01    3.320259e-06
  1.213393e-01    0.000000e+00
  1.216383e-01    0.000000e+00
  1.219372e-01    0.000000e+00
  1.222361e-01    0.000000e+00
  1.225351e-01    0.000000e+00
  1.228340e-01    0.000000e+00
  1.231329e-01    0.000000e+00
  1.234318e-01    0.000000e+00
  1.237308e-01    0.000000e+00
  1.240297e-01    0.000000e+00
  1.243286e-01    0.000000e+00
  1.246276e-01    0.000000e+00
  1.249265e-01    0.000000e+00
  1.252254e-01    0.000000e+00
  1.255244e-01    0.000000e+00
  1.258233e-01    0.000000e+00
  1.261222e-01    0.000000e+00
  1.264212e-01    0.000000e+00
  1.267201e-01    0.000000e+00
  1.270190e-01    0.000000e+00
  1.273179e-01    0.000000e+00
  1.276169e-01    0.000000e+00
  1.279158e-01    0.000000e+00
  1.282147e-01    0.000000e+00
  1.285137e-01    0.000000e+00
  1.288126e-01    0.000000e+00
  1.291115e-01    0.000000e+00
  1.294105e-01    0.000000e+00
  1.297094e-01    0.000000e+00
  1.300083e-01    0.000000e+00
  1.303072e-01    0.000000e+00
  1.306062e-01    0.000000e+00
  1.309051e-01    0.000000e+00
  1.312040e-01    0.000000e+00
  1.315030e-01    0.000000e+00
  1.318019e-01    0.000000e+00
  1.321008e-01    0.000000e+00
  1.323998e-01    0.000000e+00
  1.326987e-01    0.000000e+00
  1.329976e-01    0.000000e+00
  1.332965e-01    0.000000e+00
  1.335955e-01    0.000000e+00
  1.338944e-01    0.000000e+00
  1.341933e-01    0.000000e+00
  1.344923e-01    0.000000e+00
  1.347912e-01    0.000000e+00
  1.350901e-01    0.000000e+00
  1.353891e-01    0.000000e+00
  1.356880e-01    0.000000e+00
  1.359869e-01    0.000000e+00
  1.362859e-01    0.000000e+00
  1.365848e-01    0.000000e+00
  1.368837e-01    0.000000e+00
  1.371826e-01    0.000000e+00
  1.374816e-01    0.000000e+00
  1.377805e-01    0.000000e+00
  1.380794e-01    0.000000e+00
  1.383784e-01    0.000000e+00
  1.386773e-01    0.000000e+00
  1.389762e-01    0.000000e+00
  1.392752e-01    0.000000e+00
  1.395741e-01    0.000000e+00
  1.398730e-01    0.000000e+00
  1.401719e-01    0.000000e+00
  1.404709e-01    0.000000e+00
  1.407698e-01    0.000000e+00
  1.410687e-01    0.000000e+00
  1.413677e-01    0.000000e+00
  1.416666e-01    0.000000e+00
  1.419655e-01    0.000000e+00
  1.422645e-01    0.000000e+00
  1.425634e-01    0.000000e+00
  1.428623e-01    0.000000e+00
  1.431613e-01    0.000000e+00
  1.434602e-01    0.000000e+00
  1.437591e-01    0.000000e+00
  1.440580e-01    0.000000e+00
  1.443570e-01    0.000000e+00
  1.446559e-01    0.000000e+00
  1.449548e-01    0.000000e+00
  1.452538e-01    0.000000e+00
  1.455527e-01    0.000000e+00
  1.458516e-01    0.000000e+00
  1.461506e-01    0.000000e+00
  1.464495e-01    0.000000e+00
  1.467484e-01    0.000000e+00
  1.470473e-01    0.000000e+00
  1.473463e-01    0.000000e+00
  1.476452e-01    0.000000e+00
  1.479441e-01    0.000000e+00
  1.482431e-01    0.000000e+00
  1.485420e-01    0.000000e+00
  1.488409e-01    0.000000e+00
  1.491399e-01    0.000000e+00
  1.494388e-01    0.000000e+00
  1.497377e-01    0.000000e+00
  1.500367e-01    0.000000e+00
  1.503356e-01    0.000000e+00
  1.506345e-01    0.000000e+00
  1.509334e-01    0.000000e+00
  1.512324e-01    0.000000e+00
  1.515313e-01    0.000000e+00
  1.518302e-01    0.000000e+00
  1.521292e-01    0.000000e+00
  1.524281e-01    0.000000e+00
  1.527270e-01    0.000000e+00
  1.530260e-01    0.000000e+00
  1.533249e-01    0.000000e+00
  1.536238e-01    0.000000e+00
