# == pyFAI calibration ==
# Distance Sample to Detector: 2.266 m
# PONI: 5.659e-02, 4.293e-02 m
# Rotations: 0.000000 0.000000 0.000000 rad
# 
# == Fit2d calibration ==
# Distance Sample-beamCenter: 2266.000 mm
# Center: x=249.594, y=329.012 pix
# Tilt: 0.000 deg  TiltPlanRot: 0.000 deg
# 
# Detector Pilatus 300k	 PixelSize= 1.720e-04, 1.720e-04 m
#    Detector has a mask: True 
#    Detector has a dark current: False 
#    detector has a flat field: False 
# 
# Wavelength: 1.27818e-10 m
# Mask applied: user provided
# Dark current applied: False
# Flat field applied: False
# Polarization factor: None
# Normalization factor: 64911.930000000015
# --> MT-AL_DowExpt1_220227_9acb3a8c-f1e6-4d74-a26c-38b5878ab071_1_r1d.csv
#        q_A^-1             I 
  4.457554e-03    4.236598e-02
  4.756484e-03    3.403845e-02
  5.055415e-03    2.502391e-02
  5.354345e-03    1.855945e-02
  5.653276e-03    1.508215e-02
  5.952206e-03    2.431930e-02
  6.251136e-03    2.237981e-02
  6.550067e-03    1.944766e-02
  6.848997e-03    1.651929e-02
  7.147927e-03    1.392355e-02
  7.446858e-03    1.186358e-02
  7.745788e-03    1.015655e-02
  8.044719e-03    8.780297e-03
  8.343649e-03    7.672586e-03
  8.642579e-03    6.697921e-03
  8.941510e-03    5.871359e-03
  9.240440e-03    5.178771e-03
  9.539371e-03    4.596991e-03
  9.838301e-03    4.085186e-03
  1.013723e-02    3.664200e-03
  1.043616e-02    3.285070e-03
  1.073509e-02    2.962956e-03
  1.103402e-02    2.685207e-03
  1.133295e-02    2.428992e-03
  1.163188e-02    2.205308e-03
  1.193081e-02    2.003521e-03
  1.222974e-02    1.837752e-03
  1.252867e-02    1.672422e-03
  1.282760e-02    1.519457e-03
  1.312654e-02    1.398769e-03
  1.342547e-02    1.295097e-03
  1.372440e-02    1.189727e-03
  1.402333e-02    1.122714e-03
  1.432226e-02    1.034700e-03
  1.462119e-02    9.616208e-04
  1.492012e-02    8.894655e-04
  1.521905e-02    8.214777e-04
  1.551798e-02    7.697588e-04
  1.581691e-02    7.173708e-04
  1.611584e-02    6.721590e-04
  1.641477e-02    6.320641e-04
  1.671370e-02    5.980685e-04
  1.701263e-02    5.661023e-04
  1.731156e-02    5.346965e-04
  1.761049e-02    5.032819e-04
  1.790942e-02    4.777326e-04
  1.820835e-02    4.511132e-04
  1.850728e-02    4.338264e-04
  1.880621e-02    4.168093e-04
  1.910514e-02    3.883217e-04
  1.940407e-02    3.683948e-04
  1.970300e-02    3.525263e-04
  2.000193e-02    3.375521e-04
  2.030086e-02    3.246249e-04
  2.059979e-02    3.122953e-04
  2.089873e-02    3.033454e-04
  2.119766e-02    2.907080e-04
  2.149659e-02    2.799385e-04
  2.179552e-02    2.713934e-04
  2.209445e-02    2.597693e-04
  2.239338e-02    2.516441e-04
  2.269231e-02    2.443252e-04
  2.299124e-02    2.368781e-04
  2.329017e-02    2.300764e-04
  2.358910e-02    2.205610e-04
  2.388803e-02    2.160503e-04
  2.418696e-02    2.072401e-04
  2.448589e-02    2.000929e-04
  2.478482e-02    1.948380e-04
  2.508375e-02    1.903899e-04
  2.538268e-02    1.907204e-04
  2.568161e-02    1.862076e-04
  2.598054e-02    1.835792e-04
  2.627947e-02    1.800938e-04
  2.657840e-02    1.744652e-04
  2.687733e-02    1.715434e-04
  2.717626e-02    1.660711e-04
  2.747519e-02    1.658544e-04
  2.777412e-02    1.635046e-04
  2.807305e-02    1.597532e-04
  2.837198e-02    1.585280e-04
  2.867092e-02    1.571585e-04
  2.896985e-02    1.526534e-04
  2.926878e-02    1.496250e-04
  2.956771e-02    1.466628e-04
  2.986664e-02    1.450838e-04
  3.016557e-02    1.437881e-04
  3.046450e-02    1.387543e-04
  3.076343e-02    1.376531e-04
  3.106236e-02    1.370785e-04
  3.136129e-02    1.342656e-04
  3.166022e-02    1.328437e-04
  3.195915e-02    1.328296e-04
  3.225808e-02    1.301203e-04
  3.255701e-02    1.276351e-04
  3.285594e-02    1.292573e-04
  3.315487e-02    1.274999e-04
  3.345380e-02    1.265122e-04
  3.375273e-02    1.262848e-04
  3.405166e-02    1.248745e-04
  3.435059e-02    1.229146e-04
  3.464952e-02    1.210361e-04
  3.494845e-02    1.192749e-04
  3.524738e-02    1.184727e-04
  3.554631e-02    1.157383e-04
  3.584524e-02    1.144637e-04
  3.614417e-02    1.148132e-04
  3.644310e-02    1.128389e-04
  3.674204e-02    1.119105e-04
  3.704097e-02    1.116409e-04
  3.733990e-02    1.112877e-04
  3.763883e-02    1.106429e-04
  3.793776e-02    1.097560e-04
  3.823669e-02    1.111183e-04
  3.853562e-02    1.104112e-04
  3.883455e-02    1.071253e-04
  3.913348e-02    1.089065e-04
  3.943241e-02    1.099700e-04
  3.973134e-02    1.070800e-04
  4.003027e-02    1.036095e-04
  4.032920e-02    1.032766e-04
  4.062813e-02    1.034142e-04
  4.092706e-02    1.021690e-04
  4.122599e-02    1.021361e-04
  4.152492e-02    1.035585e-04
  4.182385e-02    1.017021e-04
  4.212278e-02    1.018782e-04
  4.242171e-02    1.023593e-04
  4.272064e-02    1.023587e-04
  4.301957e-02    1.007210e-04
  4.331850e-02    1.018553e-04
  4.361743e-02    1.002081e-04
  4.391636e-02    1.009105e-04
  4.421529e-02    1.019779e-04
  4.451423e-02    1.004237e-04
  4.481316e-02    9.980685e-05
  4.511209e-02    1.007505e-04
  4.541102e-02    1.007441e-04
  4.570995e-02    9.990253e-05
  4.600888e-02    9.789295e-05
  4.630781e-02    9.930791e-05
  4.660674e-02    1.009111e-04
  4.690567e-02    1.010109e-04
  4.720460e-02    1.014445e-04
  4.750353e-02    1.009338e-04
  4.780246e-02    9.754131e-05
  4.810139e-02    1.000235e-04
  4.840032e-02    9.838119e-05
  4.869925e-02    9.761460e-05
  4.899818e-02    9.835298e-05
  4.929711e-02    9.904772e-05
  4.959604e-02    9.921071e-05
  4.989497e-02    9.884079e-05
  5.019390e-02    9.953798e-05
  5.049283e-02    9.989217e-05
  5.079176e-02    9.791065e-05
  5.109069e-02    9.887655e-05
  5.138962e-02    1.001529e-04
  5.168855e-02    1.009917e-04
  5.198748e-02    1.008762e-04
  5.228642e-02    1.002171e-04
  5.258535e-02    1.014873e-04
  5.288428e-02    9.983631e-05
  5.318321e-02    9.901250e-05
  5.348214e-02    9.883906e-05
  5.378107e-02    9.783084e-05
  5.408000e-02    9.614317e-05
  5.437893e-02    9.811013e-05
  5.467786e-02    1.001411e-04
  5.497679e-02    9.795831e-05
  5.527572e-02    9.696709e-05
  5.557465e-02    9.608586e-05
  5.587358e-02    9.718235e-05
  5.617251e-02    9.969198e-05
  5.647144e-02    1.012745e-04
  5.677037e-02    9.936273e-05
  5.706930e-02    9.913234e-05
  5.736823e-02    9.897927e-05
  5.766716e-02    9.984778e-05
  5.796609e-02    1.011015e-04
  5.826502e-02    1.001733e-04
  5.856395e-02    9.973885e-05
  5.886288e-02    9.944063e-05
  5.916181e-02    9.888779e-05
  5.946074e-02    9.920714e-05
  5.975967e-02    1.007429e-04
  6.005861e-02    1.005253e-04
  6.035754e-02    1.017945e-04
  6.065647e-02    1.003996e-04
  6.095540e-02    1.002662e-04
  6.125433e-02    1.031846e-04
  6.155326e-02    1.044757e-04
  6.185219e-02    1.033860e-04
  6.215112e-02    1.024713e-04
  6.245005e-02    1.020076e-04
  6.274898e-02    1.021501e-04
  6.304791e-02    1.015606e-04
  6.334684e-02    1.011080e-04
  6.364577e-02    1.023628e-04
  6.394470e-02    1.028320e-04
  6.424363e-02    1.019577e-04
  6.454256e-02    1.021433e-04
  6.484149e-02    1.023228e-04
  6.514042e-02    1.018540e-04
  6.543935e-02    1.027805e-04
  6.573828e-02    1.045870e-04
  6.603721e-02    1.051830e-04
  6.633614e-02    1.051040e-04
  6.663507e-02    1.053844e-04
  6.693400e-02    1.041429e-04
  6.723293e-02    1.048192e-04
  6.753186e-02    1.064904e-04
  6.783080e-02    1.052871e-04
  6.812973e-02    1.031874e-04
  6.842866e-02    1.046877e-04
  6.872759e-02    1.044771e-04
  6.902652e-02    1.042551e-04
  6.932545e-02    1.040398e-04
  6.962438e-02    1.024986e-04
  6.992331e-02    1.040909e-04
  7.022224e-02    1.060614e-04
  7.052117e-02    1.068099e-04
  7.082010e-02    1.059825e-04
  7.111903e-02    1.053644e-04
  7.141796e-02    1.051159e-04
  7.171689e-02    1.050890e-04
  7.201582e-02    1.060509e-04
  7.231475e-02    1.066590e-04
  7.261368e-02    1.048669e-04
  7.291261e-02    1.063005e-04
  7.321154e-02    1.054923e-04
  7.351047e-02    1.042043e-04
  7.380940e-02    1.047722e-04
  7.410833e-02    1.043082e-04
  7.440726e-02    1.060090e-04
  7.470619e-02    1.052977e-04
  7.500512e-02    1.057511e-04
  7.530405e-02    1.058498e-04
  7.560299e-02    1.057375e-04
  7.590192e-02    1.067469e-04
  7.620085e-02    1.061487e-04
  7.649978e-02    1.049380e-04
  7.679871e-02    1.044862e-04
  7.709764e-02    1.047761e-04
  7.739657e-02    1.033147e-04
  7.769550e-02    1.032628e-04
  7.799443e-02    1.043658e-04
  7.829336e-02    1.043748e-04
  7.859229e-02    1.056832e-04
  7.889122e-02    1.061414e-04
  7.919015e-02    1.047756e-04
  7.948908e-02    1.039090e-04
  7.978801e-02    1.047195e-04
  8.008694e-02    1.057384e-04
  8.038587e-02    1.054609e-04
  8.068480e-02    1.051142e-04
  8.098373e-02    1.067329e-04
  8.128266e-02    1.047633e-04
  8.158159e-02    1.029196e-04
  8.188052e-02    1.041554e-04
  8.217945e-02    1.039481e-04
  8.247838e-02    1.024163e-04
  8.277731e-02    1.037418e-04
  8.307624e-02    1.046649e-04
  8.337518e-02    1.042482e-04
  8.367411e-02    1.031635e-04
  8.397304e-02    1.030006e-04
  8.427197e-02    1.039444e-04
  8.457090e-02    1.041576e-04
  8.486983e-02    1.027571e-04
  8.516876e-02    1.031068e-04
  8.546769e-02    1.042428e-04
  8.576662e-02    1.020308e-04
  8.606555e-02    1.022153e-04
  8.636448e-02    1.015649e-04
  8.666341e-02    1.015466e-04
  8.696234e-02    1.033479e-04
  8.726127e-02    1.016896e-04
  8.756020e-02    1.007307e-04
  8.785913e-02    1.018078e-04
  8.815806e-02    1.014088e-04
  8.845699e-02    1.005338e-04
  8.875592e-02    1.001073e-04
  8.905485e-02    1.013069e-04
  8.935378e-02    1.019355e-04
  8.965271e-02    1.012848e-04
  8.995164e-02    9.972008e-05
  9.025057e-02    9.860744e-05
  9.054950e-02    9.834288e-05
  9.084843e-02    9.915635e-05
  9.114737e-02    9.909912e-05
  9.144630e-02    9.934225e-05
  9.174523e-02    9.899589e-05
  9.204416e-02    9.780508e-05
  9.234309e-02    9.836965e-05
  9.264202e-02    9.948437e-05
  9.294095e-02    9.952042e-05
  9.323988e-02    9.943199e-05
  9.353881e-02    9.852414e-05
  9.383774e-02    9.737039e-05
  9.413667e-02    9.690984e-05
  9.443560e-02    9.528521e-05
  9.473453e-02    9.536256e-05
  9.503346e-02    9.644540e-05
  9.533239e-02    9.526800e-05
  9.563132e-02    9.539039e-05
  9.593025e-02    9.767109e-05
  9.622918e-02    9.712451e-05
  9.652811e-02    9.692999e-05
  9.682704e-02    9.674444e-05
  9.712597e-02    9.662527e-05
  9.742490e-02    9.636614e-05
  9.772383e-02    9.579896e-05
  9.802276e-02    9.453267e-05
  9.832169e-02    9.479564e-05
  9.862062e-02    9.616206e-05
  9.891956e-02    9.514537e-05
  9.921849e-02    9.394859e-05
  9.951742e-02    9.546689e-05
  9.981635e-02    9.453156e-05
  1.001153e-01    9.374447e-05
  1.004142e-01    9.537038e-05
  1.007131e-01    9.405782e-05
  1.010121e-01    9.173759e-05
  1.013110e-01    9.410010e-05
  1.016099e-01    9.313771e-05
  1.019089e-01    9.163134e-05
  1.022078e-01    9.278498e-05
  1.025067e-01    9.247381e-05
  1.028057e-01    9.276280e-05
  1.031046e-01    9.320940e-05
  1.034035e-01    9.198413e-05
  1.037024e-01    9.168383e-05
  1.040014e-01    9.218344e-05
  1.043003e-01    9.171900e-05
  1.045992e-01    9.096488e-05
  1.048982e-01    9.230322e-05
  1.051971e-01    9.056101e-05
  1.054960e-01    8.956393e-05
  1.057950e-01    8.964953e-05
  1.060939e-01    8.961606e-05
  1.063928e-01    9.117296e-05
  1.066917e-01    9.159953e-05
  1.069907e-01    9.076785e-05
  1.072896e-01    9.043464e-05
  1.075885e-01    8.946157e-05
  1.078875e-01    8.810674e-05
  1.081864e-01    8.729856e-05
  1.084853e-01    8.805921e-05
  1.087843e-01    8.790405e-05
  1.090832e-01    8.785950e-05
  1.093821e-01    8.899083e-05
  1.096810e-01    8.867617e-05
  1.099800e-01    8.835205e-05
  1.102789e-01    8.798781e-05
  1.105778e-01    8.712448e-05
  1.108768e-01    8.698327e-05
  1.111757e-01    8.543555e-05
  1.114746e-01    8.413159e-05
  1.117736e-01    8.617054e-05
  1.120725e-01    8.720311e-05
  1.123714e-01    8.654632e-05
  1.126704e-01    8.644686e-05
  1.129693e-01    8.633033e-05
  1.132682e-01    8.540416e-05
  1.135671e-01    8.665941e-05
  1.138661e-01    8.578782e-05
  1.141650e-01    8.462274e-05
  1.144639e-01    8.579180e-05
  1.147629e-01    8.737121e-05
  1.150618e-01    8.755818e-05
  1.153607e-01    8.575813e-05
  1.156597e-01    8.343687e-05
  1.159586e-01    8.169079e-05
  1.162575e-01    8.226201e-05
  1.165564e-01    8.322649e-05
  1.168554e-01    8.376385e-05
  1.171543e-01    8.443139e-05
  1.174532e-01    8.608588e-05
  1.177522e-01    8.359836e-05
  1.180511e-01    7.972989e-05
  1.183500e-01    8.039783e-05
  1.186490e-01    8.250376e-05
  1.189479e-01    8.377451e-05
  1.192468e-01    8.492242e-05
  1.195458e-01    8.194627e-05
  1.198447e-01    8.068925e-05
  1.201436e-01    8.490374e-05
  1.204425e-01    8.668492e-05
  1.207415e-01    8.067622e-05
  1.210404e-01    1.079361e-04
  1.213393e-01    0.000000e+00
  1.216383e-01    0.000000e+00
  1.219372e-01    0.000000e+00
  1.222361e-01    0.000000e+00
  1.225351e-01    0.000000e+00
  1.228340e-01    0.000000e+00
  1.231329e-01    0.000000e+00
  1.234318e-01    0.000000e+00
  1.237308e-01    0.000000e+00
  1.240297e-01    0.000000e+00
  1.243286e-01    0.000000e+00
  1.246276e-01    0.000000e+00
  1.249265e-01    0.000000e+00
  1.252254e-01    0.000000e+00
  1.255244e-01    0.000000e+00
  1.258233e-01    0.000000e+00
  1.261222e-01    0.000000e+00
  1.264212e-01    0.000000e+00
  1.267201e-01    0.000000e+00
  1.270190e-01    0.000000e+00
  1.273179e-01    0.000000e+00
  1.276169e-01    0.000000e+00
  1.279158e-01    0.000000e+00
  1.282147e-01    0.000000e+00
  1.285137e-01    0.000000e+00
  1.288126e-01    0.000000e+00
  1.291115e-01    0.000000e+00
  1.294105e-01    0.000000e+00
  1.297094e-01    0.000000e+00
  1.300083e-01    0.000000e+00
  1.303072e-01    0.000000e+00
  1.306062e-01    0.000000e+00
  1.309051e-01    0.000000e+00
  1.312040e-01    0.000000e+00
  1.315030e-01    0.000000e+00
  1.318019e-01    0.000000e+00
  1.321008e-01    0.000000e+00
  1.323998e-01    0.000000e+00
  1.326987e-01    0.000000e+00
  1.329976e-01    0.000000e+00
  1.332965e-01    0.000000e+00
  1.335955e-01    0.000000e+00
  1.338944e-01    0.000000e+00
  1.341933e-01    0.000000e+00
  1.344923e-01    0.000000e+00
  1.347912e-01    0.000000e+00
  1.350901e-01    0.000000e+00
  1.353891e-01    0.000000e+00
  1.356880e-01    0.000000e+00
  1.359869e-01    0.000000e+00
  1.362859e-01    0.000000e+00
  1.365848e-01    0.000000e+00
  1.368837e-01    0.000000e+00
  1.371826e-01    0.000000e+00
  1.374816e-01    0.000000e+00
  1.377805e-01    0.000000e+00
  1.380794e-01    0.000000e+00
  1.383784e-01    0.000000e+00
  1.386773e-01    0.000000e+00
  1.389762e-01    0.000000e+00
  1.392752e-01    0.000000e+00
  1.395741e-01    0.000000e+00
  1.398730e-01    0.000000e+00
  1.401719e-01    0.000000e+00
  1.404709e-01    0.000000e+00
  1.407698e-01    0.000000e+00
  1.410687e-01    0.000000e+00
  1.413677e-01    0.000000e+00
  1.416666e-01    0.000000e+00
  1.419655e-01    0.000000e+00
  1.422645e-01    0.000000e+00
  1.425634e-01    0.000000e+00
  1.428623e-01    0.000000e+00
  1.431613e-01    0.000000e+00
  1.434602e-01    0.000000e+00
  1.437591e-01    0.000000e+00
  1.440580e-01    0.000000e+00
  1.443570e-01    0.000000e+00
  1.446559e-01    0.000000e+00
  1.449548e-01    0.000000e+00
  1.452538e-01    0.000000e+00
  1.455527e-01    0.000000e+00
  1.458516e-01    0.000000e+00
  1.461506e-01    0.000000e+00
  1.464495e-01    0.000000e+00
  1.467484e-01    0.000000e+00
  1.470473e-01    0.000000e+00
  1.473463e-01    0.000000e+00
  1.476452e-01    0.000000e+00
  1.479441e-01    0.000000e+00
  1.482431e-01    0.000000e+00
  1.485420e-01    0.000000e+00
  1.488409e-01    0.000000e+00
  1.491399e-01    0.000000e+00
  1.494388e-01    0.000000e+00
  1.497377e-01    0.000000e+00
  1.500367e-01    0.000000e+00
  1.503356e-01    0.000000e+00
  1.506345e-01    0.000000e+00
  1.509334e-01    0.000000e+00
  1.512324e-01    0.000000e+00
  1.515313e-01    0.000000e+00
  1.518302e-01    0.000000e+00
  1.521292e-01    0.000000e+00
  1.524281e-01    0.000000e+00
  1.527270e-01    0.000000e+00
  1.530260e-01    0.000000e+00
  1.533249e-01    0.000000e+00
  1.536238e-01    0.000000e+00
