# == pyFAI calibration ==
# Distance Sample to Detector: 2.266 m
# PONI: 5.659e-02, 4.293e-02 m
# Rotations: 0.000000 0.000000 0.000000 rad
# 
# == Fit2d calibration ==
# Distance Sample-beamCenter: 2266.000 mm
# Center: x=249.594, y=329.012 pix
# Tilt: 0.000 deg  TiltPlanRot: 0.000 deg
# 
# Detector Pilatus 300k	 PixelSize= 1.720e-04, 1.720e-04 m
#    Detector has a mask: True 
#    Detector has a dark current: False 
#    detector has a flat field: False 
# 
# Wavelength: 1.27818e-10 m
# Mask applied: user provided
# Dark current applied: False
# Flat field applied: False
# Polarization factor: None
# Normalization factor: 8451562.2
# --> MT-AL_F127_220301_77c7f0ff-6b20-425b-953c-60c8acd50527_1_r1d.csv
#        q_A^-1             I 
  4.457554e-03    1.934235e-03
  4.756484e-03    1.496918e-03
  5.055415e-03    1.050568e-03
  5.354345e-03    7.248055e-04
  5.653276e-03    5.456577e-04
  5.952206e-03    8.483815e-04
  6.251136e-03    7.760781e-04
  6.550067e-03    6.782786e-04
  6.848997e-03    5.787400e-04
  7.147927e-03    4.892022e-04
  7.446858e-03    4.186328e-04
  7.745788e-03    3.590842e-04
  8.044719e-03    3.088760e-04
  8.343649e-03    2.697364e-04
  8.642579e-03    2.359486e-04
  8.941510e-03    2.077548e-04
  9.240440e-03    1.839581e-04
  9.539371e-03    1.632154e-04
  9.838301e-03    1.452920e-04
  1.013723e-02    1.306819e-04
  1.043616e-02    1.172247e-04
  1.073509e-02    1.053830e-04
  1.103402e-02    9.553321e-05
  1.133295e-02    8.690036e-05
  1.163188e-02    7.914952e-05
  1.193081e-02    7.242433e-05
  1.222974e-02    6.627322e-05
  1.252867e-02    6.053513e-05
  1.282760e-02    5.584379e-05
  1.312654e-02    5.156583e-05
  1.342547e-02    4.774134e-05
  1.372440e-02    4.444709e-05
  1.402333e-02    4.130472e-05
  1.432226e-02    3.839038e-05
  1.462119e-02    3.573726e-05
  1.492012e-02    3.345613e-05
  1.521905e-02    3.126666e-05
  1.551798e-02    2.939071e-05
  1.581691e-02    2.774084e-05
  1.611584e-02    2.616539e-05
  1.641477e-02    2.459813e-05
  1.671370e-02    2.311348e-05
  1.701263e-02    2.193767e-05
  1.731156e-02    2.083574e-05
  1.761049e-02    1.987711e-05
  1.790942e-02    1.884464e-05
  1.820835e-02    1.785875e-05
  1.850728e-02    1.724905e-05
  1.880621e-02    1.641686e-05
  1.910514e-02    1.569184e-05
  1.940407e-02    1.505297e-05
  1.970300e-02    1.447074e-05
  2.000193e-02    1.390635e-05
  2.030086e-02    1.338080e-05
  2.059979e-02    1.289396e-05
  2.089873e-02    1.250498e-05
  2.119766e-02    1.205887e-05
  2.149659e-02    1.171076e-05
  2.179552e-02    1.134701e-05
  2.209445e-02    1.096962e-05
  2.239338e-02    1.065003e-05
  2.269231e-02    1.041043e-05
  2.299124e-02    1.008209e-05
  2.329017e-02    9.916935e-06
  2.358910e-02    9.664721e-06
  2.388803e-02    9.411046e-06
  2.418696e-02    9.210639e-06
  2.448589e-02    8.953419e-06
  2.478482e-02    8.778879e-06
  2.508375e-02    8.605823e-06
  2.538268e-02    8.478147e-06
  2.568161e-02    8.287217e-06
  2.598054e-02    8.158172e-06
  2.627947e-02    8.093367e-06
  2.657840e-02    7.933037e-06
  2.687733e-02    7.773454e-06
  2.717626e-02    7.651083e-06
  2.747519e-02    7.535323e-06
  2.777412e-02    7.488117e-06
  2.807305e-02    7.389564e-06
  2.837198e-02    7.241192e-06
  2.867092e-02    7.187094e-06
  2.896985e-02    7.123114e-06
  2.926878e-02    7.035390e-06
  2.956771e-02    6.957061e-06
  2.986664e-02    6.926603e-06
  3.016557e-02    6.827325e-06
  3.046450e-02    6.754032e-06
  3.076343e-02    6.737789e-06
  3.106236e-02    6.619878e-06
  3.136129e-02    6.514991e-06
  3.166022e-02    6.448091e-06
  3.195915e-02    6.376800e-06
  3.225808e-02    6.327494e-06
  3.255701e-02    6.273790e-06
  3.285594e-02    6.198482e-06
  3.315487e-02    6.123813e-06
  3.345380e-02    6.118862e-06
  3.375273e-02    6.084175e-06
  3.405166e-02    5.996221e-06
  3.435059e-02    5.919024e-06
  3.464952e-02    5.818336e-06
  3.494845e-02    5.838567e-06
  3.524738e-02    5.857338e-06
  3.554631e-02    5.730308e-06
  3.584524e-02    5.668740e-06
  3.614417e-02    5.609229e-06
  3.644310e-02    5.560006e-06
  3.674204e-02    5.510893e-06
  3.704097e-02    5.505190e-06
  3.733990e-02    5.467763e-06
  3.763883e-02    5.398045e-06
  3.793776e-02    5.365468e-06
  3.823669e-02    5.313645e-06
  3.853562e-02    5.253643e-06
  3.883455e-02    5.243930e-06
  3.913348e-02    5.218453e-06
  3.943241e-02    5.181134e-06
  3.973134e-02    5.155147e-06
  4.003027e-02    5.149693e-06
  4.032920e-02    5.087475e-06
  4.062813e-02    5.056755e-06
  4.092706e-02    5.054180e-06
  4.122599e-02    4.997359e-06
  4.152492e-02    4.942913e-06
  4.182385e-02    4.903822e-06
  4.212278e-02    4.897780e-06
  4.242171e-02    4.878979e-06
  4.272064e-02    4.881944e-06
  4.301957e-02    4.881083e-06
  4.331850e-02    4.839551e-06
  4.361743e-02    4.838188e-06
  4.391636e-02    4.830840e-06
  4.421529e-02    4.832549e-06
  4.451423e-02    4.840437e-06
  4.481316e-02    4.787385e-06
  4.511209e-02    4.781653e-06
  4.541102e-02    4.784132e-06
  4.570995e-02    4.784578e-06
  4.600888e-02    4.745006e-06
  4.630781e-02    4.730006e-06
  4.660674e-02    4.760022e-06
  4.690567e-02    4.766317e-06
  4.720460e-02    4.770498e-06
  4.750353e-02    4.810781e-06
  4.780246e-02    4.764944e-06
  4.810139e-02    4.719891e-06
  4.840032e-02    4.702714e-06
  4.869925e-02    4.722426e-06
  4.899818e-02    4.727060e-06
  4.929711e-02    4.689369e-06
  4.959604e-02    4.663476e-06
  4.989497e-02    4.687701e-06
  5.019390e-02    4.708819e-06
  5.049283e-02    4.674888e-06
  5.079176e-02    4.691001e-06
  5.109069e-02    4.725827e-06
  5.138962e-02    4.771682e-06
  5.168855e-02    4.859470e-06
  5.198748e-02    4.964736e-06
  5.228642e-02    4.928552e-06
  5.258535e-02    4.724519e-06
  5.288428e-02    4.664395e-06
  5.318321e-02    4.678666e-06
  5.348214e-02    4.665098e-06
  5.378107e-02    4.662686e-06
  5.408000e-02    4.662592e-06
  5.437893e-02    4.669287e-06
  5.467786e-02    4.693986e-06
  5.497679e-02    4.719564e-06
  5.527572e-02    4.721200e-06
  5.557465e-02    4.688723e-06
  5.587358e-02    4.623895e-06
  5.617251e-02    4.616803e-06
  5.647144e-02    4.639629e-06
  5.677037e-02    4.647273e-06
  5.706930e-02    4.670426e-06
  5.736823e-02    4.684924e-06
  5.766716e-02    4.696555e-06
  5.796609e-02    4.696074e-06
  5.826502e-02    4.690249e-06
  5.856395e-02    4.682136e-06
  5.886288e-02    4.689410e-06
  5.916181e-02    4.692710e-06
  5.946074e-02    4.701930e-06
  5.975967e-02    4.705201e-06
  6.005861e-02    4.712321e-06
  6.035754e-02    4.749139e-06
  6.065647e-02    4.768326e-06
  6.095540e-02    4.824944e-06
  6.125433e-02    4.880745e-06
  6.155326e-02    4.909039e-06
  6.185219e-02    4.830199e-06
  6.215112e-02    4.768584e-06
  6.245005e-02    4.769657e-06
  6.274898e-02    4.805242e-06
  6.304791e-02    4.790046e-06
  6.334684e-02    4.775422e-06
  6.364577e-02    4.773145e-06
  6.394470e-02    4.774219e-06
  6.424363e-02    4.806858e-06
  6.454256e-02    4.830831e-06
  6.484149e-02    4.836722e-06
  6.514042e-02    4.854233e-06
  6.543935e-02    4.837873e-06
  6.573828e-02    4.827784e-06
  6.603721e-02    4.842111e-06
  6.633614e-02    4.858778e-06
  6.663507e-02    4.835407e-06
  6.693400e-02    4.831654e-06
  6.723293e-02    4.846195e-06
  6.753186e-02    4.867772e-06
  6.783080e-02    4.889700e-06
  6.812973e-02    4.905078e-06
  6.842866e-02    4.895274e-06
  6.872759e-02    4.892383e-06
  6.902652e-02    4.913400e-06
  6.932545e-02    4.936491e-06
  6.962438e-02    4.957191e-06
  6.992331e-02    4.948671e-06
  7.022224e-02    4.956533e-06
  7.052117e-02    4.978011e-06
  7.082010e-02    4.963871e-06
  7.111903e-02    4.947641e-06
  7.141796e-02    4.947962e-06
  7.171689e-02    4.962068e-06
  7.201582e-02    4.959310e-06
  7.231475e-02    4.976556e-06
  7.261368e-02    4.992225e-06
  7.291261e-02    4.982278e-06
  7.321154e-02    4.994206e-06
  7.351047e-02    5.008826e-06
  7.380940e-02    4.998916e-06
  7.410833e-02    4.986946e-06
  7.440726e-02    4.995513e-06
  7.470619e-02    5.014019e-06
  7.500512e-02    5.026072e-06
  7.530405e-02    5.026528e-06
  7.560299e-02    5.012569e-06
  7.590192e-02    5.011675e-06
  7.620085e-02    4.995080e-06
  7.649978e-02    5.043998e-06
  7.679871e-02    5.050133e-06
  7.709764e-02    5.040118e-06
  7.739657e-02    5.020404e-06
  7.769550e-02    4.982141e-06
  7.799443e-02    4.987741e-06
  7.829336e-02    4.999862e-06
  7.859229e-02    4.977304e-06
  7.889122e-02    4.970200e-06
  7.919015e-02    4.993041e-06
  7.948908e-02    5.006264e-06
  7.978801e-02    4.996056e-06
  8.008694e-02    4.981014e-06
  8.038587e-02    4.987549e-06
  8.068480e-02    4.981665e-06
  8.098373e-02    4.951882e-06
  8.128266e-02    4.962064e-06
  8.158159e-02    4.948201e-06
  8.188052e-02    4.939060e-06
  8.217945e-02    4.934750e-06
  8.247838e-02    4.936545e-06
  8.277731e-02    4.927253e-06
  8.307624e-02    4.916396e-06
  8.337518e-02    4.903844e-06
  8.367411e-02    4.914781e-06
  8.397304e-02    4.903845e-06
  8.427197e-02    4.901652e-06
  8.457090e-02    4.899956e-06
  8.486983e-02    4.898689e-06
  8.516876e-02    4.879288e-06
  8.546769e-02    4.902461e-06
  8.576662e-02    4.869386e-06
  8.606555e-02    4.848156e-06
  8.636448e-02    4.875249e-06
  8.666341e-02    4.862502e-06
  8.696234e-02    4.843771e-06
  8.726127e-02    4.835620e-06
  8.756020e-02    4.826469e-06
  8.785913e-02    4.831699e-06
  8.815806e-02    4.821703e-06
  8.845699e-02    4.793591e-06
  8.875592e-02    4.794010e-06
  8.905485e-02    4.789596e-06
  8.935378e-02    4.795322e-06
  8.965271e-02    4.796550e-06
  8.995164e-02    4.743898e-06
  9.025057e-02    4.706774e-06
  9.054950e-02    4.733527e-06
  9.084843e-02    4.716382e-06
  9.114737e-02    4.714273e-06
  9.144630e-02    4.721799e-06
  9.174523e-02    4.695070e-06
  9.204416e-02    4.676402e-06
  9.234309e-02    4.686674e-06
  9.264202e-02    4.692421e-06
  9.294095e-02    4.657753e-06
  9.323988e-02    4.632972e-06
  9.353881e-02    4.634696e-06
  9.383774e-02    4.643118e-06
  9.413667e-02    4.639340e-06
  9.443560e-02    4.607511e-06
  9.473453e-02    4.603249e-06
  9.503346e-02    4.600617e-06
  9.533239e-02    4.580539e-06
  9.563132e-02    4.603626e-06
  9.593025e-02    4.617518e-06
  9.622918e-02    4.610571e-06
  9.652811e-02    4.606278e-06
  9.682704e-02    4.649536e-06
  9.712597e-02    4.677582e-06
  9.742490e-02    4.652186e-06
  9.772383e-02    4.592771e-06
  9.802276e-02    4.547963e-06
  9.832169e-02    4.500613e-06
  9.862062e-02    4.471509e-06
  9.891956e-02    4.479769e-06
  9.921849e-02    4.501475e-06
  9.951742e-02    4.469126e-06
  9.981635e-02    4.463163e-06
  1.001153e-01    4.493190e-06
  1.004142e-01    4.481857e-06
  1.007131e-01    4.432854e-06
  1.010121e-01    4.442795e-06
  1.013110e-01    4.426739e-06
  1.016099e-01    4.407888e-06
  1.019089e-01    4.401529e-06
  1.022078e-01    4.402009e-06
  1.025067e-01    4.390478e-06
  1.028057e-01    4.395067e-06
  1.031046e-01    4.378711e-06
  1.034035e-01    4.349513e-06
  1.037024e-01    4.337530e-06
  1.040014e-01    4.312811e-06
  1.043003e-01    4.327101e-06
  1.045992e-01    4.321194e-06
  1.048982e-01    4.331799e-06
  1.051971e-01    4.320900e-06
  1.054960e-01    4.294779e-06
  1.057950e-01    4.297940e-06
  1.060939e-01    4.280996e-06
  1.063928e-01    4.280116e-06
  1.066917e-01    4.291598e-06
  1.069907e-01    4.274099e-06
  1.072896e-01    4.256849e-06
  1.075885e-01    4.263094e-06
  1.078875e-01    4.267039e-06
  1.081864e-01    4.250460e-06
  1.084853e-01    4.227078e-06
  1.087843e-01    4.241097e-06
  1.090832e-01    4.255281e-06
  1.093821e-01    4.192389e-06
  1.096810e-01    4.174919e-06
  1.099800e-01    4.165796e-06
  1.102789e-01    4.158492e-06
  1.105778e-01    4.145861e-06
  1.108768e-01    4.142571e-06
  1.111757e-01    4.114728e-06
  1.114746e-01    4.117515e-06
  1.117736e-01    4.105596e-06
  1.120725e-01    4.096126e-06
  1.123714e-01    4.087877e-06
  1.126704e-01    4.060226e-06
  1.129693e-01    4.066236e-06
  1.132682e-01    4.064838e-06
  1.135671e-01    4.023342e-06
  1.138661e-01    4.050271e-06
  1.141650e-01    4.071921e-06
  1.144639e-01    4.048135e-06
  1.147629e-01    4.021115e-06
  1.150618e-01    3.987151e-06
  1.153607e-01    4.009549e-06
  1.156597e-01    4.016341e-06
  1.159586e-01    3.989955e-06
  1.162575e-01    3.962405e-06
  1.165564e-01    3.938771e-06
  1.168554e-01    3.992601e-06
  1.171543e-01    4.039449e-06
  1.174532e-01    4.024772e-06
  1.177522e-01    3.977867e-06
  1.180511e-01    3.961215e-06
  1.183500e-01    3.981784e-06
  1.186490e-01    3.995413e-06
  1.189479e-01    4.051584e-06
  1.192468e-01    4.019056e-06
  1.195458e-01    3.977954e-06
  1.198447e-01    3.962261e-06
  1.201436e-01    3.825949e-06
  1.204425e-01    3.694249e-06
  1.207415e-01    3.570110e-06
  1.210404e-01    3.315998e-06
  1.213393e-01    0.000000e+00
  1.216383e-01    0.000000e+00
  1.219372e-01    0.000000e+00
  1.222361e-01    0.000000e+00
  1.225351e-01    0.000000e+00
  1.228340e-01    0.000000e+00
  1.231329e-01    0.000000e+00
  1.234318e-01    0.000000e+00
  1.237308e-01    0.000000e+00
  1.240297e-01    0.000000e+00
  1.243286e-01    0.000000e+00
  1.246276e-01    0.000000e+00
  1.249265e-01    0.000000e+00
  1.252254e-01    0.000000e+00
  1.255244e-01    0.000000e+00
  1.258233e-01    0.000000e+00
  1.261222e-01    0.000000e+00
  1.264212e-01    0.000000e+00
  1.267201e-01    0.000000e+00
  1.270190e-01    0.000000e+00
  1.273179e-01    0.000000e+00
  1.276169e-01    0.000000e+00
  1.279158e-01    0.000000e+00
  1.282147e-01    0.000000e+00
  1.285137e-01    0.000000e+00
  1.288126e-01    0.000000e+00
  1.291115e-01    0.000000e+00
  1.294105e-01    0.000000e+00
  1.297094e-01    0.000000e+00
  1.300083e-01    0.000000e+00
  1.303072e-01    0.000000e+00
  1.306062e-01    0.000000e+00
  1.309051e-01    0.000000e+00
  1.312040e-01    0.000000e+00
  1.315030e-01    0.000000e+00
  1.318019e-01    0.000000e+00
  1.321008e-01    0.000000e+00
  1.323998e-01    0.000000e+00
  1.326987e-01    0.000000e+00
  1.329976e-01    0.000000e+00
  1.332965e-01    0.000000e+00
  1.335955e-01    0.000000e+00
  1.338944e-01    0.000000e+00
  1.341933e-01    0.000000e+00
  1.344923e-01    0.000000e+00
  1.347912e-01    0.000000e+00
  1.350901e-01    0.000000e+00
  1.353891e-01    0.000000e+00
  1.356880e-01    0.000000e+00
  1.359869e-01    0.000000e+00
  1.362859e-01    0.000000e+00
  1.365848e-01    0.000000e+00
  1.368837e-01    0.000000e+00
  1.371826e-01    0.000000e+00
  1.374816e-01    0.000000e+00
  1.377805e-01    0.000000e+00
  1.380794e-01    0.000000e+00
  1.383784e-01    0.000000e+00
  1.386773e-01    0.000000e+00
  1.389762e-01    0.000000e+00
  1.392752e-01    0.000000e+00
  1.395741e-01    0.000000e+00
  1.398730e-01    0.000000e+00
  1.401719e-01    0.000000e+00
  1.404709e-01    0.000000e+00
  1.407698e-01    0.000000e+00
  1.410687e-01    0.000000e+00
  1.413677e-01    0.000000e+00
  1.416666e-01    0.000000e+00
  1.419655e-01    0.000000e+00
  1.422645e-01    0.000000e+00
  1.425634e-01    0.000000e+00
  1.428623e-01    0.000000e+00
  1.431613e-01    0.000000e+00
  1.434602e-01    0.000000e+00
  1.437591e-01    0.000000e+00
  1.440580e-01    0.000000e+00
  1.443570e-01    0.000000e+00
  1.446559e-01    0.000000e+00
  1.449548e-01    0.000000e+00
  1.452538e-01    0.000000e+00
  1.455527e-01    0.000000e+00
  1.458516e-01    0.000000e+00
  1.461506e-01    0.000000e+00
  1.464495e-01    0.000000e+00
  1.467484e-01    0.000000e+00
  1.470473e-01    0.000000e+00
  1.473463e-01    0.000000e+00
  1.476452e-01    0.000000e+00
  1.479441e-01    0.000000e+00
  1.482431e-01    0.000000e+00
  1.485420e-01    0.000000e+00
  1.488409e-01    0.000000e+00
  1.491399e-01    0.000000e+00
  1.494388e-01    0.000000e+00
  1.497377e-01    0.000000e+00
  1.500367e-01    0.000000e+00
  1.503356e-01    0.000000e+00
  1.506345e-01    0.000000e+00
  1.509334e-01    0.000000e+00
  1.512324e-01    0.000000e+00
  1.515313e-01    0.000000e+00
  1.518302e-01    0.000000e+00
  1.521292e-01    0.000000e+00
  1.524281e-01    0.000000e+00
  1.527270e-01    0.000000e+00
  1.530260e-01    0.000000e+00
  1.533249e-01    0.000000e+00
  1.536238e-01    0.000000e+00
