# == pyFAI calibration ==
# Distance Sample to Detector: 2.266 m
# PONI: 5.659e-02, 4.293e-02 m
# Rotations: 0.000000 0.000000 0.000000 rad
# 
# == Fit2d calibration ==
# Distance Sample-beamCenter: 2266.000 mm
# Center: x=249.594, y=329.012 pix
# Tilt: 0.000 deg  TiltPlanRot: 0.000 deg
# 
# Detector Pilatus 300k	 PixelSize= 1.720e-04, 1.720e-04 m
#    Detector has a mask: True 
#    Detector has a dark current: False 
#    detector has a flat field: False 
# 
# Wavelength: 1.27818e-10 m
# Mask applied: user provided
# Dark current applied: False
# Flat field applied: False
# Polarization factor: None
# Normalization factor: 10902805.8
# --> MT-AL_F127_220301_d49c2890-4af5-493b-9a5b-bfbf7899fbea_2_r1d.csv
#        q_A^-1             I 
  4.457554e-03    1.892261e-03
  4.756484e-03    1.463027e-03
  5.055415e-03    1.025658e-03
  5.354345e-03    7.119762e-04
  5.653276e-03    5.455487e-04
  5.952206e-03    8.774354e-04
  6.251136e-03    8.018521e-04
  6.550067e-03    6.985576e-04
  6.848997e-03    5.956952e-04
  7.147927e-03    5.037222e-04
  7.446858e-03    4.295874e-04
  7.745788e-03    3.682885e-04
  8.044719e-03    3.169268e-04
  8.343649e-03    2.765035e-04
  8.642579e-03    2.413460e-04
  8.941510e-03    2.128023e-04
  9.240440e-03    1.889508e-04
  9.539371e-03    1.676296e-04
  9.838301e-03    1.489302e-04
  1.013723e-02    1.336138e-04
  1.043616e-02    1.200056e-04
  1.073509e-02    1.078167e-04
  1.103402e-02    9.791231e-05
  1.133295e-02    8.913784e-05
  1.163188e-02    8.093075e-05
  1.193081e-02    7.411789e-05
  1.222974e-02    6.789570e-05
  1.252867e-02    6.236933e-05
  1.282760e-02    5.729301e-05
  1.312654e-02    5.288185e-05
  1.342547e-02    4.903937e-05
  1.372440e-02    4.540284e-05
  1.402333e-02    4.234302e-05
  1.432226e-02    3.932936e-05
  1.462119e-02    3.648211e-05
  1.492012e-02    3.423344e-05
  1.521905e-02    3.192104e-05
  1.551798e-02    2.993504e-05
  1.581691e-02    2.825644e-05
  1.611584e-02    2.672826e-05
  1.641477e-02    2.535025e-05
  1.671370e-02    2.381694e-05
  1.701263e-02    2.248774e-05
  1.731156e-02    2.139114e-05
  1.761049e-02    2.042676e-05
  1.790942e-02    1.945880e-05
  1.820835e-02    1.846534e-05
  1.850728e-02    1.745456e-05
  1.880621e-02    1.676332e-05
  1.910514e-02    1.619425e-05
  1.940407e-02    1.553469e-05
  1.970300e-02    1.480369e-05
  2.000193e-02    1.429085e-05
  2.030086e-02    1.384003e-05
  2.059979e-02    1.327461e-05
  2.089873e-02    1.275728e-05
  2.119766e-02    1.239395e-05
  2.149659e-02    1.204252e-05
  2.179552e-02    1.167760e-05
  2.209445e-02    1.135722e-05
  2.239338e-02    1.112176e-05
  2.269231e-02    1.071785e-05
  2.299124e-02    1.035289e-05
  2.329017e-02    1.016035e-05
  2.358910e-02    9.884641e-06
  2.388803e-02    9.579525e-06
  2.418696e-02    9.409126e-06
  2.448589e-02    9.282087e-06
  2.478482e-02    9.028943e-06
  2.508375e-02    8.828654e-06
  2.538268e-02    8.707570e-06
  2.568161e-02    8.519066e-06
  2.598054e-02    8.383373e-06
  2.627947e-02    8.276133e-06
  2.657840e-02    8.119649e-06
  2.687733e-02    7.987768e-06
  2.717626e-02    7.887007e-06
  2.747519e-02    7.721579e-06
  2.777412e-02    7.632345e-06
  2.807305e-02    7.564656e-06
  2.837198e-02    7.484328e-06
  2.867092e-02    7.392719e-06
  2.896985e-02    7.245465e-06
  2.926878e-02    7.178663e-06
  2.956771e-02    7.116631e-06
  2.986664e-02    6.997371e-06
  3.016557e-02    6.904607e-06
  3.046450e-02    6.859233e-06
  3.076343e-02    6.822550e-06
  3.106236e-02    6.728992e-06
  3.136129e-02    6.681270e-06
  3.166022e-02    6.646504e-06
  3.195915e-02    6.559744e-06
  3.225808e-02    6.483031e-06
  3.255701e-02    6.418447e-06
  3.285594e-02    6.371861e-06
  3.315487e-02    6.325329e-06
  3.345380e-02    6.258520e-06
  3.375273e-02    6.201818e-06
  3.405166e-02    6.163471e-06
  3.435059e-02    6.077750e-06
  3.464952e-02    5.988510e-06
  3.494845e-02    5.946092e-06
  3.524738e-02    5.911591e-06
  3.554631e-02    5.851580e-06
  3.584524e-02    5.791802e-06
  3.614417e-02    5.752819e-06
  3.644310e-02    5.677669e-06
  3.674204e-02    5.650703e-06
  3.704097e-02    5.627497e-06
  3.733990e-02    5.579942e-06
  3.763883e-02    5.575007e-06
  3.793776e-02    5.522112e-06
  3.823669e-02    5.424457e-06
  3.853562e-02    5.395469e-06
  3.883455e-02    5.366972e-06
  3.913348e-02    5.338249e-06
  3.943241e-02    5.311540e-06
  3.973134e-02    5.269263e-06
  4.003027e-02    5.227540e-06
  4.032920e-02    5.220465e-06
  4.062813e-02    5.213095e-06
  4.092706e-02    5.191780e-06
  4.122599e-02    5.158730e-06
  4.152492e-02    5.122543e-06
  4.182385e-02    5.113797e-06
  4.212278e-02    5.098840e-06
  4.242171e-02    5.093977e-06
  4.272064e-02    5.053799e-06
  4.301957e-02    5.020329e-06
  4.331850e-02    4.994353e-06
  4.361743e-02    4.970479e-06
  4.391636e-02    4.975263e-06
  4.421529e-02    4.982187e-06
  4.451423e-02    4.974426e-06
  4.481316e-02    4.950658e-06
  4.511209e-02    4.948707e-06
  4.541102e-02    4.925317e-06
  4.570995e-02    4.923497e-06
  4.600888e-02    4.907202e-06
  4.630781e-02    4.923148e-06
  4.660674e-02    4.910061e-06
  4.690567e-02    4.879194e-06
  4.720460e-02    4.875887e-06
  4.750353e-02    4.906220e-06
  4.780246e-02    4.930762e-06
  4.810139e-02    4.927863e-06
  4.840032e-02    4.925603e-06
  4.869925e-02    4.896326e-06
  4.899818e-02    4.850996e-06
  4.929711e-02    4.853117e-06
  4.959604e-02    4.867007e-06
  4.989497e-02    4.852222e-06
  5.019390e-02    4.877243e-06
  5.049283e-02    4.883511e-06
  5.079176e-02    4.868757e-06
  5.109069e-02    4.891344e-06
  5.138962e-02    4.957005e-06
  5.168855e-02    5.060836e-06
  5.198748e-02    5.109961e-06
  5.228642e-02    5.045663e-06
  5.258535e-02    4.890383e-06
  5.288428e-02    4.847823e-06
  5.318321e-02    4.852774e-06
  5.348214e-02    4.844419e-06
  5.378107e-02    4.830070e-06
  5.408000e-02    4.822170e-06
  5.437893e-02    4.833169e-06
  5.467786e-02    4.801619e-06
  5.497679e-02    4.823848e-06
  5.527572e-02    4.815960e-06
  5.557465e-02    4.830721e-06
  5.587358e-02    4.845899e-06
  5.617251e-02    4.834910e-06
  5.647144e-02    4.817900e-06
  5.677037e-02    4.843107e-06
  5.706930e-02    4.818146e-06
  5.736823e-02    4.838874e-06
  5.766716e-02    4.877221e-06
  5.796609e-02    4.857460e-06
  5.826502e-02    4.868252e-06
  5.856395e-02    4.864437e-06
  5.886288e-02    4.848575e-06
  5.916181e-02    4.863749e-06
  5.946074e-02    4.869853e-06
  5.975967e-02    4.872712e-06
  6.005861e-02    4.898882e-06
  6.035754e-02    4.925667e-06
  6.065647e-02    4.956986e-06
  6.095540e-02    4.979048e-06
  6.125433e-02    5.047115e-06
  6.155326e-02    5.053502e-06
  6.185219e-02    5.006373e-06
  6.215112e-02    4.975135e-06
  6.245005e-02    4.948770e-06
  6.274898e-02    4.951190e-06
  6.304791e-02    4.960951e-06
  6.334684e-02    4.964515e-06
  6.364577e-02    4.966514e-06
  6.394470e-02    4.977764e-06
  6.424363e-02    5.003379e-06
  6.454256e-02    5.000079e-06
  6.484149e-02    5.000573e-06
  6.514042e-02    5.000082e-06
  6.543935e-02    5.001894e-06
  6.573828e-02    5.013270e-06
  6.603721e-02    5.029397e-06
  6.633614e-02    5.031261e-06
  6.663507e-02    5.046561e-06
  6.693400e-02    5.030351e-06
  6.723293e-02    5.057981e-06
  6.753186e-02    5.056889e-06
  6.783080e-02    5.047646e-06
  6.812973e-02    5.074895e-06
  6.842866e-02    5.100509e-06
  6.872759e-02    5.113464e-06
  6.902652e-02    5.105294e-06
  6.932545e-02    5.086798e-06
  6.962438e-02    5.100917e-06
  6.992331e-02    5.116976e-06
  7.022224e-02    5.127498e-06
  7.052117e-02    5.131794e-06
  7.082010e-02    5.120280e-06
  7.111903e-02    5.118880e-06
  7.141796e-02    5.117015e-06
  7.171689e-02    5.137216e-06
  7.201582e-02    5.138850e-06
  7.231475e-02    5.168337e-06
  7.261368e-02    5.163937e-06
  7.291261e-02    5.176236e-06
  7.321154e-02    5.196478e-06
  7.351047e-02    5.192824e-06
  7.380940e-02    5.165844e-06
  7.410833e-02    5.176674e-06
  7.440726e-02    5.179580e-06
  7.470619e-02    5.173213e-06
  7.500512e-02    5.180508e-06
  7.530405e-02    5.164983e-06
  7.560299e-02    5.178022e-06
  7.590192e-02    5.189177e-06
  7.620085e-02    5.202661e-06
  7.649978e-02    5.179533e-06
  7.679871e-02    5.196067e-06
  7.709764e-02    5.211820e-06
  7.739657e-02    5.185439e-06
  7.769550e-02    5.168669e-06
  7.799443e-02    5.190132e-06
  7.829336e-02    5.203472e-06
  7.859229e-02    5.188360e-06
  7.889122e-02    5.188060e-06
  7.919015e-02    5.174849e-06
  7.948908e-02    5.154525e-06
  7.978801e-02    5.134661e-06
  8.008694e-02    5.167587e-06
  8.038587e-02    5.156515e-06
  8.068480e-02    5.145147e-06
  8.098373e-02    5.122189e-06
  8.128266e-02    5.144568e-06
  8.158159e-02    5.162325e-06
  8.188052e-02    5.141208e-06
  8.217945e-02    5.128375e-06
  8.247838e-02    5.122071e-06
  8.277731e-02    5.122977e-06
  8.307624e-02    5.129722e-06
  8.337518e-02    5.101107e-06
  8.367411e-02    5.101243e-06
  8.397304e-02    5.124197e-06
  8.427197e-02    5.097508e-06
  8.457090e-02    5.070844e-06
  8.486983e-02    5.076455e-06
  8.516876e-02    5.051291e-06
  8.546769e-02    5.064203e-06
  8.576662e-02    5.058127e-06
  8.606555e-02    5.032844e-06
  8.636448e-02    5.046318e-06
  8.666341e-02    5.054907e-06
  8.696234e-02    5.045777e-06
  8.726127e-02    5.025250e-06
  8.756020e-02    5.031748e-06
  8.785913e-02    5.026292e-06
  8.815806e-02    5.001831e-06
  8.845699e-02    4.982032e-06
  8.875592e-02    4.968129e-06
  8.905485e-02    4.958147e-06
  8.935378e-02    4.951597e-06
  8.965271e-02    4.968465e-06
  8.995164e-02    4.953802e-06
  9.025057e-02    4.947844e-06
  9.054950e-02    4.919211e-06
  9.084843e-02    4.921177e-06
  9.114737e-02    4.898593e-06
  9.144630e-02    4.864607e-06
  9.174523e-02    4.845927e-06
  9.204416e-02    4.844309e-06
  9.234309e-02    4.838361e-06
  9.264202e-02    4.832365e-06
  9.294095e-02    4.857649e-06
  9.323988e-02    4.838716e-06
  9.353881e-02    4.804313e-06
  9.383774e-02    4.806962e-06
  9.413667e-02    4.801606e-06
  9.443560e-02    4.803863e-06
  9.473453e-02    4.834491e-06
  9.503346e-02    4.799139e-06
  9.533239e-02    4.787183e-06
  9.563132e-02    4.777083e-06
  9.593025e-02    4.777709e-06
  9.622918e-02    4.773554e-06
  9.652811e-02    4.776038e-06
  9.682704e-02    4.799731e-06
  9.712597e-02    4.800742e-06
  9.742490e-02    4.788994e-06
  9.772383e-02    4.779180e-06
  9.802276e-02    4.725057e-06
  9.832169e-02    4.678962e-06
  9.862062e-02    4.674489e-06
  9.891956e-02    4.681241e-06
  9.921849e-02    4.645694e-06
  9.951742e-02    4.635117e-06
  9.981635e-02    4.613284e-06
  1.001153e-01    4.606783e-06
  1.004142e-01    4.607175e-06
  1.007131e-01    4.598578e-06
  1.010121e-01    4.615868e-06
  1.013110e-01    4.604092e-06
  1.016099e-01    4.587249e-06
  1.019089e-01    4.583137e-06
  1.022078e-01    4.577619e-06
  1.025067e-01    4.559969e-06
  1.028057e-01    4.546440e-06
  1.031046e-01    4.534801e-06
  1.034035e-01    4.543752e-06
  1.037024e-01    4.554608e-06
  1.040014e-01    4.549215e-06
  1.043003e-01    4.518099e-06
  1.045992e-01    4.501143e-06
  1.048982e-01    4.496138e-06
  1.051971e-01    4.489519e-06
  1.054960e-01    4.447767e-06
  1.057950e-01    4.442562e-06
  1.060939e-01    4.432060e-06
  1.063928e-01    4.443339e-06
  1.066917e-01    4.430657e-06
  1.069907e-01    4.409939e-06
  1.072896e-01    4.418799e-06
  1.075885e-01    4.413250e-06
  1.078875e-01    4.421321e-06
  1.081864e-01    4.422489e-06
  1.084853e-01    4.388491e-06
  1.087843e-01    4.385732e-06
  1.090832e-01    4.383117e-06
  1.093821e-01    4.375162e-06
  1.096810e-01    4.335076e-06
  1.099800e-01    4.310507e-06
  1.102789e-01    4.338952e-06
  1.105778e-01    4.315304e-06
  1.108768e-01    4.280283e-06
  1.111757e-01    4.279634e-06
  1.114746e-01    4.279614e-06
  1.117736e-01    4.276267e-06
  1.120725e-01    4.264235e-06
  1.123714e-01    4.263805e-06
  1.126704e-01    4.250772e-06
  1.129693e-01    4.230496e-06
  1.132682e-01    4.194751e-06
  1.135671e-01    4.210644e-06
  1.138661e-01    4.218092e-06
  1.141650e-01    4.212231e-06
  1.144639e-01    4.216799e-06
  1.147629e-01    4.194808e-06
  1.150618e-01    4.163329e-06
  1.153607e-01    4.147385e-06
  1.156597e-01    4.140539e-06
  1.159586e-01    4.144790e-06
  1.162575e-01    4.157676e-06
  1.165564e-01    4.170396e-06
  1.168554e-01    4.187072e-06
  1.171543e-01    4.217759e-06
  1.174532e-01    4.193965e-06
  1.177522e-01    4.138135e-06
  1.180511e-01    4.131553e-06
  1.183500e-01    4.159489e-06
  1.186490e-01    4.131078e-06
  1.189479e-01    4.150034e-06
  1.192468e-01    4.104879e-06
  1.195458e-01    4.042819e-06
  1.198447e-01    4.074027e-06
  1.201436e-01    4.032705e-06
  1.204425e-01    4.066797e-06
  1.207415e-01    4.139823e-06
  1.210404e-01    3.763906e-06
  1.213393e-01    0.000000e+00
  1.216383e-01    0.000000e+00
  1.219372e-01    0.000000e+00
  1.222361e-01    0.000000e+00
  1.225351e-01    0.000000e+00
  1.228340e-01    0.000000e+00
  1.231329e-01    0.000000e+00
  1.234318e-01    0.000000e+00
  1.237308e-01    0.000000e+00
  1.240297e-01    0.000000e+00
  1.243286e-01    0.000000e+00
  1.246276e-01    0.000000e+00
  1.249265e-01    0.000000e+00
  1.252254e-01    0.000000e+00
  1.255244e-01    0.000000e+00
  1.258233e-01    0.000000e+00
  1.261222e-01    0.000000e+00
  1.264212e-01    0.000000e+00
  1.267201e-01    0.000000e+00
  1.270190e-01    0.000000e+00
  1.273179e-01    0.000000e+00
  1.276169e-01    0.000000e+00
  1.279158e-01    0.000000e+00
  1.282147e-01    0.000000e+00
  1.285137e-01    0.000000e+00
  1.288126e-01    0.000000e+00
  1.291115e-01    0.000000e+00
  1.294105e-01    0.000000e+00
  1.297094e-01    0.000000e+00
  1.300083e-01    0.000000e+00
  1.303072e-01    0.000000e+00
  1.306062e-01    0.000000e+00
  1.309051e-01    0.000000e+00
  1.312040e-01    0.000000e+00
  1.315030e-01    0.000000e+00
  1.318019e-01    0.000000e+00
  1.321008e-01    0.000000e+00
  1.323998e-01    0.000000e+00
  1.326987e-01    0.000000e+00
  1.329976e-01    0.000000e+00
  1.332965e-01    0.000000e+00
  1.335955e-01    0.000000e+00
  1.338944e-01    0.000000e+00
  1.341933e-01    0.000000e+00
  1.344923e-01    0.000000e+00
  1.347912e-01    0.000000e+00
  1.350901e-01    0.000000e+00
  1.353891e-01    0.000000e+00
  1.356880e-01    0.000000e+00
  1.359869e-01    0.000000e+00
  1.362859e-01    0.000000e+00
  1.365848e-01    0.000000e+00
  1.368837e-01    0.000000e+00
  1.371826e-01    0.000000e+00
  1.374816e-01    0.000000e+00
  1.377805e-01    0.000000e+00
  1.380794e-01    0.000000e+00
  1.383784e-01    0.000000e+00
  1.386773e-01    0.000000e+00
  1.389762e-01    0.000000e+00
  1.392752e-01    0.000000e+00
  1.395741e-01    0.000000e+00
  1.398730e-01    0.000000e+00
  1.401719e-01    0.000000e+00
  1.404709e-01    0.000000e+00
  1.407698e-01    0.000000e+00
  1.410687e-01    0.000000e+00
  1.413677e-01    0.000000e+00
  1.416666e-01    0.000000e+00
  1.419655e-01    0.000000e+00
  1.422645e-01    0.000000e+00
  1.425634e-01    0.000000e+00
  1.428623e-01    0.000000e+00
  1.431613e-01    0.000000e+00
  1.434602e-01    0.000000e+00
  1.437591e-01    0.000000e+00
  1.440580e-01    0.000000e+00
  1.443570e-01    0.000000e+00
  1.446559e-01    0.000000e+00
  1.449548e-01    0.000000e+00
  1.452538e-01    0.000000e+00
  1.455527e-01    0.000000e+00
  1.458516e-01    0.000000e+00
  1.461506e-01    0.000000e+00
  1.464495e-01    0.000000e+00
  1.467484e-01    0.000000e+00
  1.470473e-01    0.000000e+00
  1.473463e-01    0.000000e+00
  1.476452e-01    0.000000e+00
  1.479441e-01    0.000000e+00
  1.482431e-01    0.000000e+00
  1.485420e-01    0.000000e+00
  1.488409e-01    0.000000e+00
  1.491399e-01    0.000000e+00
  1.494388e-01    0.000000e+00
  1.497377e-01    0.000000e+00
  1.500367e-01    0.000000e+00
  1.503356e-01    0.000000e+00
  1.506345e-01    0.000000e+00
  1.509334e-01    0.000000e+00
  1.512324e-01    0.000000e+00
  1.515313e-01    0.000000e+00
  1.518302e-01    0.000000e+00
  1.521292e-01    0.000000e+00
  1.524281e-01    0.000000e+00
  1.527270e-01    0.000000e+00
  1.530260e-01    0.000000e+00
  1.533249e-01    0.000000e+00
  1.536238e-01    0.000000e+00
