# == pyFAI calibration ==
# Distance Sample to Detector: 2.266 m
# PONI: 5.659e-02, 4.293e-02 m
# Rotations: 0.000000 0.000000 0.000000 rad
# 
# == Fit2d calibration ==
# Distance Sample-beamCenter: 2266.000 mm
# Center: x=249.594, y=329.012 pix
# Tilt: 0.000 deg  TiltPlanRot: 0.000 deg
# 
# Detector Pilatus 300k	 PixelSize= 1.720e-04, 1.720e-04 m
#    Detector has a mask: True 
#    Detector has a dark current: False 
#    detector has a flat field: False 
# 
# Wavelength: 1.27818e-10 m
# Mask applied: user provided
# Dark current applied: False
# Flat field applied: False
# Polarization factor: None
# Normalization factor: 5114128.2
# --> MT-AL_F127_220225_7a290ccd-b70b-46e5-816c-8e60d65f798e_1_r1d.csv
#        q_A^-1             I 
  4.457554e-03    2.211600e-03
  4.756484e-03    1.708185e-03
  5.055415e-03    1.195533e-03
  5.354345e-03    8.233353e-04
  5.653276e-03    6.191354e-04
  5.952206e-03    1.016035e-03
  6.251136e-03    9.292953e-04
  6.550067e-03    8.085409e-04
  6.848997e-03    6.883190e-04
  7.147927e-03    5.807055e-04
  7.446858e-03    4.962573e-04
  7.745788e-03    4.245722e-04
  8.044719e-03    3.648988e-04
  8.343649e-03    3.186906e-04
  8.642579e-03    2.777277e-04
  8.941510e-03    2.436561e-04
  9.240440e-03    2.159503e-04
  9.539371e-03    1.912877e-04
  9.838301e-03    1.700060e-04
  1.013723e-02    1.527920e-04
  1.043616e-02    1.374863e-04
  1.073509e-02    1.231870e-04
  1.103402e-02    1.111319e-04
  1.133295e-02    1.006213e-04
  1.163188e-02    9.177787e-05
  1.193081e-02    8.363852e-05
  1.222974e-02    7.665894e-05
  1.252867e-02    7.059437e-05
  1.282760e-02    6.488962e-05
  1.312654e-02    5.998817e-05
  1.342547e-02    5.535299e-05
  1.372440e-02    5.091013e-05
  1.402333e-02    4.750015e-05
  1.432226e-02    4.435346e-05
  1.462119e-02    4.131448e-05
  1.492012e-02    3.852532e-05
  1.521905e-02    3.613497e-05
  1.551798e-02    3.387551e-05
  1.581691e-02    3.185754e-05
  1.611584e-02    3.012208e-05
  1.641477e-02    2.838199e-05
  1.671370e-02    2.662932e-05
  1.701263e-02    2.521869e-05
  1.731156e-02    2.397578e-05
  1.761049e-02    2.268582e-05
  1.790942e-02    2.160307e-05
  1.820835e-02    2.061780e-05
  1.850728e-02    1.975927e-05
  1.880621e-02    1.885610e-05
  1.910514e-02    1.802755e-05
  1.940407e-02    1.716928e-05
  1.970300e-02    1.658238e-05
  2.000193e-02    1.606598e-05
  2.030086e-02    1.542497e-05
  2.059979e-02    1.483810e-05
  2.089873e-02    1.439999e-05
  2.119766e-02    1.391275e-05
  2.149659e-02    1.335541e-05
  2.179552e-02    1.284520e-05
  2.209445e-02    1.260619e-05
  2.239338e-02    1.235918e-05
  2.269231e-02    1.201088e-05
  2.299124e-02    1.173172e-05
  2.329017e-02    1.142646e-05
  2.358910e-02    1.109642e-05
  2.388803e-02    1.085162e-05
  2.418696e-02    1.054659e-05
  2.448589e-02    1.032444e-05
  2.478482e-02    1.013184e-05
  2.508375e-02    9.929581e-06
  2.538268e-02    9.704250e-06
  2.568161e-02    9.519936e-06
  2.598054e-02    9.379841e-06
  2.627947e-02    9.329552e-06
  2.657840e-02    9.258602e-06
  2.687733e-02    8.985063e-06
  2.717626e-02    8.821399e-06
  2.747519e-02    8.835928e-06
  2.777412e-02    8.674491e-06
  2.807305e-02    8.469685e-06
  2.837198e-02    8.362472e-06
  2.867092e-02    8.248363e-06
  2.896985e-02    8.125799e-06
  2.926878e-02    8.065093e-06
  2.956771e-02    7.950985e-06
  2.986664e-02    7.938312e-06
  3.016557e-02    7.795647e-06
  3.046450e-02    7.739292e-06
  3.076343e-02    7.739787e-06
  3.106236e-02    7.593422e-06
  3.136129e-02    7.482650e-06
  3.166022e-02    7.430252e-06
  3.195915e-02    7.386252e-06
  3.225808e-02    7.309353e-06
  3.255701e-02    7.250434e-06
  3.285594e-02    7.227931e-06
  3.315487e-02    7.130581e-06
  3.345380e-02    7.129311e-06
  3.375273e-02    7.031923e-06
  3.405166e-02    6.995492e-06
  3.435059e-02    6.902513e-06
  3.464952e-02    6.802728e-06
  3.494845e-02    6.710732e-06
  3.524738e-02    6.614860e-06
  3.554631e-02    6.579290e-06
  3.584524e-02    6.583927e-06
  3.614417e-02    6.468354e-06
  3.644310e-02    6.396578e-06
  3.674204e-02    6.275443e-06
  3.704097e-02    6.325193e-06
  3.733990e-02    6.284644e-06
  3.763883e-02    6.168875e-06
  3.793776e-02    6.137353e-06
  3.823669e-02    6.139181e-06
  3.853562e-02    6.049080e-06
  3.883455e-02    6.024856e-06
  3.913348e-02    5.934097e-06
  3.943241e-02    5.890699e-06
  3.973134e-02    5.901395e-06
  4.003027e-02    5.811066e-06
  4.032920e-02    5.799898e-06
  4.062813e-02    5.872005e-06
  4.092706e-02    5.814134e-06
  4.122599e-02    5.835091e-06
  4.152492e-02    5.782082e-06
  4.182385e-02    5.717442e-06
  4.212278e-02    5.698062e-06
  4.242171e-02    5.622939e-06
  4.272064e-02    5.589708e-06
  4.301957e-02    5.638171e-06
  4.331850e-02    5.640859e-06
  4.361743e-02    5.627582e-06
  4.391636e-02    5.595211e-06
  4.421529e-02    5.574966e-06
  4.451423e-02    5.560471e-06
  4.481316e-02    5.551707e-06
  4.511209e-02    5.519299e-06
  4.541102e-02    5.478271e-06
  4.570995e-02    5.445926e-06
  4.600888e-02    5.455480e-06
  4.630781e-02    5.478984e-06
  4.660674e-02    5.504435e-06
  4.690567e-02    5.509558e-06
  4.720460e-02    5.443293e-06
  4.750353e-02    5.476498e-06
  4.780246e-02    5.463347e-06
  4.810139e-02    5.393755e-06
  4.840032e-02    5.435777e-06
  4.869925e-02    5.402650e-06
  4.899818e-02    5.366381e-06
  4.929711e-02    5.424039e-06
  4.959604e-02    5.430553e-06
  4.989497e-02    5.464599e-06
  5.019390e-02    5.457666e-06
  5.049283e-02    5.484950e-06
  5.079176e-02    5.501147e-06
  5.109069e-02    5.457453e-06
  5.138962e-02    5.479506e-06
  5.168855e-02    5.638905e-06
  5.198748e-02    5.821501e-06
  5.228642e-02    5.732879e-06
  5.258535e-02    5.497503e-06
  5.288428e-02    5.442259e-06
  5.318321e-02    5.474166e-06
  5.348214e-02    5.408851e-06
  5.378107e-02    5.405952e-06
  5.408000e-02    5.429959e-06
  5.437893e-02    5.435686e-06
  5.467786e-02    5.387774e-06
  5.497679e-02    5.329723e-06
  5.527572e-02    5.368224e-06
  5.557465e-02    5.432285e-06
  5.587358e-02    5.423121e-06
  5.617251e-02    5.387757e-06
  5.647144e-02    5.392941e-06
  5.677037e-02    5.423974e-06
  5.706930e-02    5.441434e-06
  5.736823e-02    5.446622e-06
  5.766716e-02    5.500645e-06
  5.796609e-02    5.484835e-06
  5.826502e-02    5.493055e-06
  5.856395e-02    5.499261e-06
  5.886288e-02    5.486547e-06
  5.916181e-02    5.467670e-06
  5.946074e-02    5.453398e-06
  5.975967e-02    5.480814e-06
  6.005861e-02    5.452897e-06
  6.035754e-02    5.468350e-06
  6.065647e-02    5.515431e-06
  6.095540e-02    5.559894e-06
  6.125433e-02    5.641109e-06
  6.155326e-02    5.689048e-06
  6.185219e-02    5.637557e-06
  6.215112e-02    5.607748e-06
  6.245005e-02    5.559504e-06
  6.274898e-02    5.575401e-06
  6.304791e-02    5.573363e-06
  6.334684e-02    5.542939e-06
  6.364577e-02    5.545083e-06
  6.394470e-02    5.611123e-06
  6.424363e-02    5.620710e-06
  6.454256e-02    5.617092e-06
  6.484149e-02    5.594279e-06
  6.514042e-02    5.548652e-06
  6.543935e-02    5.610306e-06
  6.573828e-02    5.634532e-06
  6.603721e-02    5.569146e-06
  6.633614e-02    5.636782e-06
  6.663507e-02    5.672207e-06
  6.693400e-02    5.650329e-06
  6.723293e-02    5.617855e-06
  6.753186e-02    5.629420e-06
  6.783080e-02    5.643037e-06
  6.812973e-02    5.676850e-06
  6.842866e-02    5.675168e-06
  6.872759e-02    5.685650e-06
  6.902652e-02    5.685236e-06
  6.932545e-02    5.690714e-06
  6.962438e-02    5.705442e-06
  6.992331e-02    5.736220e-06
  7.022224e-02    5.697583e-06
  7.052117e-02    5.705646e-06
  7.082010e-02    5.760418e-06
  7.111903e-02    5.767579e-06
  7.141796e-02    5.748670e-06
  7.171689e-02    5.748303e-06
  7.201582e-02    5.793444e-06
  7.231475e-02    5.790462e-06
  7.261368e-02    5.760586e-06
  7.291261e-02    5.775476e-06
  7.321154e-02    5.765284e-06
  7.351047e-02    5.795551e-06
  7.380940e-02    5.786294e-06
  7.410833e-02    5.758617e-06
  7.440726e-02    5.769531e-06
  7.470619e-02    5.786726e-06
  7.500512e-02    5.799432e-06
  7.530405e-02    5.791019e-06
  7.560299e-02    5.807134e-06
  7.590192e-02    5.789439e-06
  7.620085e-02    5.779081e-06
  7.649978e-02    5.728326e-06
  7.679871e-02    5.691462e-06
  7.709764e-02    5.739081e-06
  7.739657e-02    5.759567e-06
  7.769550e-02    5.757784e-06
  7.799443e-02    5.746394e-06
  7.829336e-02    5.764054e-06
  7.859229e-02    5.759829e-06
  7.889122e-02    5.738835e-06
  7.919015e-02    5.725947e-06
  7.948908e-02    5.684526e-06
  7.978801e-02    5.703613e-06
  8.008694e-02    5.738250e-06
  8.038587e-02    5.744384e-06
  8.068480e-02    5.715087e-06
  8.098373e-02    5.687899e-06
  8.128266e-02    5.691647e-06
  8.158159e-02    5.707232e-06
  8.188052e-02    5.703519e-06
  8.217945e-02    5.702525e-06
  8.247838e-02    5.668118e-06
  8.277731e-02    5.655910e-06
  8.307624e-02    5.647652e-06
  8.337518e-02    5.626377e-06
  8.367411e-02    5.642455e-06
  8.397304e-02    5.630627e-06
  8.427197e-02    5.639551e-06
  8.457090e-02    5.625784e-06
  8.486983e-02    5.666065e-06
  8.516876e-02    5.619298e-06
  8.546769e-02    5.583738e-06
  8.576662e-02    5.602375e-06
  8.606555e-02    5.579682e-06
  8.636448e-02    5.550623e-06
  8.666341e-02    5.578338e-06
  8.696234e-02    5.556251e-06
  8.726127e-02    5.513491e-06
  8.756020e-02    5.477271e-06
  8.785913e-02    5.493121e-06
  8.815806e-02    5.500246e-06
  8.845699e-02    5.473149e-06
  8.875592e-02    5.474710e-06
  8.905485e-02    5.478502e-06
  8.935378e-02    5.449106e-06
  8.965271e-02    5.449318e-06
  8.995164e-02    5.439377e-06
  9.025057e-02    5.433487e-06
  9.054950e-02    5.411294e-06
  9.084843e-02    5.398517e-06
  9.114737e-02    5.389900e-06
  9.144630e-02    5.382571e-06
  9.174523e-02    5.386664e-06
  9.204416e-02    5.342669e-06
  9.234309e-02    5.344478e-06
  9.264202e-02    5.356469e-06
  9.294095e-02    5.311708e-06
  9.323988e-02    5.314690e-06
  9.353881e-02    5.330112e-06
  9.383774e-02    5.291677e-06
  9.413667e-02    5.285431e-06
  9.443560e-02    5.275335e-06
  9.473453e-02    5.280259e-06
  9.503346e-02    5.251793e-06
  9.533239e-02    5.254878e-06
  9.563132e-02    5.250353e-06
  9.593025e-02    5.259009e-06
  9.622918e-02    5.262254e-06
  9.652811e-02    5.274957e-06
  9.682704e-02    5.283884e-06
  9.712597e-02    5.281914e-06
  9.742490e-02    5.259569e-06
  9.772383e-02    5.251917e-06
  9.802276e-02    5.212535e-06
  9.832169e-02    5.160425e-06
  9.862062e-02    5.139435e-06
  9.891956e-02    5.139465e-06
  9.921849e-02    5.119958e-06
  9.951742e-02    5.087512e-06
  9.981635e-02    5.100316e-06
  1.001153e-01    5.048432e-06
  1.004142e-01    5.038649e-06
  1.007131e-01    5.099793e-06
  1.010121e-01    5.110905e-06
  1.013110e-01    5.053462e-06
  1.016099e-01    5.037200e-06
  1.019089e-01    5.019160e-06
  1.022078e-01    5.018940e-06
  1.025067e-01    5.038745e-06
  1.028057e-01    5.017748e-06
  1.031046e-01    5.005177e-06
  1.034035e-01    4.964212e-06
  1.037024e-01    4.930514e-06
  1.040014e-01    4.969769e-06
  1.043003e-01    5.011872e-06
  1.045992e-01    4.992306e-06
  1.048982e-01    4.980090e-06
  1.051971e-01    4.954749e-06
  1.054960e-01    4.893398e-06
  1.057950e-01    4.924683e-06
  1.060939e-01    4.913848e-06
  1.063928e-01    4.874038e-06
  1.066917e-01    4.870749e-06
  1.069907e-01    4.886606e-06
  1.072896e-01    4.856483e-06
  1.075885e-01    4.844848e-06
  1.078875e-01    4.840248e-06
  1.081864e-01    4.857875e-06
  1.084853e-01    4.870392e-06
  1.087843e-01    4.866999e-06
  1.090832e-01    4.876737e-06
  1.093821e-01    4.837142e-06
  1.096810e-01    4.758447e-06
  1.099800e-01    4.757735e-06
  1.102789e-01    4.777010e-06
  1.105778e-01    4.720110e-06
  1.108768e-01    4.712652e-06
  1.111757e-01    4.720482e-06
  1.114746e-01    4.665936e-06
  1.117736e-01    4.660656e-06
  1.120725e-01    4.713267e-06
  1.123714e-01    4.717943e-06
  1.126704e-01    4.725927e-06
  1.129693e-01    4.663043e-06
  1.132682e-01    4.634939e-06
  1.135671e-01    4.661670e-06
  1.138661e-01    4.613282e-06
  1.141650e-01    4.605842e-06
  1.144639e-01    4.585302e-06
  1.147629e-01    4.573204e-06
  1.150618e-01    4.606064e-06
  1.153607e-01    4.586387e-06
  1.156597e-01    4.594099e-06
  1.159586e-01    4.591664e-06
  1.162575e-01    4.604892e-06
  1.165564e-01    4.564818e-06
  1.168554e-01    4.511914e-06
  1.171543e-01    4.468084e-06
  1.174532e-01    4.472338e-06
  1.177522e-01    4.553705e-06
  1.180511e-01    4.614928e-06
  1.183500e-01    4.599287e-06
  1.186490e-01    4.597164e-06
  1.189479e-01    4.557670e-06
  1.192468e-01    4.542710e-06
  1.195458e-01    4.469820e-06
  1.198447e-01    4.349220e-06
  1.201436e-01    4.432599e-06
  1.204425e-01    4.423658e-06
  1.207415e-01    4.129782e-06
  1.210404e-01    3.522850e-06
  1.213393e-01    0.000000e+00
  1.216383e-01    0.000000e+00
  1.219372e-01    0.000000e+00
  1.222361e-01    0.000000e+00
  1.225351e-01    0.000000e+00
  1.228340e-01    0.000000e+00
  1.231329e-01    0.000000e+00
  1.234318e-01    0.000000e+00
  1.237308e-01    0.000000e+00
  1.240297e-01    0.000000e+00
  1.243286e-01    0.000000e+00
  1.246276e-01    0.000000e+00
  1.249265e-01    0.000000e+00
  1.252254e-01    0.000000e+00
  1.255244e-01    0.000000e+00
  1.258233e-01    0.000000e+00
  1.261222e-01    0.000000e+00
  1.264212e-01    0.000000e+00
  1.267201e-01    0.000000e+00
  1.270190e-01    0.000000e+00
  1.273179e-01    0.000000e+00
  1.276169e-01    0.000000e+00
  1.279158e-01    0.000000e+00
  1.282147e-01    0.000000e+00
  1.285137e-01    0.000000e+00
  1.288126e-01    0.000000e+00
  1.291115e-01    0.000000e+00
  1.294105e-01    0.000000e+00
  1.297094e-01    0.000000e+00
  1.300083e-01    0.000000e+00
  1.303072e-01    0.000000e+00
  1.306062e-01    0.000000e+00
  1.309051e-01    0.000000e+00
  1.312040e-01    0.000000e+00
  1.315030e-01    0.000000e+00
  1.318019e-01    0.000000e+00
  1.321008e-01    0.000000e+00
  1.323998e-01    0.000000e+00
  1.326987e-01    0.000000e+00
  1.329976e-01    0.000000e+00
  1.332965e-01    0.000000e+00
  1.335955e-01    0.000000e+00
  1.338944e-01    0.000000e+00
  1.341933e-01    0.000000e+00
  1.344923e-01    0.000000e+00
  1.347912e-01    0.000000e+00
  1.350901e-01    0.000000e+00
  1.353891e-01    0.000000e+00
  1.356880e-01    0.000000e+00
  1.359869e-01    0.000000e+00
  1.362859e-01    0.000000e+00
  1.365848e-01    0.000000e+00
  1.368837e-01    0.000000e+00
  1.371826e-01    0.000000e+00
  1.374816e-01    0.000000e+00
  1.377805e-01    0.000000e+00
  1.380794e-01    0.000000e+00
  1.383784e-01    0.000000e+00
  1.386773e-01    0.000000e+00
  1.389762e-01    0.000000e+00
  1.392752e-01    0.000000e+00
  1.395741e-01    0.000000e+00
  1.398730e-01    0.000000e+00
  1.401719e-01    0.000000e+00
  1.404709e-01    0.000000e+00
  1.407698e-01    0.000000e+00
  1.410687e-01    0.000000e+00
  1.413677e-01    0.000000e+00
  1.416666e-01    0.000000e+00
  1.419655e-01    0.000000e+00
  1.422645e-01    0.000000e+00
  1.425634e-01    0.000000e+00
  1.428623e-01    0.000000e+00
  1.431613e-01    0.000000e+00
  1.434602e-01    0.000000e+00
  1.437591e-01    0.000000e+00
  1.440580e-01    0.000000e+00
  1.443570e-01    0.000000e+00
  1.446559e-01    0.000000e+00
  1.449548e-01    0.000000e+00
  1.452538e-01    0.000000e+00
  1.455527e-01    0.000000e+00
  1.458516e-01    0.000000e+00
  1.461506e-01    0.000000e+00
  1.464495e-01    0.000000e+00
  1.467484e-01    0.000000e+00
  1.470473e-01    0.000000e+00
  1.473463e-01    0.000000e+00
  1.476452e-01    0.000000e+00
  1.479441e-01    0.000000e+00
  1.482431e-01    0.000000e+00
  1.485420e-01    0.000000e+00
  1.488409e-01    0.000000e+00
  1.491399e-01    0.000000e+00
  1.494388e-01    0.000000e+00
  1.497377e-01    0.000000e+00
  1.500367e-01    0.000000e+00
  1.503356e-01    0.000000e+00
  1.506345e-01    0.000000e+00
  1.509334e-01    0.000000e+00
  1.512324e-01    0.000000e+00
  1.515313e-01    0.000000e+00
  1.518302e-01    0.000000e+00
  1.521292e-01    0.000000e+00
  1.524281e-01    0.000000e+00
  1.527270e-01    0.000000e+00
  1.530260e-01    0.000000e+00
  1.533249e-01    0.000000e+00
  1.536238e-01    0.000000e+00
