# == pyFAI calibration ==
# Distance Sample to Detector: 2.266 m
# PONI: 5.659e-02, 4.293e-02 m
# Rotations: 0.000000 0.000000 0.000000 rad
# 
# == Fit2d calibration ==
# Distance Sample-beamCenter: 2266.000 mm
# Center: x=249.594, y=329.012 pix
# Tilt: 0.000 deg  TiltPlanRot: 0.000 deg
# 
# Detector Pilatus 300k	 PixelSize= 1.720e-04, 1.720e-04 m
#    Detector has a mask: True 
#    Detector has a dark current: False 
#    detector has a flat field: False 
# 
# Wavelength: 1.27818e-10 m
# Mask applied: user provided
# Dark current applied: False
# Flat field applied: False
# Polarization factor: None
# Normalization factor: 10241370.4
# --> MT-AL_F127_220301_8998a976-ecfc-4220-861c-2ed148312fab_0_r1d.csv
#        q_A^-1             I 
  4.457554e-03    1.449347e-03
  4.756484e-03    1.107136e-03
  5.055415e-03    7.663837e-04
  5.354345e-03    5.279216e-04
  5.653276e-03    3.976963e-04
  5.952206e-03    6.301060e-04
  6.251136e-03    5.759688e-04
  6.550067e-03    5.014634e-04
  6.848997e-03    4.286901e-04
  7.147927e-03    3.626509e-04
  7.446858e-03    3.093438e-04
  7.745788e-03    2.649929e-04
  8.044719e-03    2.277390e-04
  8.343649e-03    1.989037e-04
  8.642579e-03    1.743573e-04
  8.941510e-03    1.537854e-04
  9.240440e-03    1.357270e-04
  9.539371e-03    1.207801e-04
  9.838301e-03    1.078165e-04
  1.013723e-02    9.621679e-05
  1.043616e-02    8.637553e-05
  1.073509e-02    7.754105e-05
  1.103402e-02    7.032190e-05
  1.133295e-02    6.400512e-05
  1.163188e-02    5.823813e-05
  1.193081e-02    5.328710e-05
  1.222974e-02    4.867760e-05
  1.252867e-02    4.462198e-05
  1.282760e-02    4.126022e-05
  1.312654e-02    3.821672e-05
  1.342547e-02    3.538120e-05
  1.372440e-02    3.262520e-05
  1.402333e-02    3.024349e-05
  1.432226e-02    2.815348e-05
  1.462119e-02    2.634679e-05
  1.492012e-02    2.466324e-05
  1.521905e-02    2.306259e-05
  1.551798e-02    2.160786e-05
  1.581691e-02    2.035649e-05
  1.611584e-02    1.920910e-05
  1.641477e-02    1.806126e-05
  1.671370e-02    1.712680e-05
  1.701263e-02    1.631004e-05
  1.731156e-02    1.541051e-05
  1.761049e-02    1.465091e-05
  1.790942e-02    1.404207e-05
  1.820835e-02    1.339301e-05
  1.850728e-02    1.278528e-05
  1.880621e-02    1.227587e-05
  1.910514e-02    1.175520e-05
  1.940407e-02    1.129694e-05
  1.970300e-02    1.089722e-05
  2.000193e-02    1.045402e-05
  2.030086e-02    1.004021e-05
  2.059979e-02    9.683972e-06
  2.089873e-02    9.388858e-06
  2.119766e-02    9.114034e-06
  2.149659e-02    8.789742e-06
  2.179552e-02    8.527616e-06
  2.209445e-02    8.230485e-06
  2.239338e-02    8.044399e-06
  2.269231e-02    7.789180e-06
  2.299124e-02    7.601983e-06
  2.329017e-02    7.426941e-06
  2.358910e-02    7.244128e-06
  2.388803e-02    7.099716e-06
  2.418696e-02    6.908525e-06
  2.448589e-02    6.769297e-06
  2.478482e-02    6.630380e-06
  2.508375e-02    6.498275e-06
  2.538268e-02    6.368541e-06
  2.568161e-02    6.252801e-06
  2.598054e-02    6.186034e-06
  2.627947e-02    6.132827e-06
  2.657840e-02    6.032129e-06
  2.687733e-02    5.942520e-06
  2.717626e-02    5.777832e-06
  2.747519e-02    5.687330e-06
  2.777412e-02    5.628620e-06
  2.807305e-02    5.549642e-06
  2.837198e-02    5.524213e-06
  2.867092e-02    5.450090e-06
  2.896985e-02    5.331972e-06
  2.926878e-02    5.237602e-06
  2.956771e-02    5.225681e-06
  2.986664e-02    5.217540e-06
  3.016557e-02    5.143354e-06
  3.046450e-02    5.108774e-06
  3.076343e-02    5.063855e-06
  3.106236e-02    4.976082e-06
  3.136129e-02    4.915908e-06
  3.166022e-02    4.870429e-06
  3.195915e-02    4.819684e-06
  3.225808e-02    4.766150e-06
  3.255701e-02    4.701918e-06
  3.285594e-02    4.709977e-06
  3.315487e-02    4.663228e-06
  3.345380e-02    4.592822e-06
  3.375273e-02    4.580826e-06
  3.405166e-02    4.506388e-06
  3.435059e-02    4.428546e-06
  3.464952e-02    4.423160e-06
  3.494845e-02    4.421405e-06
  3.524738e-02    4.422736e-06
  3.554631e-02    4.358936e-06
  3.584524e-02    4.269410e-06
  3.614417e-02    4.221478e-06
  3.644310e-02    4.206498e-06
  3.674204e-02    4.207748e-06
  3.704097e-02    4.171967e-06
  3.733990e-02    4.112703e-06
  3.763883e-02    4.062394e-06
  3.793776e-02    4.025094e-06
  3.823669e-02    3.986162e-06
  3.853562e-02    3.958181e-06
  3.883455e-02    3.933395e-06
  3.913348e-02    3.904567e-06
  3.943241e-02    3.876582e-06
  3.973134e-02    3.874386e-06
  4.003027e-02    3.880696e-06
  4.032920e-02    3.857255e-06
  4.062813e-02    3.808464e-06
  4.092706e-02    3.810106e-06
  4.122599e-02    3.776182e-06
  4.152492e-02    3.736909e-06
  4.182385e-02    3.728434e-06
  4.212278e-02    3.722242e-06
  4.242171e-02    3.688284e-06
  4.272064e-02    3.669782e-06
  4.301957e-02    3.655240e-06
  4.331850e-02    3.643010e-06
  4.361743e-02    3.657504e-06
  4.391636e-02    3.642889e-06
  4.421529e-02    3.615649e-06
  4.451423e-02    3.608787e-06
  4.481316e-02    3.630911e-06
  4.511209e-02    3.595396e-06
  4.541102e-02    3.610457e-06
  4.570995e-02    3.651264e-06
  4.600888e-02    3.629813e-06
  4.630781e-02    3.594844e-06
  4.660674e-02    3.584464e-06
  4.690567e-02    3.579298e-06
  4.720460e-02    3.598871e-06
  4.750353e-02    3.589986e-06
  4.780246e-02    3.571041e-06
  4.810139e-02    3.554881e-06
  4.840032e-02    3.549462e-06
  4.869925e-02    3.537092e-06
  4.899818e-02    3.563722e-06
  4.929711e-02    3.576025e-06
  4.959604e-02    3.549985e-06
  4.989497e-02    3.546391e-06
  5.019390e-02    3.519111e-06
  5.049283e-02    3.542776e-06
  5.079176e-02    3.548916e-06
  5.109069e-02    3.560081e-06
  5.138962e-02    3.610823e-06
  5.168855e-02    3.673886e-06
  5.198748e-02    3.770900e-06
  5.228642e-02    3.746941e-06
  5.258535e-02    3.587536e-06
  5.288428e-02    3.496447e-06
  5.318321e-02    3.475883e-06
  5.348214e-02    3.487299e-06
  5.378107e-02    3.506334e-06
  5.408000e-02    3.518290e-06
  5.437893e-02    3.505142e-06
  5.467786e-02    3.495586e-06
  5.497679e-02    3.492143e-06
  5.527572e-02    3.513652e-06
  5.557465e-02    3.522546e-06
  5.587358e-02    3.510575e-06
  5.617251e-02    3.490574e-06
  5.647144e-02    3.520627e-06
  5.677037e-02    3.528893e-06
  5.706930e-02    3.491374e-06
  5.736823e-02    3.503857e-06
  5.766716e-02    3.526548e-06
  5.796609e-02    3.526985e-06
  5.826502e-02    3.522938e-06
  5.856395e-02    3.547808e-06
  5.886288e-02    3.558609e-06
  5.916181e-02    3.514900e-06
  5.946074e-02    3.529132e-06
  5.975967e-02    3.591116e-06
  6.005861e-02    3.583120e-06
  6.035754e-02    3.578809e-06
  6.065647e-02    3.584349e-06
  6.095540e-02    3.591965e-06
  6.125433e-02    3.687102e-06
  6.155326e-02    3.731264e-06
  6.185219e-02    3.646122e-06
  6.215112e-02    3.606922e-06
  6.245005e-02    3.590183e-06
  6.274898e-02    3.583947e-06
  6.304791e-02    3.590857e-06
  6.334684e-02    3.609106e-06
  6.364577e-02    3.624510e-06
  6.394470e-02    3.632751e-06
  6.424363e-02    3.628616e-06
  6.454256e-02    3.613186e-06
  6.484149e-02    3.614825e-06
  6.514042e-02    3.604383e-06
  6.543935e-02    3.612902e-06
  6.573828e-02    3.638754e-06
  6.603721e-02    3.633491e-06
  6.633614e-02    3.637252e-06
  6.663507e-02    3.655685e-06
  6.693400e-02    3.644058e-06
  6.723293e-02    3.669540e-06
  6.753186e-02    3.692414e-06
  6.783080e-02    3.697242e-06
  6.812973e-02    3.696310e-06
  6.842866e-02    3.682126e-06
  6.872759e-02    3.694088e-06
  6.902652e-02    3.713301e-06
  6.932545e-02    3.713393e-06
  6.962438e-02    3.689943e-06
  6.992331e-02    3.696292e-06
  7.022224e-02    3.714880e-06
  7.052117e-02    3.720545e-06
  7.082010e-02    3.695142e-06
  7.111903e-02    3.699773e-06
  7.141796e-02    3.746836e-06
  7.171689e-02    3.750505e-06
  7.201582e-02    3.747196e-06
  7.231475e-02    3.736972e-06
  7.261368e-02    3.731807e-06
  7.291261e-02    3.736985e-06
  7.321154e-02    3.741732e-06
  7.351047e-02    3.754884e-06
  7.380940e-02    3.750780e-06
  7.410833e-02    3.756562e-06
  7.440726e-02    3.782552e-06
  7.470619e-02    3.769530e-06
  7.500512e-02    3.763691e-06
  7.530405e-02    3.786694e-06
  7.560299e-02    3.787886e-06
  7.590192e-02    3.760398e-06
  7.620085e-02    3.759195e-06
  7.649978e-02    3.755185e-06
  7.679871e-02    3.734213e-06
  7.709764e-02    3.748439e-06
  7.739657e-02    3.776981e-06
  7.769550e-02    3.772595e-06
  7.799443e-02    3.764055e-06
  7.829336e-02    3.761202e-06
  7.859229e-02    3.752285e-06
  7.889122e-02    3.753265e-06
  7.919015e-02    3.741480e-06
  7.948908e-02    3.765448e-06
  7.978801e-02    3.754137e-06
  8.008694e-02    3.748564e-06
  8.038587e-02    3.767755e-06
  8.068480e-02    3.752321e-06
  8.098373e-02    3.743112e-06
  8.128266e-02    3.742836e-06
  8.158159e-02    3.747785e-06
  8.188052e-02    3.739181e-06
  8.217945e-02    3.712013e-06
  8.247838e-02    3.704279e-06
  8.277731e-02    3.707825e-06
  8.307624e-02    3.714462e-06
  8.337518e-02    3.719271e-06
  8.367411e-02    3.681807e-06
  8.397304e-02    3.658587e-06
  8.427197e-02    3.681849e-06
  8.457090e-02    3.678499e-06
  8.486983e-02    3.683695e-06
  8.516876e-02    3.663863e-06
  8.546769e-02    3.657511e-06
  8.576662e-02    3.645823e-06
  8.606555e-02    3.642219e-06
  8.636448e-02    3.642553e-06
  8.666341e-02    3.638292e-06
  8.696234e-02    3.638724e-06
  8.726127e-02    3.627844e-06
  8.756020e-02    3.624099e-06
  8.785913e-02    3.623563e-06
  8.815806e-02    3.631980e-06
  8.845699e-02    3.621192e-06
  8.875592e-02    3.601562e-06
  8.905485e-02    3.591432e-06
  8.935378e-02    3.588201e-06
  8.965271e-02    3.578461e-06
  8.995164e-02    3.574001e-06
  9.025057e-02    3.576093e-06
  9.054950e-02    3.541897e-06
  9.084843e-02    3.525778e-06
  9.114737e-02    3.529022e-06
  9.144630e-02    3.520899e-06
  9.174523e-02    3.526887e-06
  9.204416e-02    3.536256e-06
  9.234309e-02    3.528511e-06
  9.264202e-02    3.515027e-06
  9.294095e-02    3.494914e-06
  9.323988e-02    3.503197e-06
  9.353881e-02    3.497762e-06
  9.383774e-02    3.494751e-06
  9.413667e-02    3.488579e-06
  9.443560e-02    3.447984e-06
  9.473453e-02    3.452210e-06
  9.503346e-02    3.483395e-06
  9.533239e-02    3.475044e-06
  9.563132e-02    3.463481e-06
  9.593025e-02    3.458377e-06
  9.622918e-02    3.471324e-06
  9.652811e-02    3.479522e-06
  9.682704e-02    3.486008e-06
  9.712597e-02    3.491505e-06
  9.742490e-02    3.475319e-06
  9.772383e-02    3.457965e-06
  9.802276e-02    3.442361e-06
  9.832169e-02    3.435031e-06
  9.862062e-02    3.410198e-06
  9.891956e-02    3.387399e-06
  9.921849e-02    3.367590e-06
  9.951742e-02    3.353719e-06
  9.981635e-02    3.339518e-06
  1.001153e-01    3.325143e-06
  1.004142e-01    3.327928e-06
  1.007131e-01    3.357184e-06
  1.010121e-01    3.359849e-06
  1.013110e-01    3.324293e-06
  1.016099e-01    3.311686e-06
  1.019089e-01    3.319311e-06
  1.022078e-01    3.292856e-06
  1.025067e-01    3.264564e-06
  1.028057e-01    3.275682e-06
  1.031046e-01    3.298362e-06
  1.034035e-01    3.293787e-06
  1.037024e-01    3.276796e-06
  1.040014e-01    3.263875e-06
  1.043003e-01    3.261033e-06
  1.045992e-01    3.257643e-06
  1.048982e-01    3.266370e-06
  1.051971e-01    3.267607e-06
  1.054960e-01    3.236080e-06
  1.057950e-01    3.226275e-06
  1.060939e-01    3.210796e-06
  1.063928e-01    3.221252e-06
  1.066917e-01    3.199808e-06
  1.069907e-01    3.197787e-06
  1.072896e-01    3.204054e-06
  1.075885e-01    3.175014e-06
  1.078875e-01    3.174658e-06
  1.081864e-01    3.190278e-06
  1.084853e-01    3.199854e-06
  1.087843e-01    3.204622e-06
  1.090832e-01    3.191520e-06
  1.093821e-01    3.165103e-06
  1.096810e-01    3.157519e-06
  1.099800e-01    3.182473e-06
  1.102789e-01    3.175438e-06
  1.105778e-01    3.135042e-06
  1.108768e-01    3.129572e-06
  1.111757e-01    3.116107e-06
  1.114746e-01    3.099069e-06
  1.117736e-01    3.115397e-06
  1.120725e-01    3.125980e-06
  1.123714e-01    3.083678e-06
  1.126704e-01    3.086298e-06
  1.129693e-01    3.071996e-06
  1.132682e-01    3.056185e-06
  1.135671e-01    3.033188e-06
  1.138661e-01    3.022305e-06
  1.141650e-01    3.029480e-06
  1.144639e-01    3.032180e-06
  1.147629e-01    3.031390e-06
  1.150618e-01    3.059444e-06
  1.153607e-01    3.036408e-06
  1.156597e-01    3.006594e-06
  1.159586e-01    3.004998e-06
  1.162575e-01    3.000313e-06
  1.165564e-01    2.989764e-06
  1.168554e-01    2.996747e-06
  1.171543e-01    3.000832e-06
  1.174532e-01    3.002614e-06
  1.177522e-01    3.015266e-06
  1.180511e-01    2.988871e-06
  1.183500e-01    2.986347e-06
  1.186490e-01    2.978465e-06
  1.189479e-01    2.966675e-06
  1.192468e-01    2.966056e-06
  1.195458e-01    2.977857e-06
  1.198447e-01    3.028213e-06
  1.201436e-01    2.926791e-06
  1.204425e-01    2.971602e-06
  1.207415e-01    3.056077e-06
  1.210404e-01    2.638754e-06
  1.213393e-01    0.000000e+00
  1.216383e-01    0.000000e+00
  1.219372e-01    0.000000e+00
  1.222361e-01    0.000000e+00
  1.225351e-01    0.000000e+00
  1.228340e-01    0.000000e+00
  1.231329e-01    0.000000e+00
  1.234318e-01    0.000000e+00
  1.237308e-01    0.000000e+00
  1.240297e-01    0.000000e+00
  1.243286e-01    0.000000e+00
  1.246276e-01    0.000000e+00
  1.249265e-01    0.000000e+00
  1.252254e-01    0.000000e+00
  1.255244e-01    0.000000e+00
  1.258233e-01    0.000000e+00
  1.261222e-01    0.000000e+00
  1.264212e-01    0.000000e+00
  1.267201e-01    0.000000e+00
  1.270190e-01    0.000000e+00
  1.273179e-01    0.000000e+00
  1.276169e-01    0.000000e+00
  1.279158e-01    0.000000e+00
  1.282147e-01    0.000000e+00
  1.285137e-01    0.000000e+00
  1.288126e-01    0.000000e+00
  1.291115e-01    0.000000e+00
  1.294105e-01    0.000000e+00
  1.297094e-01    0.000000e+00
  1.300083e-01    0.000000e+00
  1.303072e-01    0.000000e+00
  1.306062e-01    0.000000e+00
  1.309051e-01    0.000000e+00
  1.312040e-01    0.000000e+00
  1.315030e-01    0.000000e+00
  1.318019e-01    0.000000e+00
  1.321008e-01    0.000000e+00
  1.323998e-01    0.000000e+00
  1.326987e-01    0.000000e+00
  1.329976e-01    0.000000e+00
  1.332965e-01    0.000000e+00
  1.335955e-01    0.000000e+00
  1.338944e-01    0.000000e+00
  1.341933e-01    0.000000e+00
  1.344923e-01    0.000000e+00
  1.347912e-01    0.000000e+00
  1.350901e-01    0.000000e+00
  1.353891e-01    0.000000e+00
  1.356880e-01    0.000000e+00
  1.359869e-01    0.000000e+00
  1.362859e-01    0.000000e+00
  1.365848e-01    0.000000e+00
  1.368837e-01    0.000000e+00
  1.371826e-01    0.000000e+00
  1.374816e-01    0.000000e+00
  1.377805e-01    0.000000e+00
  1.380794e-01    0.000000e+00
  1.383784e-01    0.000000e+00
  1.386773e-01    0.000000e+00
  1.389762e-01    0.000000e+00
  1.392752e-01    0.000000e+00
  1.395741e-01    0.000000e+00
  1.398730e-01    0.000000e+00
  1.401719e-01    0.000000e+00
  1.404709e-01    0.000000e+00
  1.407698e-01    0.000000e+00
  1.410687e-01    0.000000e+00
  1.413677e-01    0.000000e+00
  1.416666e-01    0.000000e+00
  1.419655e-01    0.000000e+00
  1.422645e-01    0.000000e+00
  1.425634e-01    0.000000e+00
  1.428623e-01    0.000000e+00
  1.431613e-01    0.000000e+00
  1.434602e-01    0.000000e+00
  1.437591e-01    0.000000e+00
  1.440580e-01    0.000000e+00
  1.443570e-01    0.000000e+00
  1.446559e-01    0.000000e+00
  1.449548e-01    0.000000e+00
  1.452538e-01    0.000000e+00
  1.455527e-01    0.000000e+00
  1.458516e-01    0.000000e+00
  1.461506e-01    0.000000e+00
  1.464495e-01    0.000000e+00
  1.467484e-01    0.000000e+00
  1.470473e-01    0.000000e+00
  1.473463e-01    0.000000e+00
  1.476452e-01    0.000000e+00
  1.479441e-01    0.000000e+00
  1.482431e-01    0.000000e+00
  1.485420e-01    0.000000e+00
  1.488409e-01    0.000000e+00
  1.491399e-01    0.000000e+00
  1.494388e-01    0.000000e+00
  1.497377e-01    0.000000e+00
  1.500367e-01    0.000000e+00
  1.503356e-01    0.000000e+00
  1.506345e-01    0.000000e+00
  1.509334e-01    0.000000e+00
  1.512324e-01    0.000000e+00
  1.515313e-01    0.000000e+00
  1.518302e-01    0.000000e+00
  1.521292e-01    0.000000e+00
  1.524281e-01    0.000000e+00
  1.527270e-01    0.000000e+00
  1.530260e-01    0.000000e+00
  1.533249e-01    0.000000e+00
  1.536238e-01    0.000000e+00
