# == pyFAI calibration ==
# Distance Sample to Detector: 2.266 m
# PONI: 5.659e-02, 4.293e-02 m
# Rotations: 0.000000 0.000000 0.000000 rad
# 
# == Fit2d calibration ==
# Distance Sample-beamCenter: 2266.000 mm
# Center: x=249.594, y=329.012 pix
# Tilt: 0.000 deg  TiltPlanRot: 0.000 deg
# 
# Detector Pilatus 300k	 PixelSize= 1.720e-04, 1.720e-04 m
#    Detector has a mask: True 
#    Detector has a dark current: False 
#    detector has a flat field: False 
# 
# Wavelength: 1.27818e-10 m
# Mask applied: user provided
# Dark current applied: False
# Flat field applied: False
# Polarization factor: None
# Normalization factor: 26081802.6
# --> MT-AL_F127_220301_21f5b60a-a342-4e72-9228-4184ff21cca2_1_r1d.csv
#        q_A^-1             I 
  4.457554e-03    1.750143e-03
  4.756484e-03    1.378665e-03
  5.055415e-03    9.986603e-04
  5.354345e-03    7.164718e-04
  5.653276e-03    5.660899e-04
  5.952206e-03    9.111422e-04
  6.251136e-03    8.259533e-04
  6.550067e-03    7.110371e-04
  6.848997e-03    6.014543e-04
  7.147927e-03    5.078326e-04
  7.446858e-03    4.333409e-04
  7.745788e-03    3.722397e-04
  8.044719e-03    3.218219e-04
  8.343649e-03    2.813632e-04
  8.642579e-03    2.461113e-04
  8.941510e-03    2.166517e-04
  9.240440e-03    1.921182e-04
  9.539371e-03    1.707487e-04
  9.838301e-03    1.521773e-04
  1.013723e-02    1.366335e-04
  1.043616e-02    1.231963e-04
  1.073509e-02    1.108790e-04
  1.103402e-02    1.003452e-04
  1.133295e-02    9.111645e-05
  1.163188e-02    8.303980e-05
  1.193081e-02    7.601301e-05
  1.222974e-02    6.969596e-05
  1.252867e-02    6.395853e-05
  1.282760e-02    5.895846e-05
  1.312654e-02    5.455972e-05
  1.342547e-02    5.037378e-05
  1.372440e-02    4.671788e-05
  1.402333e-02    4.346501e-05
  1.432226e-02    4.045706e-05
  1.462119e-02    3.765355e-05
  1.492012e-02    3.524174e-05
  1.521905e-02    3.304136e-05
  1.551798e-02    3.100261e-05
  1.581691e-02    2.916776e-05
  1.611584e-02    2.740426e-05
  1.641477e-02    2.584184e-05
  1.671370e-02    2.447347e-05
  1.701263e-02    2.315675e-05
  1.731156e-02    2.199805e-05
  1.761049e-02    2.095071e-05
  1.790942e-02    1.993446e-05
  1.820835e-02    1.893872e-05
  1.850728e-02    1.801993e-05
  1.880621e-02    1.725211e-05
  1.910514e-02    1.655381e-05
  1.940407e-02    1.583019e-05
  1.970300e-02    1.515277e-05
  2.000193e-02    1.466363e-05
  2.030086e-02    1.408718e-05
  2.059979e-02    1.352568e-05
  2.089873e-02    1.310138e-05
  2.119766e-02    1.269361e-05
  2.149659e-02    1.226919e-05
  2.179552e-02    1.182183e-05
  2.209445e-02    1.148013e-05
  2.239338e-02    1.112238e-05
  2.269231e-02    1.082151e-05
  2.299124e-02    1.056044e-05
  2.329017e-02    1.030182e-05
  2.358910e-02    1.002741e-05
  2.388803e-02    9.751012e-06
  2.418696e-02    9.562549e-06
  2.448589e-02    9.353638e-06
  2.478482e-02    9.119783e-06
  2.508375e-02    8.917665e-06
  2.538268e-02    8.747947e-06
  2.568161e-02    8.615209e-06
  2.598054e-02    8.450058e-06
  2.627947e-02    8.268100e-06
  2.657840e-02    8.134532e-06
  2.687733e-02    8.008628e-06
  2.717626e-02    7.859334e-06
  2.747519e-02    7.738667e-06
  2.777412e-02    7.641724e-06
  2.807305e-02    7.573991e-06
  2.837198e-02    7.419233e-06
  2.867092e-02    7.296035e-06
  2.896985e-02    7.237316e-06
  2.926878e-02    7.153620e-06
  2.956771e-02    7.043327e-06
  2.986664e-02    6.978872e-06
  3.016557e-02    6.872907e-06
  3.046450e-02    6.779367e-06
  3.076343e-02    6.719496e-06
  3.106236e-02    6.701995e-06
  3.136129e-02    6.613914e-06
  3.166022e-02    6.530161e-06
  3.195915e-02    6.468324e-06
  3.225808e-02    6.411009e-06
  3.255701e-02    6.381225e-06
  3.285594e-02    6.272260e-06
  3.315487e-02    6.208925e-06
  3.345380e-02    6.155674e-06
  3.375273e-02    6.101130e-06
  3.405166e-02    6.074812e-06
  3.435059e-02    6.020817e-06
  3.464952e-02    5.966408e-06
  3.494845e-02    5.941953e-06
  3.524738e-02    5.884801e-06
  3.554631e-02    5.818305e-06
  3.584524e-02    5.774697e-06
  3.614417e-02    5.750024e-06
  3.644310e-02    5.705516e-06
  3.674204e-02    5.662163e-06
  3.704097e-02    5.613340e-06
  3.733990e-02    5.565655e-06
  3.763883e-02    5.528041e-06
  3.793776e-02    5.503977e-06
  3.823669e-02    5.476828e-06
  3.853562e-02    5.449923e-06
  3.883455e-02    5.414448e-06
  3.913348e-02    5.387505e-06
  3.943241e-02    5.365857e-06
  3.973134e-02    5.333749e-06
  4.003027e-02    5.309808e-06
  4.032920e-02    5.282203e-06
  4.062813e-02    5.228472e-06
  4.092706e-02    5.204893e-06
  4.122599e-02    5.216995e-06
  4.152492e-02    5.217227e-06
  4.182385e-02    5.176080e-06
  4.212278e-02    5.165177e-06
  4.242171e-02    5.158502e-06
  4.272064e-02    5.111023e-06
  4.301957e-02    5.094524e-06
  4.331850e-02    5.075849e-06
  4.361743e-02    5.095410e-06
  4.391636e-02    5.087829e-06
  4.421529e-02    5.063517e-06
  4.451423e-02    5.065246e-06
  4.481316e-02    5.038316e-06
  4.511209e-02    5.013320e-06
  4.541102e-02    4.997073e-06
  4.570995e-02    4.995902e-06
  4.600888e-02    5.015155e-06
  4.630781e-02    4.991838e-06
  4.660674e-02    4.983639e-06
  4.690567e-02    4.992408e-06
  4.720460e-02    4.995324e-06
  4.750353e-02    5.005316e-06
  4.780246e-02    4.989014e-06
  4.810139e-02    4.969710e-06
  4.840032e-02    4.957382e-06
  4.869925e-02    4.965106e-06
  4.899818e-02    4.973719e-06
  4.929711e-02    4.966604e-06
  4.959604e-02    4.954548e-06
  4.989497e-02    4.967301e-06
  5.019390e-02    4.963717e-06
  5.049283e-02    4.959976e-06
  5.079176e-02    4.973100e-06
  5.109069e-02    4.993473e-06
  5.138962e-02    5.019902e-06
  5.168855e-02    5.086883e-06
  5.198748e-02    5.149092e-06
  5.228642e-02    5.113472e-06
  5.258535e-02    5.017312e-06
  5.288428e-02    4.965265e-06
  5.318321e-02    4.950882e-06
  5.348214e-02    4.943549e-06
  5.378107e-02    4.958879e-06
  5.408000e-02    4.969593e-06
  5.437893e-02    4.950289e-06
  5.467786e-02    4.971178e-06
  5.497679e-02    4.984357e-06
  5.527572e-02    4.992763e-06
  5.557465e-02    4.985446e-06
  5.587358e-02    4.991259e-06
  5.617251e-02    4.991982e-06
  5.647144e-02    5.006629e-06
  5.677037e-02    5.007365e-06
  5.706930e-02    5.003286e-06
  5.736823e-02    4.993775e-06
  5.766716e-02    5.000009e-06
  5.796609e-02    4.998947e-06
  5.826502e-02    5.007769e-06
  5.856395e-02    5.022861e-06
  5.886288e-02    5.037124e-06
  5.916181e-02    5.020862e-06
  5.946074e-02    5.046776e-06
  5.975967e-02    5.083933e-06
  6.005861e-02    5.072346e-06
  6.035754e-02    5.079951e-06
  6.065647e-02    5.105836e-06
  6.095540e-02    5.121482e-06
  6.125433e-02    5.185855e-06
  6.155326e-02    5.211234e-06
  6.185219e-02    5.162377e-06
  6.215112e-02    5.139093e-06
  6.245005e-02    5.143605e-06
  6.274898e-02    5.126284e-06
  6.304791e-02    5.116869e-06
  6.334684e-02    5.156127e-06
  6.364577e-02    5.187907e-06
  6.394470e-02    5.187982e-06
  6.424363e-02    5.182469e-06
  6.454256e-02    5.176793e-06
  6.484149e-02    5.195709e-06
  6.514042e-02    5.211390e-06
  6.543935e-02    5.208993e-06
  6.573828e-02    5.205697e-06
  6.603721e-02    5.208375e-06
  6.633614e-02    5.225851e-06
  6.663507e-02    5.232127e-06
  6.693400e-02    5.252024e-06
  6.723293e-02    5.247453e-06
  6.753186e-02    5.253073e-06
  6.783080e-02    5.269964e-06
  6.812973e-02    5.269551e-06
  6.842866e-02    5.278343e-06
  6.872759e-02    5.287493e-06
  6.902652e-02    5.273132e-06
  6.932545e-02    5.300144e-06
  6.962438e-02    5.306459e-06
  6.992331e-02    5.319700e-06
  7.022224e-02    5.322182e-06
  7.052117e-02    5.325119e-06
  7.082010e-02    5.334962e-06
  7.111903e-02    5.339174e-06
  7.141796e-02    5.359439e-06
  7.171689e-02    5.367866e-06
  7.201582e-02    5.370355e-06
  7.231475e-02    5.379634e-06
  7.261368e-02    5.367556e-06
  7.291261e-02    5.367113e-06
  7.321154e-02    5.402051e-06
  7.351047e-02    5.401037e-06
  7.380940e-02    5.388578e-06
  7.410833e-02    5.399281e-06
  7.440726e-02    5.381404e-06
  7.470619e-02    5.388072e-06
  7.500512e-02    5.404254e-06
  7.530405e-02    5.400662e-06
  7.560299e-02    5.393369e-06
  7.590192e-02    5.410336e-06
  7.620085e-02    5.406924e-06
  7.649978e-02    5.404627e-06
  7.679871e-02    5.423247e-06
  7.709764e-02    5.413990e-06
  7.739657e-02    5.412651e-06
  7.769550e-02    5.418513e-06
  7.799443e-02    5.402170e-06
  7.829336e-02    5.394836e-06
  7.859229e-02    5.390011e-06
  7.889122e-02    5.393619e-06
  7.919015e-02    5.387150e-06
  7.948908e-02    5.409936e-06
  7.978801e-02    5.397854e-06
  8.008694e-02    5.393641e-06
  8.038587e-02    5.394797e-06
  8.068480e-02    5.369599e-06
  8.098373e-02    5.383278e-06
  8.128266e-02    5.404392e-06
  8.158159e-02    5.380590e-06
  8.188052e-02    5.361547e-06
  8.217945e-02    5.351889e-06
  8.247838e-02    5.350396e-06
  8.277731e-02    5.357694e-06
  8.307624e-02    5.360469e-06
  8.337518e-02    5.335073e-06
  8.367411e-02    5.331949e-06
  8.397304e-02    5.332968e-06
  8.427197e-02    5.327878e-06
  8.457090e-02    5.318012e-06
  8.486983e-02    5.330081e-06
  8.516876e-02    5.333610e-06
  8.546769e-02    5.293376e-06
  8.576662e-02    5.283553e-06
  8.606555e-02    5.289433e-06
  8.636448e-02    5.282748e-06
  8.666341e-02    5.269002e-06
  8.696234e-02    5.255833e-06
  8.726127e-02    5.247203e-06
  8.756020e-02    5.242495e-06
  8.785913e-02    5.238602e-06
  8.815806e-02    5.213135e-06
  8.845699e-02    5.211302e-06
  8.875592e-02    5.210896e-06
  8.905485e-02    5.205349e-06
  8.935378e-02    5.207508e-06
  8.965271e-02    5.197227e-06
  8.995164e-02    5.175754e-06
  9.025057e-02    5.169019e-06
  9.054950e-02    5.176749e-06
  9.084843e-02    5.158632e-06
  9.114737e-02    5.149602e-06
  9.144630e-02    5.152614e-06
  9.174523e-02    5.133267e-06
  9.204416e-02    5.125950e-06
  9.234309e-02    5.110198e-06
  9.264202e-02    5.101469e-06
  9.294095e-02    5.101040e-06
  9.323988e-02    5.096185e-06
  9.353881e-02    5.081351e-06
  9.383774e-02    5.083040e-06
  9.413667e-02    5.061528e-06
  9.443560e-02    5.038968e-06
  9.473453e-02    5.036403e-06
  9.503346e-02    5.030142e-06
  9.533239e-02    5.027230e-06
  9.563132e-02    5.017291e-06
  9.593025e-02    5.008306e-06
  9.622918e-02    5.010612e-06
  9.652811e-02    5.016878e-06
  9.682704e-02    5.014230e-06
  9.712597e-02    5.002846e-06
  9.742490e-02    5.000637e-06
  9.772383e-02    4.992599e-06
  9.802276e-02    4.965297e-06
  9.832169e-02    4.917799e-06
  9.862062e-02    4.910329e-06
  9.891956e-02    4.925515e-06
  9.921849e-02    4.913799e-06
  9.951742e-02    4.901398e-06
  9.981635e-02    4.889237e-06
  1.001153e-01    4.873681e-06
  1.004142e-01    4.876829e-06
  1.007131e-01    4.865978e-06
  1.010121e-01    4.836336e-06
  1.013110e-01    4.834614e-06
  1.016099e-01    4.845420e-06
  1.019089e-01    4.815838e-06
  1.022078e-01    4.809634e-06
  1.025067e-01    4.808557e-06
  1.028057e-01    4.800134e-06
  1.031046e-01    4.786524e-06
  1.034035e-01    4.762123e-06
  1.037024e-01    4.745643e-06
  1.040014e-01    4.749736e-06
  1.043003e-01    4.737240e-06
  1.045992e-01    4.724421e-06
  1.048982e-01    4.725544e-06
  1.051971e-01    4.717693e-06
  1.054960e-01    4.683656e-06
  1.057950e-01    4.684689e-06
  1.060939e-01    4.696185e-06
  1.063928e-01    4.682035e-06
  1.066917e-01    4.667367e-06
  1.069907e-01    4.656667e-06
  1.072896e-01    4.629721e-06
  1.075885e-01    4.627847e-06
  1.078875e-01    4.623436e-06
  1.081864e-01    4.614693e-06
  1.084853e-01    4.606516e-06
  1.087843e-01    4.598608e-06
  1.090832e-01    4.572603e-06
  1.093821e-01    4.556104e-06
  1.096810e-01    4.574780e-06
  1.099800e-01    4.568888e-06
  1.102789e-01    4.551096e-06
  1.105778e-01    4.528263e-06
  1.108768e-01    4.506549e-06
  1.111757e-01    4.489103e-06
  1.114746e-01    4.470331e-06
  1.117736e-01    4.475617e-06
  1.120725e-01    4.474656e-06
  1.123714e-01    4.470660e-06
  1.126704e-01    4.451574e-06
  1.129693e-01    4.427232e-06
  1.132682e-01    4.425108e-06
  1.135671e-01    4.398718e-06
  1.138661e-01    4.388623e-06
  1.141650e-01    4.374268e-06
  1.144639e-01    4.379309e-06
  1.147629e-01    4.408989e-06
  1.150618e-01    4.387388e-06
  1.153607e-01    4.341422e-06
  1.156597e-01    4.341414e-06
  1.159586e-01    4.352516e-06
  1.162575e-01    4.339382e-06
  1.165564e-01    4.330284e-06
  1.168554e-01    4.359005e-06
  1.171543e-01    4.372091e-06
  1.174532e-01    4.374839e-06
  1.177522e-01    4.355683e-06
  1.180511e-01    4.342821e-06
  1.183500e-01    4.351949e-06
  1.186490e-01    4.368022e-06
  1.189479e-01    4.347261e-06
  1.192468e-01    4.294944e-06
  1.195458e-01    4.229093e-06
  1.198447e-01    4.256918e-06
  1.201436e-01    4.319157e-06
  1.204425e-01    4.311614e-06
  1.207415e-01    4.167385e-06
  1.210404e-01    3.837564e-06
  1.213393e-01    0.000000e+00
  1.216383e-01    0.000000e+00
  1.219372e-01    0.000000e+00
  1.222361e-01    0.000000e+00
  1.225351e-01    0.000000e+00
  1.228340e-01    0.000000e+00
  1.231329e-01    0.000000e+00
  1.234318e-01    0.000000e+00
  1.237308e-01    0.000000e+00
  1.240297e-01    0.000000e+00
  1.243286e-01    0.000000e+00
  1.246276e-01    0.000000e+00
  1.249265e-01    0.000000e+00
  1.252254e-01    0.000000e+00
  1.255244e-01    0.000000e+00
  1.258233e-01    0.000000e+00
  1.261222e-01    0.000000e+00
  1.264212e-01    0.000000e+00
  1.267201e-01    0.000000e+00
  1.270190e-01    0.000000e+00
  1.273179e-01    0.000000e+00
  1.276169e-01    0.000000e+00
  1.279158e-01    0.000000e+00
  1.282147e-01    0.000000e+00
  1.285137e-01    0.000000e+00
  1.288126e-01    0.000000e+00
  1.291115e-01    0.000000e+00
  1.294105e-01    0.000000e+00
  1.297094e-01    0.000000e+00
  1.300083e-01    0.000000e+00
  1.303072e-01    0.000000e+00
  1.306062e-01    0.000000e+00
  1.309051e-01    0.000000e+00
  1.312040e-01    0.000000e+00
  1.315030e-01    0.000000e+00
  1.318019e-01    0.000000e+00
  1.321008e-01    0.000000e+00
  1.323998e-01    0.000000e+00
  1.326987e-01    0.000000e+00
  1.329976e-01    0.000000e+00
  1.332965e-01    0.000000e+00
  1.335955e-01    0.000000e+00
  1.338944e-01    0.000000e+00
  1.341933e-01    0.000000e+00
  1.344923e-01    0.000000e+00
  1.347912e-01    0.000000e+00
  1.350901e-01    0.000000e+00
  1.353891e-01    0.000000e+00
  1.356880e-01    0.000000e+00
  1.359869e-01    0.000000e+00
  1.362859e-01    0.000000e+00
  1.365848e-01    0.000000e+00
  1.368837e-01    0.000000e+00
  1.371826e-01    0.000000e+00
  1.374816e-01    0.000000e+00
  1.377805e-01    0.000000e+00
  1.380794e-01    0.000000e+00
  1.383784e-01    0.000000e+00
  1.386773e-01    0.000000e+00
  1.389762e-01    0.000000e+00
  1.392752e-01    0.000000e+00
  1.395741e-01    0.000000e+00
  1.398730e-01    0.000000e+00
  1.401719e-01    0.000000e+00
  1.404709e-01    0.000000e+00
  1.407698e-01    0.000000e+00
  1.410687e-01    0.000000e+00
  1.413677e-01    0.000000e+00
  1.416666e-01    0.000000e+00
  1.419655e-01    0.000000e+00
  1.422645e-01    0.000000e+00
  1.425634e-01    0.000000e+00
  1.428623e-01    0.000000e+00
  1.431613e-01    0.000000e+00
  1.434602e-01    0.000000e+00
  1.437591e-01    0.000000e+00
  1.440580e-01    0.000000e+00
  1.443570e-01    0.000000e+00
  1.446559e-01    0.000000e+00
  1.449548e-01    0.000000e+00
  1.452538e-01    0.000000e+00
  1.455527e-01    0.000000e+00
  1.458516e-01    0.000000e+00
  1.461506e-01    0.000000e+00
  1.464495e-01    0.000000e+00
  1.467484e-01    0.000000e+00
  1.470473e-01    0.000000e+00
  1.473463e-01    0.000000e+00
  1.476452e-01    0.000000e+00
  1.479441e-01    0.000000e+00
  1.482431e-01    0.000000e+00
  1.485420e-01    0.000000e+00
  1.488409e-01    0.000000e+00
  1.491399e-01    0.000000e+00
  1.494388e-01    0.000000e+00
  1.497377e-01    0.000000e+00
  1.500367e-01    0.000000e+00
  1.503356e-01    0.000000e+00
  1.506345e-01    0.000000e+00
  1.509334e-01    0.000000e+00
  1.512324e-01    0.000000e+00
  1.515313e-01    0.000000e+00
  1.518302e-01    0.000000e+00
  1.521292e-01    0.000000e+00
  1.524281e-01    0.000000e+00
  1.527270e-01    0.000000e+00
  1.530260e-01    0.000000e+00
  1.533249e-01    0.000000e+00
  1.536238e-01    0.000000e+00
