# == pyFAI calibration ==
# Distance Sample to Detector: 2.266 m
# PONI: 5.659e-02, 4.293e-02 m
# Rotations: 0.000000 0.000000 0.000000 rad
# 
# == Fit2d calibration ==
# Distance Sample-beamCenter: 2266.000 mm
# Center: x=249.594, y=329.012 pix
# Tilt: 0.000 deg  TiltPlanRot: 0.000 deg
# 
# Detector Pilatus 300k	 PixelSize= 1.720e-04, 1.720e-04 m
#    Detector has a mask: True 
#    Detector has a dark current: False 
#    detector has a flat field: False 
# 
# Wavelength: 1.27818e-10 m
# Mask applied: user provided
# Dark current applied: False
# Flat field applied: False
# Polarization factor: None
# Normalization factor: 1685480.8
# --> MT-AL_F127_220228_5c1f9d38-08e0-46a3-8c09-77c72ffb2929_0_r1d.csv
#        q_A^-1             I 
  4.457554e-03    7.513139e-03
  4.756484e-03    5.855575e-03
  5.055415e-03    4.120358e-03
  5.354345e-03    2.856352e-03
  5.653276e-03    2.155015e-03
  5.952206e-03    3.417593e-03
  6.251136e-03    3.129756e-03
  6.550067e-03    2.729292e-03
  6.848997e-03    2.334591e-03
  7.147927e-03    1.976035e-03
  7.446858e-03    1.686234e-03
  7.745788e-03    1.444864e-03
  8.044719e-03    1.243980e-03
  8.343649e-03    1.089053e-03
  8.642579e-03    9.518728e-04
  8.941510e-03    8.361136e-04
  9.240440e-03    7.388209e-04
  9.539371e-03    6.563924e-04
  9.838301e-03    5.880671e-04
  1.013723e-02    5.243077e-04
  1.043616e-02    4.724056e-04
  1.073509e-02    4.249532e-04
  1.103402e-02    3.848862e-04
  1.133295e-02    3.487276e-04
  1.163188e-02    3.181307e-04
  1.193081e-02    2.906896e-04
  1.222974e-02    2.663010e-04
  1.252867e-02    2.447599e-04
  1.282760e-02    2.245307e-04
  1.312654e-02    2.068537e-04
  1.342547e-02    1.913890e-04
  1.372440e-02    1.780140e-04
  1.402333e-02    1.655427e-04
  1.432226e-02    1.539294e-04
  1.462119e-02    1.433464e-04
  1.492012e-02    1.336638e-04
  1.521905e-02    1.244656e-04
  1.551798e-02    1.174256e-04
  1.581691e-02    1.108366e-04
  1.611584e-02    1.037896e-04
  1.641477e-02    9.735435e-05
  1.671370e-02    9.210033e-05
  1.701263e-02    8.787357e-05
  1.731156e-02    8.249977e-05
  1.761049e-02    7.803401e-05
  1.790942e-02    7.464959e-05
  1.820835e-02    7.140044e-05
  1.850728e-02    6.850906e-05
  1.880621e-02    6.572776e-05
  1.910514e-02    6.274454e-05
  1.940407e-02    5.996510e-05
  1.970300e-02    5.746169e-05
  2.000193e-02    5.537455e-05
  2.030086e-02    5.333012e-05
  2.059979e-02    5.140271e-05
  2.089873e-02    5.005574e-05
  2.119766e-02    4.833654e-05
  2.149659e-02    4.663067e-05
  2.179552e-02    4.527703e-05
  2.209445e-02    4.378554e-05
  2.239338e-02    4.277593e-05
  2.269231e-02    4.128786e-05
  2.299124e-02    4.026228e-05
  2.329017e-02    3.913129e-05
  2.358910e-02    3.840028e-05
  2.388803e-02    3.748800e-05
  2.418696e-02    3.636570e-05
  2.448589e-02    3.531855e-05
  2.478482e-02    3.485442e-05
  2.508375e-02    3.462793e-05
  2.538268e-02    3.410875e-05
  2.568161e-02    3.305483e-05
  2.598054e-02    3.243824e-05
  2.627947e-02    3.206938e-05
  2.657840e-02    3.172916e-05
  2.687733e-02    3.122772e-05
  2.717626e-02    3.050385e-05
  2.747519e-02    3.003934e-05
  2.777412e-02    2.972968e-05
  2.807305e-02    2.930782e-05
  2.837198e-02    2.894297e-05
  2.867092e-02    2.865871e-05
  2.896985e-02    2.822295e-05
  2.926878e-02    2.785795e-05
  2.956771e-02    2.769845e-05
  2.986664e-02    2.733522e-05
  3.016557e-02    2.685475e-05
  3.046450e-02    2.653078e-05
  3.076343e-02    2.635972e-05
  3.106236e-02    2.599705e-05
  3.136129e-02    2.567659e-05
  3.166022e-02    2.558143e-05
  3.195915e-02    2.536472e-05
  3.225808e-02    2.507126e-05
  3.255701e-02    2.461799e-05
  3.285594e-02    2.434697e-05
  3.315487e-02    2.412245e-05
  3.345380e-02    2.415184e-05
  3.375273e-02    2.388561e-05
  3.405166e-02    2.363736e-05
  3.435059e-02    2.343649e-05
  3.464952e-02    2.313322e-05
  3.494845e-02    2.293734e-05
  3.524738e-02    2.261398e-05
  3.554631e-02    2.243724e-05
  3.584524e-02    2.218963e-05
  3.614417e-02    2.189106e-05
  3.644310e-02    2.167214e-05
  3.674204e-02    2.149589e-05
  3.704097e-02    2.133177e-05
  3.733990e-02    2.137269e-05
  3.763883e-02    2.131063e-05
  3.793776e-02    2.111218e-05
  3.823669e-02    2.101910e-05
  3.853562e-02    2.068463e-05
  3.883455e-02    2.051185e-05
  3.913348e-02    2.033265e-05
  3.943241e-02    2.019660e-05
  3.973134e-02    2.018091e-05
  4.003027e-02    2.003160e-05
  4.032920e-02    1.991416e-05
  4.062813e-02    1.981289e-05
  4.092706e-02    1.962563e-05
  4.122599e-02    1.958043e-05
  4.152492e-02    1.935872e-05
  4.182385e-02    1.915612e-05
  4.212278e-02    1.913314e-05
  4.242171e-02    1.914956e-05
  4.272064e-02    1.917491e-05
  4.301957e-02    1.921824e-05
  4.331850e-02    1.906839e-05
  4.361743e-02    1.891534e-05
  4.391636e-02    1.886186e-05
  4.421529e-02    1.872164e-05
  4.451423e-02    1.893356e-05
  4.481316e-02    1.905254e-05
  4.511209e-02    1.890909e-05
  4.541102e-02    1.860732e-05
  4.570995e-02    1.865867e-05
  4.600888e-02    1.864792e-05
  4.630781e-02    1.838056e-05
  4.660674e-02    1.846424e-05
  4.690567e-02    1.839348e-05
  4.720460e-02    1.846434e-05
  4.750353e-02    1.881929e-05
  4.780246e-02    1.871774e-05
  4.810139e-02    1.863550e-05
  4.840032e-02    1.840552e-05
  4.869925e-02    1.837336e-05
  4.899818e-02    1.841650e-05
  4.929711e-02    1.852850e-05
  4.959604e-02    1.843916e-05
  4.989497e-02    1.819970e-05
  5.019390e-02    1.829923e-05
  5.049283e-02    1.860911e-05
  5.079176e-02    1.858678e-05
  5.109069e-02    1.835209e-05
  5.138962e-02    1.859979e-05
  5.168855e-02    1.915305e-05
  5.198748e-02    1.947630e-05
  5.228642e-02    1.934680e-05
  5.258535e-02    1.841209e-05
  5.288428e-02    1.818145e-05
  5.318321e-02    1.832109e-05
  5.348214e-02    1.834622e-05
  5.378107e-02    1.829835e-05
  5.408000e-02    1.824306e-05
  5.437893e-02    1.817818e-05
  5.467786e-02    1.810125e-05
  5.497679e-02    1.824655e-05
  5.527572e-02    1.834541e-05
  5.557465e-02    1.838943e-05
  5.587358e-02    1.832486e-05
  5.617251e-02    1.835968e-05
  5.647144e-02    1.830884e-05
  5.677037e-02    1.825870e-05
  5.706930e-02    1.815854e-05
  5.736823e-02    1.825707e-05
  5.766716e-02    1.829350e-05
  5.796609e-02    1.831594e-05
  5.826502e-02    1.828513e-05
  5.856395e-02    1.833134e-05
  5.886288e-02    1.828965e-05
  5.916181e-02    1.835084e-05
  5.946074e-02    1.844572e-05
  5.975967e-02    1.854156e-05
  6.005861e-02    1.859666e-05
  6.035754e-02    1.868213e-05
  6.065647e-02    1.861132e-05
  6.095540e-02    1.880313e-05
  6.125433e-02    1.916412e-05
  6.155326e-02    1.928043e-05
  6.185219e-02    1.892907e-05
  6.215112e-02    1.873928e-05
  6.245005e-02    1.857840e-05
  6.274898e-02    1.850948e-05
  6.304791e-02    1.878498e-05
  6.334684e-02    1.874188e-05
  6.364577e-02    1.871140e-05
  6.394470e-02    1.882317e-05
  6.424363e-02    1.887068e-05
  6.454256e-02    1.895820e-05
  6.484149e-02    1.894535e-05
  6.514042e-02    1.880161e-05
  6.543935e-02    1.886838e-05
  6.573828e-02    1.890464e-05
  6.603721e-02    1.894090e-05
  6.633614e-02    1.885960e-05
  6.663507e-02    1.893863e-05
  6.693400e-02    1.904632e-05
  6.723293e-02    1.897838e-05
  6.753186e-02    1.916166e-05
  6.783080e-02    1.912854e-05
  6.812973e-02    1.914818e-05
  6.842866e-02    1.912414e-05
  6.872759e-02    1.905354e-05
  6.902652e-02    1.920056e-05
  6.932545e-02    1.915786e-05
  6.962438e-02    1.921189e-05
  6.992331e-02    1.921085e-05
  7.022224e-02    1.935748e-05
  7.052117e-02    1.930171e-05
  7.082010e-02    1.929181e-05
  7.111903e-02    1.944459e-05
  7.141796e-02    1.946559e-05
  7.171689e-02    1.941883e-05
  7.201582e-02    1.939548e-05
  7.231475e-02    1.946155e-05
  7.261368e-02    1.939063e-05
  7.291261e-02    1.937438e-05
  7.321154e-02    1.951847e-05
  7.351047e-02    1.951257e-05
  7.380940e-02    1.946233e-05
  7.410833e-02    1.949176e-05
  7.440726e-02    1.950349e-05
  7.470619e-02    1.957783e-05
  7.500512e-02    1.947026e-05
  7.530405e-02    1.936504e-05
  7.560299e-02    1.951702e-05
  7.590192e-02    1.960668e-05
  7.620085e-02    1.955054e-05
  7.649978e-02    1.951432e-05
  7.679871e-02    1.938292e-05
  7.709764e-02    1.939418e-05
  7.739657e-02    1.937278e-05
  7.769550e-02    1.945238e-05
  7.799443e-02    1.950802e-05
  7.829336e-02    1.935681e-05
  7.859229e-02    1.940065e-05
  7.889122e-02    1.948252e-05
  7.919015e-02    1.947664e-05
  7.948908e-02    1.944290e-05
  7.978801e-02    1.939447e-05
  8.008694e-02    1.931267e-05
  8.038587e-02    1.931610e-05
  8.068480e-02    1.935227e-05
  8.098373e-02    1.930429e-05
  8.128266e-02    1.921686e-05
  8.158159e-02    1.934161e-05
  8.188052e-02    1.944543e-05
  8.217945e-02    1.927279e-05
  8.247838e-02    1.923596e-05
  8.277731e-02    1.920778e-05
  8.307624e-02    1.916972e-05
  8.337518e-02    1.918901e-05
  8.367411e-02    1.921929e-05
  8.397304e-02    1.926091e-05
  8.427197e-02    1.918921e-05
  8.457090e-02    1.907527e-05
  8.486983e-02    1.900746e-05
  8.516876e-02    1.905428e-05
  8.546769e-02    1.897468e-05
  8.576662e-02    1.886968e-05
  8.606555e-02    1.887637e-05
  8.636448e-02    1.881265e-05
  8.666341e-02    1.877031e-05
  8.696234e-02    1.879069e-05
  8.726127e-02    1.877291e-05
  8.756020e-02    1.862943e-05
  8.785913e-02    1.869568e-05
  8.815806e-02    1.873017e-05
  8.845699e-02    1.856513e-05
  8.875592e-02    1.854381e-05
  8.905485e-02    1.854935e-05
  8.935378e-02    1.839615e-05
  8.965271e-02    1.835878e-05
  8.995164e-02    1.837385e-05
  9.025057e-02    1.836112e-05
  9.054950e-02    1.826505e-05
  9.084843e-02    1.814070e-05
  9.114737e-02    1.816908e-05
  9.144630e-02    1.807263e-05
  9.174523e-02    1.810478e-05
  9.204416e-02    1.821270e-05
  9.234309e-02    1.808077e-05
  9.264202e-02    1.800279e-05
  9.294095e-02    1.798365e-05
  9.323988e-02    1.795764e-05
  9.353881e-02    1.791672e-05
  9.383774e-02    1.787492e-05
  9.413667e-02    1.787881e-05
  9.443560e-02    1.791443e-05
  9.473453e-02    1.796714e-05
  9.503346e-02    1.788036e-05
  9.533239e-02    1.776890e-05
  9.563132e-02    1.775158e-05
  9.593025e-02    1.781850e-05
  9.622918e-02    1.779218e-05
  9.652811e-02    1.780606e-05
  9.682704e-02    1.783670e-05
  9.712597e-02    1.785998e-05
  9.742490e-02    1.783559e-05
  9.772383e-02    1.770693e-05
  9.802276e-02    1.760532e-05
  9.832169e-02    1.746977e-05
  9.862062e-02    1.746108e-05
  9.891956e-02    1.741000e-05
  9.921849e-02    1.725853e-05
  9.951742e-02    1.729729e-05
  9.981635e-02    1.731103e-05
  1.001153e-01    1.729523e-05
  1.004142e-01    1.723786e-05
  1.007131e-01    1.714648e-05
  1.010121e-01    1.712017e-05
  1.013110e-01    1.713907e-05
  1.016099e-01    1.695080e-05
  1.019089e-01    1.698675e-05
  1.022078e-01    1.695603e-05
  1.025067e-01    1.698865e-05
  1.028057e-01    1.694484e-05
  1.031046e-01    1.690560e-05
  1.034035e-01    1.673948e-05
  1.037024e-01    1.681507e-05
  1.040014e-01    1.693526e-05
  1.043003e-01    1.681017e-05
  1.045992e-01    1.678770e-05
  1.048982e-01    1.676869e-05
  1.051971e-01    1.660614e-05
  1.054960e-01    1.655868e-05
  1.057950e-01    1.657802e-05
  1.060939e-01    1.662096e-05
  1.063928e-01    1.656539e-05
  1.066917e-01    1.646859e-05
  1.069907e-01    1.644250e-05
  1.072896e-01    1.647467e-05
  1.075885e-01    1.655611e-05
  1.078875e-01    1.651722e-05
  1.081864e-01    1.645129e-05
  1.084853e-01    1.632058e-05
  1.087843e-01    1.639846e-05
  1.090832e-01    1.650379e-05
  1.093821e-01    1.636328e-05
  1.096810e-01    1.620750e-05
  1.099800e-01    1.614369e-05
  1.102789e-01    1.601583e-05
  1.105778e-01    1.602510e-05
  1.108768e-01    1.599427e-05
  1.111757e-01    1.604119e-05
  1.114746e-01    1.604952e-05
  1.117736e-01    1.595426e-05
  1.120725e-01    1.580360e-05
  1.123714e-01    1.577410e-05
  1.126704e-01    1.590508e-05
  1.129693e-01    1.573318e-05
  1.132682e-01    1.547155e-05
  1.135671e-01    1.563299e-05
  1.138661e-01    1.568789e-05
  1.141650e-01    1.541551e-05
  1.144639e-01    1.527536e-05
  1.147629e-01    1.545757e-05
  1.150618e-01    1.568825e-05
  1.153607e-01    1.562630e-05
  1.156597e-01    1.543243e-05
  1.159586e-01    1.532896e-05
  1.162575e-01    1.526830e-05
  1.165564e-01    1.531367e-05
  1.168554e-01    1.539313e-05
  1.171543e-01    1.522690e-05
  1.174532e-01    1.519274e-05
  1.177522e-01    1.547387e-05
  1.180511e-01    1.572987e-05
  1.183500e-01    1.589372e-05
  1.186490e-01    1.569151e-05
  1.189479e-01    1.543879e-05
  1.192468e-01    1.529303e-05
  1.195458e-01    1.561087e-05
  1.198447e-01    1.592749e-05
  1.201436e-01    1.587554e-05
  1.204425e-01    1.622728e-05
  1.207415e-01    1.464691e-05
  1.210404e-01    1.247064e-05
  1.213393e-01    0.000000e+00
  1.216383e-01    0.000000e+00
  1.219372e-01    0.000000e+00
  1.222361e-01    0.000000e+00
  1.225351e-01    0.000000e+00
  1.228340e-01    0.000000e+00
  1.231329e-01    0.000000e+00
  1.234318e-01    0.000000e+00
  1.237308e-01    0.000000e+00
  1.240297e-01    0.000000e+00
  1.243286e-01    0.000000e+00
  1.246276e-01    0.000000e+00
  1.249265e-01    0.000000e+00
  1.252254e-01    0.000000e+00
  1.255244e-01    0.000000e+00
  1.258233e-01    0.000000e+00
  1.261222e-01    0.000000e+00
  1.264212e-01    0.000000e+00
  1.267201e-01    0.000000e+00
  1.270190e-01    0.000000e+00
  1.273179e-01    0.000000e+00
  1.276169e-01    0.000000e+00
  1.279158e-01    0.000000e+00
  1.282147e-01    0.000000e+00
  1.285137e-01    0.000000e+00
  1.288126e-01    0.000000e+00
  1.291115e-01    0.000000e+00
  1.294105e-01    0.000000e+00
  1.297094e-01    0.000000e+00
  1.300083e-01    0.000000e+00
  1.303072e-01    0.000000e+00
  1.306062e-01    0.000000e+00
  1.309051e-01    0.000000e+00
  1.312040e-01    0.000000e+00
  1.315030e-01    0.000000e+00
  1.318019e-01    0.000000e+00
  1.321008e-01    0.000000e+00
  1.323998e-01    0.000000e+00
  1.326987e-01    0.000000e+00
  1.329976e-01    0.000000e+00
  1.332965e-01    0.000000e+00
  1.335955e-01    0.000000e+00
  1.338944e-01    0.000000e+00
  1.341933e-01    0.000000e+00
  1.344923e-01    0.000000e+00
  1.347912e-01    0.000000e+00
  1.350901e-01    0.000000e+00
  1.353891e-01    0.000000e+00
  1.356880e-01    0.000000e+00
  1.359869e-01    0.000000e+00
  1.362859e-01    0.000000e+00
  1.365848e-01    0.000000e+00
  1.368837e-01    0.000000e+00
  1.371826e-01    0.000000e+00
  1.374816e-01    0.000000e+00
  1.377805e-01    0.000000e+00
  1.380794e-01    0.000000e+00
  1.383784e-01    0.000000e+00
  1.386773e-01    0.000000e+00
  1.389762e-01    0.000000e+00
  1.392752e-01    0.000000e+00
  1.395741e-01    0.000000e+00
  1.398730e-01    0.000000e+00
  1.401719e-01    0.000000e+00
  1.404709e-01    0.000000e+00
  1.407698e-01    0.000000e+00
  1.410687e-01    0.000000e+00
  1.413677e-01    0.000000e+00
  1.416666e-01    0.000000e+00
  1.419655e-01    0.000000e+00
  1.422645e-01    0.000000e+00
  1.425634e-01    0.000000e+00
  1.428623e-01    0.000000e+00
  1.431613e-01    0.000000e+00
  1.434602e-01    0.000000e+00
  1.437591e-01    0.000000e+00
  1.440580e-01    0.000000e+00
  1.443570e-01    0.000000e+00
  1.446559e-01    0.000000e+00
  1.449548e-01    0.000000e+00
  1.452538e-01    0.000000e+00
  1.455527e-01    0.000000e+00
  1.458516e-01    0.000000e+00
  1.461506e-01    0.000000e+00
  1.464495e-01    0.000000e+00
  1.467484e-01    0.000000e+00
  1.470473e-01    0.000000e+00
  1.473463e-01    0.000000e+00
  1.476452e-01    0.000000e+00
  1.479441e-01    0.000000e+00
  1.482431e-01    0.000000e+00
  1.485420e-01    0.000000e+00
  1.488409e-01    0.000000e+00
  1.491399e-01    0.000000e+00
  1.494388e-01    0.000000e+00
  1.497377e-01    0.000000e+00
  1.500367e-01    0.000000e+00
  1.503356e-01    0.000000e+00
  1.506345e-01    0.000000e+00
  1.509334e-01    0.000000e+00
  1.512324e-01    0.000000e+00
  1.515313e-01    0.000000e+00
  1.518302e-01    0.000000e+00
  1.521292e-01    0.000000e+00
  1.524281e-01    0.000000e+00
  1.527270e-01    0.000000e+00
  1.530260e-01    0.000000e+00
  1.533249e-01    0.000000e+00
  1.536238e-01    0.000000e+00
