# == pyFAI calibration ==
# Distance Sample to Detector: 2.266 m
# PONI: 5.659e-02, 4.293e-02 m
# Rotations: 0.000000 0.000000 0.000000 rad
# 
# == Fit2d calibration ==
# Distance Sample-beamCenter: 2266.000 mm
# Center: x=249.594, y=329.012 pix
# Tilt: 0.000 deg  TiltPlanRot: 0.000 deg
# 
# Detector Pilatus 300k	 PixelSize= 1.720e-04, 1.720e-04 m
#    Detector has a mask: True 
#    Detector has a dark current: False 
#    detector has a flat field: False 
# 
# Wavelength: 1.27818e-10 m
# Mask applied: user provided
# Dark current applied: False
# Flat field applied: False
# Polarization factor: None
# Normalization factor: 7360603.800000001
# --> MT-AL_F127_220225_529b801d-9e53-4151-a7c1-718e3eaf19ad_2_r1d.csv
#        q_A^-1             I 
  4.457554e-03    2.085889e-03
  4.756484e-03    1.648365e-03
  5.055415e-03    1.176016e-03
  5.354345e-03    8.197778e-04
  5.653276e-03    6.284394e-04
  5.952206e-03    1.016913e-03
  6.251136e-03    9.314117e-04
  6.550067e-03    8.106100e-04
  6.848997e-03    6.900832e-04
  7.147927e-03    5.836636e-04
  7.446858e-03    4.984009e-04
  7.745788e-03    4.264512e-04
  8.044719e-03    3.663008e-04
  8.343649e-03    3.191286e-04
  8.642579e-03    2.794885e-04
  8.941510e-03    2.471069e-04
  9.240440e-03    2.187979e-04
  9.539371e-03    1.940314e-04
  9.838301e-03    1.725167e-04
  1.013723e-02    1.545271e-04
  1.043616e-02    1.385951e-04
  1.073509e-02    1.242700e-04
  1.103402e-02    1.127526e-04
  1.133295e-02    1.022421e-04
  1.163188e-02    9.279426e-05
  1.193081e-02    8.487127e-05
  1.222974e-02    7.775042e-05
  1.252867e-02    7.149345e-05
  1.282760e-02    6.570385e-05
  1.312654e-02    6.022830e-05
  1.342547e-02    5.562710e-05
  1.372440e-02    5.161909e-05
  1.402333e-02    4.802376e-05
  1.432226e-02    4.482010e-05
  1.462119e-02    4.173981e-05
  1.492012e-02    3.892271e-05
  1.521905e-02    3.634641e-05
  1.551798e-02    3.404319e-05
  1.581691e-02    3.202271e-05
  1.611584e-02    3.019999e-05
  1.641477e-02    2.848140e-05
  1.671370e-02    2.690622e-05
  1.701263e-02    2.541924e-05
  1.731156e-02    2.418243e-05
  1.761049e-02    2.295321e-05
  1.790942e-02    2.175442e-05
  1.820835e-02    2.066214e-05
  1.850728e-02    1.991010e-05
  1.880621e-02    1.895204e-05
  1.910514e-02    1.803552e-05
  1.940407e-02    1.733778e-05
  1.970300e-02    1.664107e-05
  2.000193e-02    1.596160e-05
  2.030086e-02    1.539738e-05
  2.059979e-02    1.477194e-05
  2.089873e-02    1.424479e-05
  2.119766e-02    1.379180e-05
  2.149659e-02    1.333623e-05
  2.179552e-02    1.294149e-05
  2.209445e-02    1.250049e-05
  2.239338e-02    1.215630e-05
  2.269231e-02    1.183620e-05
  2.299124e-02    1.149830e-05
  2.329017e-02    1.113360e-05
  2.358910e-02    1.081951e-05
  2.388803e-02    1.052170e-05
  2.418696e-02    1.032270e-05
  2.448589e-02    1.009500e-05
  2.478482e-02    9.940491e-06
  2.508375e-02    9.667747e-06
  2.538268e-02    9.497485e-06
  2.568161e-02    9.358625e-06
  2.598054e-02    9.135829e-06
  2.627947e-02    8.988414e-06
  2.657840e-02    8.869969e-06
  2.687733e-02    8.753816e-06
  2.717626e-02    8.670495e-06
  2.747519e-02    8.540345e-06
  2.777412e-02    8.438245e-06
  2.807305e-02    8.320195e-06
  2.837198e-02    8.134378e-06
  2.867092e-02    7.995981e-06
  2.896985e-02    7.938878e-06
  2.926878e-02    7.841964e-06
  2.956771e-02    7.732190e-06
  2.986664e-02    7.696199e-06
  3.016557e-02    7.605564e-06
  3.046450e-02    7.493687e-06
  3.076343e-02    7.385207e-06
  3.106236e-02    7.310983e-06
  3.136129e-02    7.210997e-06
  3.166022e-02    7.151489e-06
  3.195915e-02    7.111971e-06
  3.225808e-02    7.030046e-06
  3.255701e-02    6.949189e-06
  3.285594e-02    6.908497e-06
  3.315487e-02    6.882543e-06
  3.345380e-02    6.809720e-06
  3.375273e-02    6.698902e-06
  3.405166e-02    6.629187e-06
  3.435059e-02    6.628384e-06
  3.464952e-02    6.566461e-06
  3.494845e-02    6.454818e-06
  3.524738e-02    6.413218e-06
  3.554631e-02    6.299504e-06
  3.584524e-02    6.218147e-06
  3.614417e-02    6.193400e-06
  3.644310e-02    6.179134e-06
  3.674204e-02    6.169040e-06
  3.704097e-02    6.065807e-06
  3.733990e-02    5.964950e-06
  3.763883e-02    5.930649e-06
  3.793776e-02    5.879048e-06
  3.823669e-02    5.849884e-06
  3.853562e-02    5.851054e-06
  3.883455e-02    5.832261e-06
  3.913348e-02    5.777965e-06
  3.943241e-02    5.744311e-06
  3.973134e-02    5.703714e-06
  4.003027e-02    5.638108e-06
  4.032920e-02    5.576623e-06
  4.062813e-02    5.581461e-06
  4.092706e-02    5.541456e-06
  4.122599e-02    5.500386e-06
  4.152492e-02    5.512402e-06
  4.182385e-02    5.493955e-06
  4.212278e-02    5.442754e-06
  4.242171e-02    5.415962e-06
  4.272064e-02    5.370062e-06
  4.301957e-02    5.361205e-06
  4.331850e-02    5.344584e-06
  4.361743e-02    5.349198e-06
  4.391636e-02    5.389439e-06
  4.421529e-02    5.396107e-06
  4.451423e-02    5.357351e-06
  4.481316e-02    5.334518e-06
  4.511209e-02    5.361445e-06
  4.541102e-02    5.336997e-06
  4.570995e-02    5.258506e-06
  4.600888e-02    5.249627e-06
  4.630781e-02    5.243891e-06
  4.660674e-02    5.274507e-06
  4.690567e-02    5.302008e-06
  4.720460e-02    5.261154e-06
  4.750353e-02    5.259572e-06
  4.780246e-02    5.278103e-06
  4.810139e-02    5.279713e-06
  4.840032e-02    5.244617e-06
  4.869925e-02    5.243449e-06
  4.899818e-02    5.246359e-06
  4.929711e-02    5.227328e-06
  4.959604e-02    5.241535e-06
  4.989497e-02    5.221638e-06
  5.019390e-02    5.199724e-06
  5.049283e-02    5.214173e-06
  5.079176e-02    5.190677e-06
  5.109069e-02    5.219594e-06
  5.138962e-02    5.303350e-06
  5.168855e-02    5.425106e-06
  5.198748e-02    5.501730e-06
  5.228642e-02    5.453729e-06
  5.258535e-02    5.252080e-06
  5.288428e-02    5.192848e-06
  5.318321e-02    5.198796e-06
  5.348214e-02    5.188592e-06
  5.378107e-02    5.181535e-06
  5.408000e-02    5.172206e-06
  5.437893e-02    5.163149e-06
  5.467786e-02    5.196119e-06
  5.497679e-02    5.193066e-06
  5.527572e-02    5.194821e-06
  5.557465e-02    5.180759e-06
  5.587358e-02    5.159028e-06
  5.617251e-02    5.188574e-06
  5.647144e-02    5.206986e-06
  5.677037e-02    5.197904e-06
  5.706930e-02    5.186578e-06
  5.736823e-02    5.199218e-06
  5.766716e-02    5.197717e-06
  5.796609e-02    5.205485e-06
  5.826502e-02    5.196584e-06
  5.856395e-02    5.222485e-06
  5.886288e-02    5.212077e-06
  5.916181e-02    5.229300e-06
  5.946074e-02    5.215946e-06
  5.975967e-02    5.232429e-06
  6.005861e-02    5.276450e-06
  6.035754e-02    5.292783e-06
  6.065647e-02    5.295352e-06
  6.095540e-02    5.352232e-06
  6.125433e-02    5.456932e-06
  6.155326e-02    5.486989e-06
  6.185219e-02    5.397606e-06
  6.215112e-02    5.326552e-06
  6.245005e-02    5.304741e-06
  6.274898e-02    5.295523e-06
  6.304791e-02    5.290514e-06
  6.334684e-02    5.310477e-06
  6.364577e-02    5.337691e-06
  6.394470e-02    5.363240e-06
  6.424363e-02    5.360084e-06
  6.454256e-02    5.382957e-06
  6.484149e-02    5.431250e-06
  6.514042e-02    5.407418e-06
  6.543935e-02    5.392533e-06
  6.573828e-02    5.422280e-06
  6.603721e-02    5.415559e-06
  6.633614e-02    5.421314e-06
  6.663507e-02    5.439093e-06
  6.693400e-02    5.417399e-06
  6.723293e-02    5.439064e-06
  6.753186e-02    5.468908e-06
  6.783080e-02    5.469160e-06
  6.812973e-02    5.459418e-06
  6.842866e-02    5.480675e-06
  6.872759e-02    5.497735e-06
  6.902652e-02    5.495717e-06
  6.932545e-02    5.495080e-06
  6.962438e-02    5.522799e-06
  6.992331e-02    5.530910e-06
  7.022224e-02    5.523820e-06
  7.052117e-02    5.529733e-06
  7.082010e-02    5.549802e-06
  7.111903e-02    5.540722e-06
  7.141796e-02    5.558641e-06
  7.171689e-02    5.555596e-06
  7.201582e-02    5.534662e-06
  7.231475e-02    5.590400e-06
  7.261368e-02    5.605333e-06
  7.291261e-02    5.608844e-06
  7.321154e-02    5.621104e-06
  7.351047e-02    5.645699e-06
  7.380940e-02    5.611840e-06
  7.410833e-02    5.622005e-06
  7.440726e-02    5.617123e-06
  7.470619e-02    5.606507e-06
  7.500512e-02    5.600915e-06
  7.530405e-02    5.602931e-06
  7.560299e-02    5.624263e-06
  7.590192e-02    5.632106e-06
  7.620085e-02    5.627449e-06
  7.649978e-02    5.614837e-06
  7.679871e-02    5.655183e-06
  7.709764e-02    5.637645e-06
  7.739657e-02    5.639934e-06
  7.769550e-02    5.626431e-06
  7.799443e-02    5.580106e-06
  7.829336e-02    5.593000e-06
  7.859229e-02    5.613323e-06
  7.889122e-02    5.571511e-06
  7.919015e-02    5.558629e-06
  7.948908e-02    5.574797e-06
  7.978801e-02    5.563466e-06
  8.008694e-02    5.578349e-06
  8.038587e-02    5.574701e-06
  8.068480e-02    5.571925e-06
  8.098373e-02    5.588689e-06
  8.128266e-02    5.571447e-06
  8.158159e-02    5.543366e-06
  8.188052e-02    5.537870e-06
  8.217945e-02    5.561406e-06
  8.247838e-02    5.572508e-06
  8.277731e-02    5.533703e-06
  8.307624e-02    5.522646e-06
  8.337518e-02    5.539950e-06
  8.367411e-02    5.533227e-06
  8.397304e-02    5.550803e-06
  8.427197e-02    5.515481e-06
  8.457090e-02    5.477048e-06
  8.486983e-02    5.506130e-06
  8.516876e-02    5.500041e-06
  8.546769e-02    5.505985e-06
  8.576662e-02    5.482658e-06
  8.606555e-02    5.443272e-06
  8.636448e-02    5.445622e-06
  8.666341e-02    5.449154e-06
  8.696234e-02    5.429628e-06
  8.726127e-02    5.418502e-06
  8.756020e-02    5.402019e-06
  8.785913e-02    5.400377e-06
  8.815806e-02    5.367625e-06
  8.845699e-02    5.370366e-06
  8.875592e-02    5.377179e-06
  8.905485e-02    5.351096e-06
  8.935378e-02    5.378127e-06
  8.965271e-02    5.368641e-06
  8.995164e-02    5.316341e-06
  9.025057e-02    5.308528e-06
  9.054950e-02    5.323501e-06
  9.084843e-02    5.307937e-06
  9.114737e-02    5.303092e-06
  9.144630e-02    5.296092e-06
  9.174523e-02    5.262195e-06
  9.204416e-02    5.251805e-06
  9.234309e-02    5.216605e-06
  9.264202e-02    5.223675e-06
  9.294095e-02    5.222859e-06
  9.323988e-02    5.220592e-06
  9.353881e-02    5.214862e-06
  9.383774e-02    5.169353e-06
  9.413667e-02    5.159811e-06
  9.443560e-02    5.183703e-06
  9.473453e-02    5.173275e-06
  9.503346e-02    5.162040e-06
  9.533239e-02    5.157617e-06
  9.563132e-02    5.160035e-06
  9.593025e-02    5.167786e-06
  9.622918e-02    5.155076e-06
  9.652811e-02    5.174721e-06
  9.682704e-02    5.183522e-06
  9.712597e-02    5.180138e-06
  9.742490e-02    5.169129e-06
  9.772383e-02    5.166753e-06
  9.802276e-02    5.116949e-06
  9.832169e-02    5.076226e-06
  9.862062e-02    5.072846e-06
  9.891956e-02    5.030360e-06
  9.921849e-02    5.010530e-06
  9.951742e-02    5.036470e-06
  9.981635e-02    5.041516e-06
  1.001153e-01    5.000102e-06
  1.004142e-01    4.936001e-06
  1.007131e-01    4.922243e-06
  1.010121e-01    4.955094e-06
  1.013110e-01    4.949874e-06
  1.016099e-01    4.924886e-06
  1.019089e-01    4.929673e-06
  1.022078e-01    4.910698e-06
  1.025067e-01    4.895461e-06
  1.028057e-01    4.912012e-06
  1.031046e-01    4.923184e-06
  1.034035e-01    4.912864e-06
  1.037024e-01    4.897074e-06
  1.040014e-01    4.887437e-06
  1.043003e-01    4.855332e-06
  1.045992e-01    4.835163e-06
  1.048982e-01    4.822158e-06
  1.051971e-01    4.856875e-06
  1.054960e-01    4.849944e-06
  1.057950e-01    4.823723e-06
  1.060939e-01    4.802669e-06
  1.063928e-01    4.794217e-06
  1.066917e-01    4.779723e-06
  1.069907e-01    4.778856e-06
  1.072896e-01    4.775031e-06
  1.075885e-01    4.766799e-06
  1.078875e-01    4.765240e-06
  1.081864e-01    4.771942e-06
  1.084853e-01    4.744313e-06
  1.087843e-01    4.741512e-06
  1.090832e-01    4.786727e-06
  1.093821e-01    4.787413e-06
  1.096810e-01    4.736213e-06
  1.099800e-01    4.708390e-06
  1.102789e-01    4.678695e-06
  1.105778e-01    4.625381e-06
  1.108768e-01    4.635692e-06
  1.111757e-01    4.627558e-06
  1.114746e-01    4.592432e-06
  1.117736e-01    4.582188e-06
  1.120725e-01    4.564735e-06
  1.123714e-01    4.572894e-06
  1.126704e-01    4.567261e-06
  1.129693e-01    4.488060e-06
  1.132682e-01    4.473825e-06
  1.135671e-01    4.467778e-06
  1.138661e-01    4.481996e-06
  1.141650e-01    4.475156e-06
  1.144639e-01    4.474821e-06
  1.147629e-01    4.477894e-06
  1.150618e-01    4.535040e-06
  1.153607e-01    4.486861e-06
  1.156597e-01    4.458805e-06
  1.159586e-01    4.476728e-06
  1.162575e-01    4.415338e-06
  1.165564e-01    4.451764e-06
  1.168554e-01    4.460367e-06
  1.171543e-01    4.469909e-06
  1.174532e-01    4.459479e-06
  1.177522e-01    4.508914e-06
  1.180511e-01    4.548896e-06
  1.183500e-01    4.525639e-06
  1.186490e-01    4.464565e-06
  1.189479e-01    4.375094e-06
  1.192468e-01    4.322487e-06
  1.195458e-01    4.418316e-06
  1.198447e-01    4.499967e-06
  1.201436e-01    4.501780e-06
  1.204425e-01    4.391243e-06
  1.207415e-01    4.214866e-06
  1.210404e-01    4.079444e-06
  1.213393e-01    0.000000e+00
  1.216383e-01    0.000000e+00
  1.219372e-01    0.000000e+00
  1.222361e-01    0.000000e+00
  1.225351e-01    0.000000e+00
  1.228340e-01    0.000000e+00
  1.231329e-01    0.000000e+00
  1.234318e-01    0.000000e+00
  1.237308e-01    0.000000e+00
  1.240297e-01    0.000000e+00
  1.243286e-01    0.000000e+00
  1.246276e-01    0.000000e+00
  1.249265e-01    0.000000e+00
  1.252254e-01    0.000000e+00
  1.255244e-01    0.000000e+00
  1.258233e-01    0.000000e+00
  1.261222e-01    0.000000e+00
  1.264212e-01    0.000000e+00
  1.267201e-01    0.000000e+00
  1.270190e-01    0.000000e+00
  1.273179e-01    0.000000e+00
  1.276169e-01    0.000000e+00
  1.279158e-01    0.000000e+00
  1.282147e-01    0.000000e+00
  1.285137e-01    0.000000e+00
  1.288126e-01    0.000000e+00
  1.291115e-01    0.000000e+00
  1.294105e-01    0.000000e+00
  1.297094e-01    0.000000e+00
  1.300083e-01    0.000000e+00
  1.303072e-01    0.000000e+00
  1.306062e-01    0.000000e+00
  1.309051e-01    0.000000e+00
  1.312040e-01    0.000000e+00
  1.315030e-01    0.000000e+00
  1.318019e-01    0.000000e+00
  1.321008e-01    0.000000e+00
  1.323998e-01    0.000000e+00
  1.326987e-01    0.000000e+00
  1.329976e-01    0.000000e+00
  1.332965e-01    0.000000e+00
  1.335955e-01    0.000000e+00
  1.338944e-01    0.000000e+00
  1.341933e-01    0.000000e+00
  1.344923e-01    0.000000e+00
  1.347912e-01    0.000000e+00
  1.350901e-01    0.000000e+00
  1.353891e-01    0.000000e+00
  1.356880e-01    0.000000e+00
  1.359869e-01    0.000000e+00
  1.362859e-01    0.000000e+00
  1.365848e-01    0.000000e+00
  1.368837e-01    0.000000e+00
  1.371826e-01    0.000000e+00
  1.374816e-01    0.000000e+00
  1.377805e-01    0.000000e+00
  1.380794e-01    0.000000e+00
  1.383784e-01    0.000000e+00
  1.386773e-01    0.000000e+00
  1.389762e-01    0.000000e+00
  1.392752e-01    0.000000e+00
  1.395741e-01    0.000000e+00
  1.398730e-01    0.000000e+00
  1.401719e-01    0.000000e+00
  1.404709e-01    0.000000e+00
  1.407698e-01    0.000000e+00
  1.410687e-01    0.000000e+00
  1.413677e-01    0.000000e+00
  1.416666e-01    0.000000e+00
  1.419655e-01    0.000000e+00
  1.422645e-01    0.000000e+00
  1.425634e-01    0.000000e+00
  1.428623e-01    0.000000e+00
  1.431613e-01    0.000000e+00
  1.434602e-01    0.000000e+00
  1.437591e-01    0.000000e+00
  1.440580e-01    0.000000e+00
  1.443570e-01    0.000000e+00
  1.446559e-01    0.000000e+00
  1.449548e-01    0.000000e+00
  1.452538e-01    0.000000e+00
  1.455527e-01    0.000000e+00
  1.458516e-01    0.000000e+00
  1.461506e-01    0.000000e+00
  1.464495e-01    0.000000e+00
  1.467484e-01    0.000000e+00
  1.470473e-01    0.000000e+00
  1.473463e-01    0.000000e+00
  1.476452e-01    0.000000e+00
  1.479441e-01    0.000000e+00
  1.482431e-01    0.000000e+00
  1.485420e-01    0.000000e+00
  1.488409e-01    0.000000e+00
  1.491399e-01    0.000000e+00
  1.494388e-01    0.000000e+00
  1.497377e-01    0.000000e+00
  1.500367e-01    0.000000e+00
  1.503356e-01    0.000000e+00
  1.506345e-01    0.000000e+00
  1.509334e-01    0.000000e+00
  1.512324e-01    0.000000e+00
  1.515313e-01    0.000000e+00
  1.518302e-01    0.000000e+00
  1.521292e-01    0.000000e+00
  1.524281e-01    0.000000e+00
  1.527270e-01    0.000000e+00
  1.530260e-01    0.000000e+00
  1.533249e-01    0.000000e+00
  1.536238e-01    0.000000e+00
