# == pyFAI calibration ==
# Distance Sample to Detector: 2.266 m
# PONI: 5.659e-02, 4.293e-02 m
# Rotations: 0.000000 0.000000 0.000000 rad
# 
# == Fit2d calibration ==
# Distance Sample-beamCenter: 2266.000 mm
# Center: x=249.594, y=329.012 pix
# Tilt: 0.000 deg  TiltPlanRot: 0.000 deg
# 
# Detector Pilatus 300k	 PixelSize= 1.720e-04, 1.720e-04 m
#    Detector has a mask: True 
#    Detector has a dark current: False 
#    detector has a flat field: False 
# 
# Wavelength: 1.27818e-10 m
# Mask applied: user provided
# Dark current applied: False
# Flat field applied: False
# Polarization factor: None
# Normalization factor: 15407.37
# --> MT-AL_DowExpt1_220227_736cd135-a80e-4d48-adb9-fadcb03f207b_2_r1d.csv
#        q_A^-1             I 
  4.457554e-03    5.051572e-02
  4.756484e-03    4.048702e-02
  5.055415e-03    2.845704e-02
  5.354345e-03    2.010670e-02
  5.653276e-03    1.570519e-02
  5.952206e-03    2.708319e-02
  6.251136e-03    2.486035e-02
  6.550067e-03    2.142702e-02
  6.848997e-03    1.824514e-02
  7.147927e-03    1.530083e-02
  7.446858e-03    1.298463e-02
  7.745788e-03    1.103410e-02
  8.044719e-03    9.384021e-03
  8.343649e-03    8.094179e-03
  8.642579e-03    7.068302e-03
  8.941510e-03    6.184732e-03
  9.240440e-03    5.431723e-03
  9.539371e-03    4.831046e-03
  9.838301e-03    4.314674e-03
  1.013723e-02    3.840698e-03
  1.043616e-02    3.378803e-03
  1.073509e-02    3.027041e-03
  1.103402e-02    2.696516e-03
  1.133295e-02    2.458712e-03
  1.163188e-02    2.233058e-03
  1.193081e-02    2.066436e-03
  1.222974e-02    1.861772e-03
  1.252867e-02    1.686281e-03
  1.282760e-02    1.537337e-03
  1.312654e-02    1.402138e-03
  1.342547e-02    1.322685e-03
  1.372440e-02    1.240866e-03
  1.402333e-02    1.122261e-03
  1.432226e-02    1.037950e-03
  1.462119e-02    9.765419e-04
  1.492012e-02    9.052633e-04
  1.521905e-02    8.378205e-04
  1.551798e-02    7.749209e-04
  1.581691e-02    7.237541e-04
  1.611584e-02    6.764647e-04
  1.641477e-02    6.341254e-04
  1.671370e-02    6.128600e-04
  1.701263e-02    5.709615e-04
  1.731156e-02    5.408468e-04
  1.761049e-02    5.088600e-04
  1.790942e-02    4.765666e-04
  1.820835e-02    4.503303e-04
  1.850728e-02    4.270984e-04
  1.880621e-02    4.129524e-04
  1.910514e-02    3.968432e-04
  1.940407e-02    3.914007e-04
  1.970300e-02    3.769532e-04
  2.000193e-02    3.554015e-04
  2.030086e-02    3.301493e-04
  2.059979e-02    3.105497e-04
  2.089873e-02    3.073512e-04
  2.119766e-02    2.926012e-04
  2.149659e-02    2.819022e-04
  2.179552e-02    2.781621e-04
  2.209445e-02    2.617179e-04
  2.239338e-02    2.487419e-04
  2.269231e-02    2.461092e-04
  2.299124e-02    2.387299e-04
  2.329017e-02    2.282162e-04
  2.358910e-02    2.232089e-04
  2.388803e-02    2.220889e-04
  2.418696e-02    2.206870e-04
  2.448589e-02    2.042844e-04
  2.478482e-02    2.003034e-04
  2.508375e-02    1.994196e-04
  2.538268e-02    1.949675e-04
  2.568161e-02    1.846055e-04
  2.598054e-02    1.818160e-04
  2.627947e-02    1.874254e-04
  2.657840e-02    1.843727e-04
  2.687733e-02    1.823146e-04
  2.717626e-02    1.740205e-04
  2.747519e-02    1.687120e-04
  2.777412e-02    1.659820e-04
  2.807305e-02    1.592699e-04
  2.837198e-02    1.622745e-04
  2.867092e-02    1.593629e-04
  2.896985e-02    1.592326e-04
  2.926878e-02    1.609171e-04
  2.956771e-02    1.497120e-04
  2.986664e-02    1.472746e-04
  3.016557e-02    1.475683e-04
  3.046450e-02    1.473313e-04
  3.076343e-02    1.538707e-04
  3.106236e-02    1.542966e-04
  3.136129e-02    1.454339e-04
  3.166022e-02    1.408735e-04
  3.195915e-02    1.423645e-04
  3.225808e-02    1.368500e-04
  3.255701e-02    1.420621e-04
  3.285594e-02    1.391277e-04
  3.315487e-02    1.310170e-04
  3.345380e-02    1.309979e-04
  3.375273e-02    1.275689e-04
  3.405166e-02    1.312082e-04
  3.435059e-02    1.273671e-04
  3.464952e-02    1.224049e-04
  3.494845e-02    1.248333e-04
  3.524738e-02    1.268736e-04
  3.554631e-02    1.247531e-04
  3.584524e-02    1.206199e-04
  3.614417e-02    1.214851e-04
  3.644310e-02    1.252870e-04
  3.674204e-02    1.247006e-04
  3.704097e-02    1.177362e-04
  3.733990e-02    1.104596e-04
  3.763883e-02    1.101837e-04
  3.793776e-02    1.124717e-04
  3.823669e-02    1.103868e-04
  3.853562e-02    1.112972e-04
  3.883455e-02    1.150569e-04
  3.913348e-02    1.091827e-04
  3.943241e-02    1.089959e-04
  3.973134e-02    1.133482e-04
  4.003027e-02    1.087261e-04
  4.032920e-02    1.052330e-04
  4.062813e-02    1.089603e-04
  4.092706e-02    1.100152e-04
  4.122599e-02    1.083643e-04
  4.152492e-02    1.108633e-04
  4.182385e-02    1.085312e-04
  4.212278e-02    1.047894e-04
  4.242171e-02    1.031960e-04
  4.272064e-02    1.012374e-04
  4.301957e-02    1.028286e-04
  4.331850e-02    1.036697e-04
  4.361743e-02    9.833931e-05
  4.391636e-02    9.925820e-05
  4.421529e-02    9.980669e-05
  4.451423e-02    9.899371e-05
  4.481316e-02    9.691747e-05
  4.511209e-02    1.000619e-04
  4.541102e-02    9.921173e-05
  4.570995e-02    9.830560e-05
  4.600888e-02    9.890511e-05
  4.630781e-02    9.434728e-05
  4.660674e-02    9.903251e-05
  4.690567e-02    9.972887e-05
  4.720460e-02    1.006904e-04
  4.750353e-02    1.011538e-04
  4.780246e-02    1.025739e-04
  4.810139e-02    1.006951e-04
  4.840032e-02    9.795798e-05
  4.869925e-02    1.014534e-04
  4.899818e-02    1.020077e-04
  4.929711e-02    1.020116e-04
  4.959604e-02    1.028120e-04
  4.989497e-02    9.957072e-05
  5.019390e-02    9.365276e-05
  5.049283e-02    9.738010e-05
  5.079176e-02    1.007119e-04
  5.109069e-02    1.006030e-04
  5.138962e-02    1.023140e-04
  5.168855e-02    1.045119e-04
  5.198748e-02    1.067741e-04
  5.228642e-02    1.083817e-04
  5.258535e-02    1.012145e-04
  5.288428e-02    9.838142e-05
  5.318321e-02    9.524196e-05
  5.348214e-02    9.689268e-05
  5.378107e-02    9.818945e-05
  5.408000e-02    9.704348e-05
  5.437893e-02    9.796695e-05
  5.467786e-02    1.000922e-04
  5.497679e-02    1.011462e-04
  5.527572e-02    9.904156e-05
  5.557465e-02    9.860666e-05
  5.587358e-02    1.004999e-04
  5.617251e-02    1.022341e-04
  5.647144e-02    9.626349e-05
  5.677037e-02    9.604212e-05
  5.706930e-02    1.009014e-04
  5.736823e-02    9.985676e-05
  5.766716e-02    9.759876e-05
  5.796609e-02    9.992778e-05
  5.826502e-02    9.925300e-05
  5.856395e-02    9.681629e-05
  5.886288e-02    9.593556e-05
  5.916181e-02    9.614362e-05
  5.946074e-02    1.013459e-04
  5.975967e-02    1.014806e-04
  6.005861e-02    1.013635e-04
  6.035754e-02    1.004752e-04
  6.065647e-02    9.571703e-05
  6.095540e-02    9.835719e-05
  6.125433e-02    1.065190e-04
  6.155326e-02    1.059721e-04
  6.185219e-02    1.000737e-04
  6.215112e-02    1.023821e-04
  6.245005e-02    1.041256e-04
  6.274898e-02    1.032796e-04
  6.304791e-02    1.006170e-04
  6.334684e-02    1.027079e-04
  6.364577e-02    1.024651e-04
  6.394470e-02    1.014600e-04
  6.424363e-02    1.027296e-04
  6.454256e-02    1.014574e-04
  6.484149e-02    9.957747e-05
  6.514042e-02    1.007416e-04
  6.543935e-02    1.002408e-04
  6.573828e-02    1.002197e-04
  6.603721e-02    1.029300e-04
  6.633614e-02    1.045814e-04
  6.663507e-02    1.064958e-04
  6.693400e-02    1.059444e-04
  6.723293e-02    1.036313e-04
  6.753186e-02    1.001824e-04
  6.783080e-02    1.020583e-04
  6.812973e-02    1.024092e-04
  6.842866e-02    1.015794e-04
  6.872759e-02    9.986734e-05
  6.902652e-02    1.020857e-04
  6.932545e-02    1.015576e-04
  6.962438e-02    1.010699e-04
  6.992331e-02    1.039998e-04
  7.022224e-02    1.064061e-04
  7.052117e-02    1.068160e-04
  7.082010e-02    1.055419e-04
  7.111903e-02    1.041991e-04
  7.141796e-02    1.020512e-04
  7.171689e-02    1.052495e-04
  7.201582e-02    1.064071e-04
  7.231475e-02    1.060530e-04
  7.261368e-02    1.027816e-04
  7.291261e-02    1.050170e-04
  7.321154e-02    1.054455e-04
  7.351047e-02    1.036483e-04
  7.380940e-02    1.038507e-04
  7.410833e-02    1.066239e-04
  7.440726e-02    1.064127e-04
  7.470619e-02    1.064172e-04
  7.500512e-02    1.044995e-04
  7.530405e-02    1.053110e-04
  7.560299e-02    1.046848e-04
  7.590192e-02    1.054259e-04
  7.620085e-02    1.079223e-04
  7.649978e-02    1.097140e-04
  7.679871e-02    1.086841e-04
  7.709764e-02    1.026924e-04
  7.739657e-02    1.005744e-04
  7.769550e-02    1.040998e-04
  7.799443e-02    1.043209e-04
  7.829336e-02    1.045911e-04
  7.859229e-02    1.065771e-04
  7.889122e-02    1.071435e-04
  7.919015e-02    1.016907e-04
  7.948908e-02    1.012270e-04
  7.978801e-02    1.029937e-04
  8.008694e-02    1.039859e-04
  8.038587e-02    1.038892e-04
  8.068480e-02    1.042802e-04
  8.098373e-02    1.066859e-04
  8.128266e-02    1.011091e-04
  8.158159e-02    1.013879e-04
  8.188052e-02    1.011489e-04
  8.217945e-02    1.028762e-04
  8.247838e-02    1.009090e-04
  8.277731e-02    9.977376e-05
  8.307624e-02    1.053699e-04
  8.337518e-02    1.031299e-04
  8.367411e-02    1.003846e-04
  8.397304e-02    1.009930e-04
  8.427197e-02    9.725342e-05
  8.457090e-02    9.948547e-05
  8.486983e-02    1.012112e-04
  8.516876e-02    9.861654e-05
  8.546769e-02    9.893496e-05
  8.576662e-02    9.849786e-05
  8.606555e-02    1.016060e-04
  8.636448e-02    1.009592e-04
  8.666341e-02    9.987446e-05
  8.696234e-02    1.005976e-04
  8.726127e-02    1.011074e-04
  8.756020e-02    1.004443e-04
  8.785913e-02    9.700572e-05
  8.815806e-02    9.736332e-05
  8.845699e-02    9.881152e-05
  8.875592e-02    9.897850e-05
  8.905485e-02    9.819432e-05
  8.935378e-02    9.911913e-05
  8.965271e-02    9.996119e-05
  8.995164e-02    9.867024e-05
  9.025057e-02    9.961716e-05
  9.054950e-02    1.002835e-04
  9.084843e-02    1.025887e-04
  9.114737e-02    9.926759e-05
  9.144630e-02    9.815029e-05
  9.174523e-02    9.919521e-05
  9.204416e-02    1.010044e-04
  9.234309e-02    9.972027e-05
  9.264202e-02    9.851982e-05
  9.294095e-02    9.622225e-05
  9.323988e-02    9.732132e-05
  9.353881e-02    9.747441e-05
  9.383774e-02    9.610932e-05
  9.413667e-02    9.610460e-05
  9.443560e-02    9.576422e-05
  9.473453e-02    9.501950e-05
  9.503346e-02    9.328084e-05
  9.533239e-02    9.309418e-05
  9.563132e-02    9.392952e-05
  9.593025e-02    9.495998e-05
  9.622918e-02    9.382822e-05
  9.652811e-02    9.451410e-05
  9.682704e-02    9.501380e-05
  9.712597e-02    9.479559e-05
  9.742490e-02    9.610418e-05
  9.772383e-02    9.434509e-05
  9.802276e-02    9.205151e-05
  9.832169e-02    9.301153e-05
  9.862062e-02    9.236731e-05
  9.891956e-02    9.363900e-05
  9.921849e-02    9.156028e-05
  9.951742e-02    8.996753e-05
  9.981635e-02    8.978901e-05
  1.001153e-01    9.001122e-05
  1.004142e-01    9.204406e-05
  1.007131e-01    9.514982e-05
  1.010121e-01    9.245492e-05
  1.013110e-01    9.133502e-05
  1.016099e-01    8.963761e-05
  1.019089e-01    9.026995e-05
  1.022078e-01    8.796269e-05
  1.025067e-01    8.457115e-05
  1.028057e-01    8.675762e-05
  1.031046e-01    8.769485e-05
  1.034035e-01    9.025076e-05
  1.037024e-01    9.297350e-05
  1.040014e-01    8.951476e-05
  1.043003e-01    8.859319e-05
  1.045992e-01    8.901265e-05
  1.048982e-01    9.173043e-05
  1.051971e-01    9.069640e-05
  1.054960e-01    8.975455e-05
  1.057950e-01    8.974931e-05
  1.060939e-01    8.975722e-05
  1.063928e-01    8.950471e-05
  1.066917e-01    9.227421e-05
  1.069907e-01    8.809430e-05
  1.072896e-01    8.747048e-05
  1.075885e-01    8.724634e-05
  1.078875e-01    9.040856e-05
  1.081864e-01    8.944211e-05
  1.084853e-01    8.641184e-05
  1.087843e-01    8.658349e-05
  1.090832e-01    8.991404e-05
  1.093821e-01    9.031987e-05
  1.096810e-01    8.859069e-05
  1.099800e-01    8.731183e-05
  1.102789e-01    8.422952e-05
  1.105778e-01    8.578729e-05
  1.108768e-01    8.665903e-05
  1.111757e-01    8.610167e-05
  1.114746e-01    8.286654e-05
  1.117736e-01    8.503145e-05
  1.120725e-01    8.995100e-05
  1.123714e-01    8.765775e-05
  1.126704e-01    8.500886e-05
  1.129693e-01    8.341019e-05
  1.132682e-01    8.267862e-05
  1.135671e-01    8.377810e-05
  1.138661e-01    8.419486e-05
  1.141650e-01    8.482208e-05
  1.144639e-01    8.634639e-05
  1.147629e-01    8.371804e-05
  1.150618e-01    8.201075e-05
  1.153607e-01    7.954589e-05
  1.156597e-01    8.424989e-05
  1.159586e-01    8.635604e-05
  1.162575e-01    8.251934e-05
  1.165564e-01    7.861264e-05
  1.168554e-01    7.658960e-05
  1.171543e-01    7.423940e-05
  1.174532e-01    7.586693e-05
  1.177522e-01    7.430983e-05
  1.180511e-01    7.254181e-05
  1.183500e-01    7.698963e-05
  1.186490e-01    7.652412e-05
  1.189479e-01    7.902531e-05
  1.192468e-01    8.867843e-05
  1.195458e-01    8.841797e-05
  1.198447e-01    7.816885e-05
  1.201436e-01    7.462133e-05
  1.204425e-01    7.365997e-05
  1.207415e-01    6.163816e-05
  1.210404e-01    6.496280e-05
  1.213393e-01    0.000000e+00
  1.216383e-01    0.000000e+00
  1.219372e-01    0.000000e+00
  1.222361e-01    0.000000e+00
  1.225351e-01    0.000000e+00
  1.228340e-01    0.000000e+00
  1.231329e-01    0.000000e+00
  1.234318e-01    0.000000e+00
  1.237308e-01    0.000000e+00
  1.240297e-01    0.000000e+00
  1.243286e-01    0.000000e+00
  1.246276e-01    0.000000e+00
  1.249265e-01    0.000000e+00
  1.252254e-01    0.000000e+00
  1.255244e-01    0.000000e+00
  1.258233e-01    0.000000e+00
  1.261222e-01    0.000000e+00
  1.264212e-01    0.000000e+00
  1.267201e-01    0.000000e+00
  1.270190e-01    0.000000e+00
  1.273179e-01    0.000000e+00
  1.276169e-01    0.000000e+00
  1.279158e-01    0.000000e+00
  1.282147e-01    0.000000e+00
  1.285137e-01    0.000000e+00
  1.288126e-01    0.000000e+00
  1.291115e-01    0.000000e+00
  1.294105e-01    0.000000e+00
  1.297094e-01    0.000000e+00
  1.300083e-01    0.000000e+00
  1.303072e-01    0.000000e+00
  1.306062e-01    0.000000e+00
  1.309051e-01    0.000000e+00
  1.312040e-01    0.000000e+00
  1.315030e-01    0.000000e+00
  1.318019e-01    0.000000e+00
  1.321008e-01    0.000000e+00
  1.323998e-01    0.000000e+00
  1.326987e-01    0.000000e+00
  1.329976e-01    0.000000e+00
  1.332965e-01    0.000000e+00
  1.335955e-01    0.000000e+00
  1.338944e-01    0.000000e+00
  1.341933e-01    0.000000e+00
  1.344923e-01    0.000000e+00
  1.347912e-01    0.000000e+00
  1.350901e-01    0.000000e+00
  1.353891e-01    0.000000e+00
  1.356880e-01    0.000000e+00
  1.359869e-01    0.000000e+00
  1.362859e-01    0.000000e+00
  1.365848e-01    0.000000e+00
  1.368837e-01    0.000000e+00
  1.371826e-01    0.000000e+00
  1.374816e-01    0.000000e+00
  1.377805e-01    0.000000e+00
  1.380794e-01    0.000000e+00
  1.383784e-01    0.000000e+00
  1.386773e-01    0.000000e+00
  1.389762e-01    0.000000e+00
  1.392752e-01    0.000000e+00
  1.395741e-01    0.000000e+00
  1.398730e-01    0.000000e+00
  1.401719e-01    0.000000e+00
  1.404709e-01    0.000000e+00
  1.407698e-01    0.000000e+00
  1.410687e-01    0.000000e+00
  1.413677e-01    0.000000e+00
  1.416666e-01    0.000000e+00
  1.419655e-01    0.000000e+00
  1.422645e-01    0.000000e+00
  1.425634e-01    0.000000e+00
  1.428623e-01    0.000000e+00
  1.431613e-01    0.000000e+00
  1.434602e-01    0.000000e+00
  1.437591e-01    0.000000e+00
  1.440580e-01    0.000000e+00
  1.443570e-01    0.000000e+00
  1.446559e-01    0.000000e+00
  1.449548e-01    0.000000e+00
  1.452538e-01    0.000000e+00
  1.455527e-01    0.000000e+00
  1.458516e-01    0.000000e+00
  1.461506e-01    0.000000e+00
  1.464495e-01    0.000000e+00
  1.467484e-01    0.000000e+00
  1.470473e-01    0.000000e+00
  1.473463e-01    0.000000e+00
  1.476452e-01    0.000000e+00
  1.479441e-01    0.000000e+00
  1.482431e-01    0.000000e+00
  1.485420e-01    0.000000e+00
  1.488409e-01    0.000000e+00
  1.491399e-01    0.000000e+00
  1.494388e-01    0.000000e+00
  1.497377e-01    0.000000e+00
  1.500367e-01    0.000000e+00
  1.503356e-01    0.000000e+00
  1.506345e-01    0.000000e+00
  1.509334e-01    0.000000e+00
  1.512324e-01    0.000000e+00
  1.515313e-01    0.000000e+00
  1.518302e-01    0.000000e+00
  1.521292e-01    0.000000e+00
  1.524281e-01    0.000000e+00
  1.527270e-01    0.000000e+00
  1.530260e-01    0.000000e+00
  1.533249e-01    0.000000e+00
  1.536238e-01    0.000000e+00
