# == pyFAI calibration ==
# Distance Sample to Detector: 2.266 m
# PONI: 5.659e-02, 4.293e-02 m
# Rotations: 0.000000 0.000000 0.000000 rad
# 
# == Fit2d calibration ==
# Distance Sample-beamCenter: 2266.000 mm
# Center: x=249.594, y=329.012 pix
# Tilt: 0.000 deg  TiltPlanRot: 0.000 deg
# 
# Detector Pilatus 300k	 PixelSize= 1.720e-04, 1.720e-04 m
#    Detector has a mask: True 
#    Detector has a dark current: False 
#    detector has a flat field: False 
# 
# Wavelength: 1.27818e-10 m
# Mask applied: user provided
# Dark current applied: False
# Flat field applied: False
# Polarization factor: None
# Normalization factor: 171382.6
# --> MT-AL_F127_220228_a88a99e0-2e33-4a21-9545-fc7bba88966d_0_r1d.csv
#        q_A^-1             I 
  4.457554e-03    1.815563e-03
  4.756484e-03    1.683543e-03
  5.055415e-03    1.436307e-03
  5.354345e-03    1.182730e-03
  5.653276e-03    1.021122e-03
  5.952206e-03    1.392340e-03
  6.251136e-03    1.333004e-03
  6.550067e-03    1.178413e-03
  6.848997e-03    1.018480e-03
  7.147927e-03    8.927820e-04
  7.446858e-03    7.773765e-04
  7.745788e-03    6.791563e-04
  8.044719e-03    5.985255e-04
  8.343649e-03    5.259279e-04
  8.642579e-03    4.682987e-04
  8.941510e-03    4.170940e-04
  9.240440e-03    3.733102e-04
  9.539371e-03    3.317761e-04
  9.838301e-03    2.977724e-04
  1.013723e-02    2.690735e-04
  1.043616e-02    2.461483e-04
  1.073509e-02    2.214389e-04
  1.103402e-02    2.025764e-04
  1.133295e-02    1.826467e-04
  1.163188e-02    1.651307e-04
  1.193081e-02    1.512204e-04
  1.222974e-02    1.361661e-04
  1.252867e-02    1.211998e-04
  1.282760e-02    1.125499e-04
  1.312654e-02    1.040482e-04
  1.342547e-02    9.353061e-05
  1.372440e-02    8.567466e-05
  1.402333e-02    7.915180e-05
  1.432226e-02    7.382300e-05
  1.462119e-02    6.660607e-05
  1.492012e-02    6.122140e-05
  1.521905e-02    5.726862e-05
  1.551798e-02    5.398659e-05
  1.581691e-02    4.939625e-05
  1.611584e-02    4.463443e-05
  1.641477e-02    4.180194e-05
  1.671370e-02    3.809873e-05
  1.701263e-02    3.558191e-05
  1.731156e-02    3.460334e-05
  1.761049e-02    3.282733e-05
  1.790942e-02    2.975537e-05
  1.820835e-02    2.831565e-05
  1.850728e-02    2.722764e-05
  1.880621e-02    2.604006e-05
  1.910514e-02    2.389827e-05
  1.940407e-02    2.234345e-05
  1.970300e-02    2.088752e-05
  2.000193e-02    2.031932e-05
  2.030086e-02    1.997698e-05
  2.059979e-02    1.826592e-05
  2.089873e-02    1.746345e-05
  2.119766e-02    1.681749e-05
  2.149659e-02    1.581853e-05
  2.179552e-02    1.477490e-05
  2.209445e-02    1.460051e-05
  2.239338e-02    1.420531e-05
  2.269231e-02    1.315516e-05
  2.299124e-02    1.197450e-05
  2.329017e-02    1.161051e-05
  2.358910e-02    1.118617e-05
  2.388803e-02    1.028879e-05
  2.418696e-02    9.748516e-06
  2.448589e-02    9.284001e-06
  2.478482e-02    9.227738e-06
  2.508375e-02    9.686613e-06
  2.538268e-02    9.390335e-06
  2.568161e-02    8.726757e-06
  2.598054e-02    8.546470e-06
  2.627947e-02    8.325439e-06
  2.657840e-02    8.154158e-06
  2.687733e-02    8.102311e-06
  2.717626e-02    7.576720e-06
  2.747519e-02    7.061797e-06
  2.777412e-02    7.136619e-06
  2.807305e-02    6.684304e-06
  2.837198e-02    6.460274e-06
  2.867092e-02    6.528726e-06
  2.896985e-02    6.499822e-06
  2.926878e-02    6.409244e-06
  2.956771e-02    6.088418e-06
  2.986664e-02    5.678028e-06
  3.016557e-02    5.600666e-06
  3.046450e-02    5.580022e-06
  3.076343e-02    5.414455e-06
  3.106236e-02    5.527713e-06
  3.136129e-02    5.312120e-06
  3.166022e-02    5.110730e-06
  3.195915e-02    5.012250e-06
  3.225808e-02    4.913240e-06
  3.255701e-02    4.777203e-06
  3.285594e-02    4.840947e-06
  3.315487e-02    4.575554e-06
  3.345380e-02    4.650345e-06
  3.375273e-02    4.725893e-06
  3.405166e-02    4.714509e-06
  3.435059e-02    4.442974e-06
  3.464952e-02    4.377450e-06
  3.494845e-02    4.081630e-06
  3.524738e-02    3.747732e-06
  3.554631e-02    3.512955e-06
  3.584524e-02    3.967183e-06
  3.614417e-02    3.890134e-06
  3.644310e-02    3.977093e-06
  3.674204e-02    3.928983e-06
  3.704097e-02    3.755835e-06
  3.733990e-02    3.523680e-06
  3.763883e-02    3.579454e-06
  3.793776e-02    3.443118e-06
  3.823669e-02    3.692280e-06
  3.853562e-02    3.513975e-06
  3.883455e-02    3.788600e-06
  3.913348e-02    3.570907e-06
  3.943241e-02    3.252245e-06
  3.973134e-02    3.323266e-06
  4.003027e-02    3.167933e-06
  4.032920e-02    3.089996e-06
  4.062813e-02    3.260081e-06
  4.092706e-02    3.034369e-06
  4.122599e-02    3.002984e-06
  4.152492e-02    3.108099e-06
  4.182385e-02    3.094921e-06
  4.212278e-02    3.058429e-06
  4.242171e-02    2.900250e-06
  4.272064e-02    2.982838e-06
  4.301957e-02    3.048353e-06
  4.331850e-02    2.911088e-06
  4.361743e-02    2.860013e-06
  4.391636e-02    3.159590e-06
  4.421529e-02    2.992916e-06
  4.451423e-02    2.634028e-06
  4.481316e-02    2.776330e-06
  4.511209e-02    3.102961e-06
  4.541102e-02    3.109541e-06
  4.570995e-02    2.741887e-06
  4.600888e-02    2.726538e-06
  4.630781e-02    2.740610e-06
  4.660674e-02    2.898834e-06
  4.690567e-02    2.693557e-06
  4.720460e-02    2.634813e-06
  4.750353e-02    2.618688e-06
  4.780246e-02    2.536736e-06
  4.810139e-02    2.596837e-06
  4.840032e-02    2.619458e-06
  4.869925e-02    2.418921e-06
  4.899818e-02    2.437713e-06
  4.929711e-02    2.731127e-06
  4.959604e-02    2.724453e-06
  4.989497e-02    2.673428e-06
  5.019390e-02    2.778676e-06
  5.049283e-02    2.698479e-06
  5.079176e-02    2.720891e-06
  5.109069e-02    2.573272e-06
  5.138962e-02    2.531037e-06
  5.168855e-02    2.610219e-06
  5.198748e-02    2.661925e-06
  5.228642e-02    2.611710e-06
  5.258535e-02    2.604271e-06
  5.288428e-02    2.505791e-06
  5.318321e-02    2.375743e-06
  5.348214e-02    2.380026e-06
  5.378107e-02    2.453003e-06
  5.408000e-02    2.470503e-06
  5.437893e-02    2.561543e-06
  5.467786e-02    2.405942e-06
  5.497679e-02    2.423714e-06
  5.527572e-02    2.525143e-06
  5.557465e-02    2.526705e-06
  5.587358e-02    2.613749e-06
  5.617251e-02    2.565692e-06
  5.647144e-02    2.331554e-06
  5.677037e-02    2.165899e-06
  5.706930e-02    2.439560e-06
  5.736823e-02    2.583280e-06
  5.766716e-02    2.407653e-06
  5.796609e-02    2.321545e-06
  5.826502e-02    2.250355e-06
  5.856395e-02    2.027740e-06
  5.886288e-02    2.286824e-06
  5.916181e-02    2.410384e-06
  5.946074e-02    2.316164e-06
  5.975967e-02    2.241054e-06
  6.005861e-02    2.279850e-06
  6.035754e-02    2.429375e-06
  6.065647e-02    2.575823e-06
  6.095540e-02    2.510301e-06
  6.125433e-02    2.428424e-06
  6.155326e-02    2.473723e-06
  6.185219e-02    2.368506e-06
  6.215112e-02    2.238132e-06
  6.245005e-02    2.171328e-06
  6.274898e-02    2.435757e-06
  6.304791e-02    2.458357e-06
  6.334684e-02    2.481511e-06
  6.364577e-02    2.400472e-06
  6.394470e-02    2.331141e-06
  6.424363e-02    2.364297e-06
  6.454256e-02    2.418906e-06
  6.484149e-02    2.425743e-06
  6.514042e-02    2.353219e-06
  6.543935e-02    2.211517e-06
  6.573828e-02    2.444235e-06
  6.603721e-02    2.399779e-06
  6.633614e-02    2.272200e-06
  6.663507e-02    2.369096e-06
  6.693400e-02    2.238272e-06
  6.723293e-02    2.283464e-06
  6.753186e-02    2.289615e-06
  6.783080e-02    2.219472e-06
  6.812973e-02    2.229081e-06
  6.842866e-02    2.227199e-06
  6.872759e-02    2.266885e-06
  6.902652e-02    2.441119e-06
  6.932545e-02    2.541625e-06
  6.962438e-02    2.597436e-06
  6.992331e-02    2.624916e-06
  7.022224e-02    2.499440e-06
  7.052117e-02    2.449132e-06
  7.082010e-02    2.527546e-06
  7.111903e-02    2.480801e-06
  7.141796e-02    2.456902e-06
  7.171689e-02    2.303312e-06
  7.201582e-02    2.318272e-06
  7.231475e-02    2.440392e-06
  7.261368e-02    2.426873e-06
  7.291261e-02    2.375289e-06
  7.321154e-02    2.306532e-06
  7.351047e-02    2.329998e-06
  7.380940e-02    2.362128e-06
  7.410833e-02    2.329231e-06
  7.440726e-02    2.360877e-06
  7.470619e-02    2.333834e-06
  7.500512e-02    2.248995e-06
  7.530405e-02    2.240993e-06
  7.560299e-02    2.175312e-06
  7.590192e-02    2.313893e-06
  7.620085e-02    2.437108e-06
  7.649978e-02    2.334192e-06
  7.679871e-02    2.354779e-06
  7.709764e-02    2.597073e-06
  7.739657e-02    2.452943e-06
  7.769550e-02    2.362647e-06
  7.799443e-02    2.372504e-06
  7.829336e-02    2.318471e-06
  7.859229e-02    2.296589e-06
  7.889122e-02    2.301836e-06
  7.919015e-02    2.265624e-06
  7.948908e-02    2.360287e-06
  7.978801e-02    2.309192e-06
  8.008694e-02    2.217271e-06
  8.038587e-02    2.161489e-06
  8.068480e-02    2.254024e-06
  8.098373e-02    2.296771e-06
  8.128266e-02    2.348262e-06
  8.158159e-02    2.255015e-06
  8.188052e-02    2.233687e-06
  8.217945e-02    2.336002e-06
  8.247838e-02    2.318277e-06
  8.277731e-02    2.224799e-06
  8.307624e-02    2.283958e-06
  8.337518e-02    2.313220e-06
  8.367411e-02    2.149784e-06
  8.397304e-02    2.132940e-06
  8.427197e-02    2.182015e-06
  8.457090e-02    2.251425e-06
  8.486983e-02    2.334005e-06
  8.516876e-02    2.260784e-06
  8.546769e-02    2.223133e-06
  8.576662e-02    2.354409e-06
  8.606555e-02    2.342779e-06
  8.636448e-02    2.345571e-06
  8.666341e-02    2.392120e-06
  8.696234e-02    2.480477e-06
  8.726127e-02    2.433718e-06
  8.756020e-02    2.613150e-06
  8.785913e-02    2.433720e-06
  8.815806e-02    2.356068e-06
  8.845699e-02    2.243448e-06
  8.875592e-02    2.160226e-06
  8.905485e-02    2.314179e-06
  8.935378e-02    2.205504e-06
  8.965271e-02    2.162324e-06
  8.995164e-02    2.246177e-06
  9.025057e-02    2.125645e-06
  9.054950e-02    2.013876e-06
  9.084843e-02    2.065368e-06
  9.114737e-02    2.119981e-06
  9.144630e-02    2.198622e-06
  9.174523e-02    2.208427e-06
  9.204416e-02    2.194696e-06
  9.234309e-02    2.013458e-06
  9.264202e-02    2.102305e-06
  9.294095e-02    2.141726e-06
  9.323988e-02    2.086010e-06
  9.353881e-02    2.225057e-06
  9.383774e-02    2.203137e-06
  9.413667e-02    1.988336e-06
  9.443560e-02    2.066152e-06
  9.473453e-02    2.135171e-06
  9.503346e-02    2.217017e-06
  9.533239e-02    2.155617e-06
  9.563132e-02    1.995590e-06
  9.593025e-02    2.109670e-06
  9.622918e-02    2.033219e-06
  9.652811e-02    1.904561e-06
  9.682704e-02    1.948623e-06
  9.712597e-02    1.998308e-06
  9.742490e-02    2.040093e-06
  9.772383e-02    1.964968e-06
  9.802276e-02    2.071467e-06
  9.832169e-02    2.205068e-06
  9.862062e-02    2.240324e-06
  9.891956e-02    2.094214e-06
  9.921849e-02    1.997938e-06
  9.951742e-02    2.054837e-06
  9.981635e-02    2.080954e-06
  1.001153e-01    2.086608e-06
  1.004142e-01    2.027842e-06
  1.007131e-01    1.932729e-06
  1.010121e-01    1.883934e-06
  1.013110e-01    1.936939e-06
  1.016099e-01    2.005875e-06
  1.019089e-01    2.064962e-06
  1.022078e-01    2.012352e-06
  1.025067e-01    2.027762e-06
  1.028057e-01    2.005095e-06
  1.031046e-01    2.021439e-06
  1.034035e-01    2.022838e-06
  1.037024e-01    1.979566e-06
  1.040014e-01    1.949160e-06
  1.043003e-01    1.899368e-06
  1.045992e-01    1.931410e-06
  1.048982e-01    2.051012e-06
  1.051971e-01    2.025200e-06
  1.054960e-01    1.841846e-06
  1.057950e-01    1.936474e-06
  1.060939e-01    2.021813e-06
  1.063928e-01    1.940871e-06
  1.066917e-01    1.966222e-06
  1.069907e-01    1.969635e-06
  1.072896e-01    1.873708e-06
  1.075885e-01    1.737895e-06
  1.078875e-01    1.807397e-06
  1.081864e-01    1.918384e-06
  1.084853e-01    1.917523e-06
  1.087843e-01    1.933690e-06
  1.090832e-01    2.017579e-06
  1.093821e-01    2.035812e-06
  1.096810e-01    1.992637e-06
  1.099800e-01    1.909896e-06
  1.102789e-01    1.906297e-06
  1.105778e-01    1.939693e-06
  1.108768e-01    1.787014e-06
  1.111757e-01    1.909846e-06
  1.114746e-01    1.923776e-06
  1.117736e-01    1.894971e-06
  1.120725e-01    1.964821e-06
  1.123714e-01    1.896478e-06
  1.126704e-01    1.787297e-06
  1.129693e-01    1.796141e-06
  1.132682e-01    1.785990e-06
  1.135671e-01    1.999983e-06
  1.138661e-01    1.961391e-06
  1.141650e-01    1.712305e-06
  1.144639e-01    1.651013e-06
  1.147629e-01    1.663094e-06
  1.150618e-01    1.989378e-06
  1.153607e-01    1.860168e-06
  1.156597e-01    1.801438e-06
  1.159586e-01    1.854003e-06
  1.162575e-01    1.745861e-06
  1.165564e-01    1.883247e-06
  1.168554e-01    1.931081e-06
  1.171543e-01    1.691999e-06
  1.174532e-01    1.857338e-06
  1.177522e-01    1.975973e-06
  1.180511e-01    1.613422e-06
  1.183500e-01    1.479186e-06
  1.186490e-01    1.775713e-06
  1.189479e-01    2.027786e-06
  1.192468e-01    1.995245e-06
  1.195458e-01    1.968689e-06
  1.198447e-01    2.369909e-06
  1.201436e-01    2.567411e-06
  1.204425e-01    3.178277e-06
  1.207415e-01    3.808010e-06
  1.210404e-01    5.840184e-06
  1.213393e-01    0.000000e+00
  1.216383e-01    0.000000e+00
  1.219372e-01    0.000000e+00
  1.222361e-01    0.000000e+00
  1.225351e-01    0.000000e+00
  1.228340e-01    0.000000e+00
  1.231329e-01    0.000000e+00
  1.234318e-01    0.000000e+00
  1.237308e-01    0.000000e+00
  1.240297e-01    0.000000e+00
  1.243286e-01    0.000000e+00
  1.246276e-01    0.000000e+00
  1.249265e-01    0.000000e+00
  1.252254e-01    0.000000e+00
  1.255244e-01    0.000000e+00
  1.258233e-01    0.000000e+00
  1.261222e-01    0.000000e+00
  1.264212e-01    0.000000e+00
  1.267201e-01    0.000000e+00
  1.270190e-01    0.000000e+00
  1.273179e-01    0.000000e+00
  1.276169e-01    0.000000e+00
  1.279158e-01    0.000000e+00
  1.282147e-01    0.000000e+00
  1.285137e-01    0.000000e+00
  1.288126e-01    0.000000e+00
  1.291115e-01    0.000000e+00
  1.294105e-01    0.000000e+00
  1.297094e-01    0.000000e+00
  1.300083e-01    0.000000e+00
  1.303072e-01    0.000000e+00
  1.306062e-01    0.000000e+00
  1.309051e-01    0.000000e+00
  1.312040e-01    0.000000e+00
  1.315030e-01    0.000000e+00
  1.318019e-01    0.000000e+00
  1.321008e-01    0.000000e+00
  1.323998e-01    0.000000e+00
  1.326987e-01    0.000000e+00
  1.329976e-01    0.000000e+00
  1.332965e-01    0.000000e+00
  1.335955e-01    0.000000e+00
  1.338944e-01    0.000000e+00
  1.341933e-01    0.000000e+00
  1.344923e-01    0.000000e+00
  1.347912e-01    0.000000e+00
  1.350901e-01    0.000000e+00
  1.353891e-01    0.000000e+00
  1.356880e-01    0.000000e+00
  1.359869e-01    0.000000e+00
  1.362859e-01    0.000000e+00
  1.365848e-01    0.000000e+00
  1.368837e-01    0.000000e+00
  1.371826e-01    0.000000e+00
  1.374816e-01    0.000000e+00
  1.377805e-01    0.000000e+00
  1.380794e-01    0.000000e+00
  1.383784e-01    0.000000e+00
  1.386773e-01    0.000000e+00
  1.389762e-01    0.000000e+00
  1.392752e-01    0.000000e+00
  1.395741e-01    0.000000e+00
  1.398730e-01    0.000000e+00
  1.401719e-01    0.000000e+00
  1.404709e-01    0.000000e+00
  1.407698e-01    0.000000e+00
  1.410687e-01    0.000000e+00
  1.413677e-01    0.000000e+00
  1.416666e-01    0.000000e+00
  1.419655e-01    0.000000e+00
  1.422645e-01    0.000000e+00
  1.425634e-01    0.000000e+00
  1.428623e-01    0.000000e+00
  1.431613e-01    0.000000e+00
  1.434602e-01    0.000000e+00
  1.437591e-01    0.000000e+00
  1.440580e-01    0.000000e+00
  1.443570e-01    0.000000e+00
  1.446559e-01    0.000000e+00
  1.449548e-01    0.000000e+00
  1.452538e-01    0.000000e+00
  1.455527e-01    0.000000e+00
  1.458516e-01    0.000000e+00
  1.461506e-01    0.000000e+00
  1.464495e-01    0.000000e+00
  1.467484e-01    0.000000e+00
  1.470473e-01    0.000000e+00
  1.473463e-01    0.000000e+00
  1.476452e-01    0.000000e+00
  1.479441e-01    0.000000e+00
  1.482431e-01    0.000000e+00
  1.485420e-01    0.000000e+00
  1.488409e-01    0.000000e+00
  1.491399e-01    0.000000e+00
  1.494388e-01    0.000000e+00
  1.497377e-01    0.000000e+00
  1.500367e-01    0.000000e+00
  1.503356e-01    0.000000e+00
  1.506345e-01    0.000000e+00
  1.509334e-01    0.000000e+00
  1.512324e-01    0.000000e+00
  1.515313e-01    0.000000e+00
  1.518302e-01    0.000000e+00
  1.521292e-01    0.000000e+00
  1.524281e-01    0.000000e+00
  1.527270e-01    0.000000e+00
  1.530260e-01    0.000000e+00
  1.533249e-01    0.000000e+00
  1.536238e-01    0.000000e+00
