# == pyFAI calibration ==
# Distance Sample to Detector: 2.266 m
# PONI: 5.659e-02, 4.293e-02 m
# Rotations: 0.000000 0.000000 0.000000 rad
# 
# == Fit2d calibration ==
# Distance Sample-beamCenter: 2266.000 mm
# Center: x=249.594, y=329.012 pix
# Tilt: 0.000 deg  TiltPlanRot: 0.000 deg
# 
# Detector Pilatus 300k	 PixelSize= 1.720e-04, 1.720e-04 m
#    Detector has a mask: True 
#    Detector has a dark current: False 
#    detector has a flat field: False 
# 
# Wavelength: 1.27818e-10 m
# Mask applied: user provided
# Dark current applied: False
# Flat field applied: False
# Polarization factor: None
# Normalization factor: 11561950.200000001
# --> MT-AL_F127_220226_857d4dd0-7ee4-4160-88b2-e552d69cbb65_1_r1d.csv
#        q_A^-1             I 
  4.457554e-03    1.998390e-03
  4.756484e-03    1.551011e-03
  5.055415e-03    1.092822e-03
  5.354345e-03    7.658823e-04
  5.653276e-03    5.853145e-04
  5.952206e-03    9.631845e-04
  6.251136e-03    8.787418e-04
  6.550067e-03    7.616272e-04
  6.848997e-03    6.472069e-04
  7.147927e-03    5.463915e-04
  7.446858e-03    4.660691e-04
  7.745788e-03    3.997107e-04
  8.044719e-03    3.437003e-04
  8.343649e-03    2.996938e-04
  8.642579e-03    2.618619e-04
  8.941510e-03    2.299305e-04
  9.240440e-03    2.038583e-04
  9.539371e-03    1.809289e-04
  9.838301e-03    1.606969e-04
  1.013723e-02    1.439385e-04
  1.043616e-02    1.293011e-04
  1.073509e-02    1.161060e-04
  1.103402e-02    1.053477e-04
  1.133295e-02    9.565714e-05
  1.163188e-02    8.677892e-05
  1.193081e-02    7.948873e-05
  1.222974e-02    7.272985e-05
  1.252867e-02    6.673470e-05
  1.282760e-02    6.153774e-05
  1.312654e-02    5.681383e-05
  1.342547e-02    5.257282e-05
  1.372440e-02    4.863611e-05
  1.402333e-02    4.510639e-05
  1.432226e-02    4.193932e-05
  1.462119e-02    3.918987e-05
  1.492012e-02    3.657842e-05
  1.521905e-02    3.422039e-05
  1.551798e-02    3.210565e-05
  1.581691e-02    3.007586e-05
  1.611584e-02    2.826737e-05
  1.641477e-02    2.674948e-05
  1.671370e-02    2.533518e-05
  1.701263e-02    2.398458e-05
  1.731156e-02    2.270158e-05
  1.761049e-02    2.163331e-05
  1.790942e-02    2.059024e-05
  1.820835e-02    1.964409e-05
  1.850728e-02    1.873396e-05
  1.880621e-02    1.785559e-05
  1.910514e-02    1.707964e-05
  1.940407e-02    1.633915e-05
  1.970300e-02    1.578498e-05
  2.000193e-02    1.516474e-05
  2.030086e-02    1.457894e-05
  2.059979e-02    1.400361e-05
  2.089873e-02    1.356293e-05
  2.119766e-02    1.318593e-05
  2.149659e-02    1.277553e-05
  2.179552e-02    1.233889e-05
  2.209445e-02    1.194683e-05
  2.239338e-02    1.162674e-05
  2.269231e-02    1.128674e-05
  2.299124e-02    1.094036e-05
  2.329017e-02    1.070970e-05
  2.358910e-02    1.047178e-05
  2.388803e-02    1.023901e-05
  2.418696e-02    1.002745e-05
  2.448589e-02    9.770527e-06
  2.478482e-02    9.551276e-06
  2.508375e-02    9.353649e-06
  2.538268e-02    9.197429e-06
  2.568161e-02    9.050643e-06
  2.598054e-02    8.890018e-06
  2.627947e-02    8.702653e-06
  2.657840e-02    8.560939e-06
  2.687733e-02    8.398461e-06
  2.717626e-02    8.270277e-06
  2.747519e-02    8.200426e-06
  2.777412e-02    8.085283e-06
  2.807305e-02    7.934381e-06
  2.837198e-02    7.799094e-06
  2.867092e-02    7.740631e-06
  2.896985e-02    7.695284e-06
  2.926878e-02    7.603090e-06
  2.956771e-02    7.522605e-06
  2.986664e-02    7.443872e-06
  3.016557e-02    7.359105e-06
  3.046450e-02    7.267830e-06
  3.076343e-02    7.202375e-06
  3.106236e-02    7.118086e-06
  3.136129e-02    7.039554e-06
  3.166022e-02    6.988439e-06
  3.195915e-02    6.916986e-06
  3.225808e-02    6.802378e-06
  3.255701e-02    6.753448e-06
  3.285594e-02    6.735733e-06
  3.315487e-02    6.683214e-06
  3.345380e-02    6.652499e-06
  3.375273e-02    6.555261e-06
  3.405166e-02    6.489082e-06
  3.435059e-02    6.427012e-06
  3.464952e-02    6.371648e-06
  3.494845e-02    6.312152e-06
  3.524738e-02    6.260474e-06
  3.554631e-02    6.159767e-06
  3.584524e-02    6.130533e-06
  3.614417e-02    6.059981e-06
  3.644310e-02    6.007534e-06
  3.674204e-02    5.957846e-06
  3.704097e-02    5.863441e-06
  3.733990e-02    5.839889e-06
  3.763883e-02    5.830047e-06
  3.793776e-02    5.782777e-06
  3.823669e-02    5.749433e-06
  3.853562e-02    5.760554e-06
  3.883455e-02    5.752822e-06
  3.913348e-02    5.673506e-06
  3.943241e-02    5.631490e-06
  3.973134e-02    5.607809e-06
  4.003027e-02    5.577170e-06
  4.032920e-02    5.529937e-06
  4.062813e-02    5.513733e-06
  4.092706e-02    5.485767e-06
  4.122599e-02    5.444792e-06
  4.152492e-02    5.444856e-06
  4.182385e-02    5.428513e-06
  4.212278e-02    5.380751e-06
  4.242171e-02    5.378920e-06
  4.272064e-02    5.385396e-06
  4.301957e-02    5.349701e-06
  4.331850e-02    5.351540e-06
  4.361743e-02    5.336217e-06
  4.391636e-02    5.304036e-06
  4.421529e-02    5.287307e-06
  4.451423e-02    5.265933e-06
  4.481316e-02    5.262184e-06
  4.511209e-02    5.285054e-06
  4.541102e-02    5.288379e-06
  4.570995e-02    5.272786e-06
  4.600888e-02    5.247084e-06
  4.630781e-02    5.240181e-06
  4.660674e-02    5.231213e-06
  4.690567e-02    5.239225e-06
  4.720460e-02    5.242965e-06
  4.750353e-02    5.257728e-06
  4.780246e-02    5.265956e-06
  4.810139e-02    5.246342e-06
  4.840032e-02    5.221205e-06
  4.869925e-02    5.183760e-06
  4.899818e-02    5.208991e-06
  4.929711e-02    5.267118e-06
  4.959604e-02    5.257280e-06
  4.989497e-02    5.246240e-06
  5.019390e-02    5.245007e-06
  5.049283e-02    5.255073e-06
  5.079176e-02    5.252709e-06
  5.109069e-02    5.262220e-06
  5.138962e-02    5.313850e-06
  5.168855e-02    5.428053e-06
  5.198748e-02    5.488239e-06
  5.228642e-02    5.421794e-06
  5.258535e-02    5.276894e-06
  5.288428e-02    5.220332e-06
  5.318321e-02    5.215763e-06
  5.348214e-02    5.210831e-06
  5.378107e-02    5.218476e-06
  5.408000e-02    5.233771e-06
  5.437893e-02    5.206085e-06
  5.467786e-02    5.198540e-06
  5.497679e-02    5.214473e-06
  5.527572e-02    5.215723e-06
  5.557465e-02    5.206685e-06
  5.587358e-02    5.220528e-06
  5.617251e-02    5.237386e-06
  5.647144e-02    5.258523e-06
  5.677037e-02    5.233088e-06
  5.706930e-02    5.224112e-06
  5.736823e-02    5.284198e-06
  5.766716e-02    5.282626e-06
  5.796609e-02    5.240943e-06
  5.826502e-02    5.255187e-06
  5.856395e-02    5.282020e-06
  5.886288e-02    5.280331e-06
  5.916181e-02    5.295961e-06
  5.946074e-02    5.270556e-06
  5.975967e-02    5.274768e-06
  6.005861e-02    5.316604e-06
  6.035754e-02    5.333426e-06
  6.065647e-02    5.375619e-06
  6.095540e-02    5.401058e-06
  6.125433e-02    5.467966e-06
  6.155326e-02    5.482917e-06
  6.185219e-02    5.407549e-06
  6.215112e-02    5.382573e-06
  6.245005e-02    5.366136e-06
  6.274898e-02    5.376393e-06
  6.304791e-02    5.388177e-06
  6.334684e-02    5.377157e-06
  6.364577e-02    5.388086e-06
  6.394470e-02    5.385615e-06
  6.424363e-02    5.425261e-06
  6.454256e-02    5.460271e-06
  6.484149e-02    5.426687e-06
  6.514042e-02    5.424066e-06
  6.543935e-02    5.427168e-06
  6.573828e-02    5.421007e-06
  6.603721e-02    5.432080e-06
  6.633614e-02    5.458549e-06
  6.663507e-02    5.455568e-06
  6.693400e-02    5.472371e-06
  6.723293e-02    5.494886e-06
  6.753186e-02    5.475561e-06
  6.783080e-02    5.505171e-06
  6.812973e-02    5.518566e-06
  6.842866e-02    5.508628e-06
  6.872759e-02    5.506995e-06
  6.902652e-02    5.507003e-06
  6.932545e-02    5.520174e-06
  6.962438e-02    5.541055e-06
  6.992331e-02    5.523369e-06
  7.022224e-02    5.544289e-06
  7.052117e-02    5.547573e-06
  7.082010e-02    5.557595e-06
  7.111903e-02    5.570213e-06
  7.141796e-02    5.574312e-06
  7.171689e-02    5.591934e-06
  7.201582e-02    5.590137e-06
  7.231475e-02    5.592769e-06
  7.261368e-02    5.584277e-06
  7.291261e-02    5.596764e-06
  7.321154e-02    5.602837e-06
  7.351047e-02    5.606585e-06
  7.380940e-02    5.609586e-06
  7.410833e-02    5.611532e-06
  7.440726e-02    5.599288e-06
  7.470619e-02    5.615446e-06
  7.500512e-02    5.629896e-06
  7.530405e-02    5.617024e-06
  7.560299e-02    5.602910e-06
  7.590192e-02    5.608955e-06
  7.620085e-02    5.603440e-06
  7.649978e-02    5.596488e-06
  7.679871e-02    5.611901e-06
  7.709764e-02    5.602808e-06
  7.739657e-02    5.596902e-06
  7.769550e-02    5.587660e-06
  7.799443e-02    5.596999e-06
  7.829336e-02    5.591170e-06
  7.859229e-02    5.603043e-06
  7.889122e-02    5.589561e-06
  7.919015e-02    5.554416e-06
  7.948908e-02    5.542657e-06
  7.978801e-02    5.562724e-06
  8.008694e-02    5.558372e-06
  8.038587e-02    5.577528e-06
  8.068480e-02    5.541273e-06
  8.098373e-02    5.526510e-06
  8.128266e-02    5.577924e-06
  8.158159e-02    5.572918e-06
  8.188052e-02    5.526125e-06
  8.217945e-02    5.554811e-06
  8.247838e-02    5.551080e-06
  8.277731e-02    5.538836e-06
  8.307624e-02    5.501344e-06
  8.337518e-02    5.490977e-06
  8.367411e-02    5.500186e-06
  8.397304e-02    5.516097e-06
  8.427197e-02    5.510077e-06
  8.457090e-02    5.489729e-06
  8.486983e-02    5.456519e-06
  8.516876e-02    5.464658e-06
  8.546769e-02    5.471166e-06
  8.576662e-02    5.472974e-06
  8.606555e-02    5.461651e-06
  8.636448e-02    5.419627e-06
  8.666341e-02    5.389898e-06
  8.696234e-02    5.374925e-06
  8.726127e-02    5.396496e-06
  8.756020e-02    5.415975e-06
  8.785913e-02    5.375000e-06
  8.815806e-02    5.341487e-06
  8.845699e-02    5.341716e-06
  8.875592e-02    5.335134e-06
  8.905485e-02    5.322899e-06
  8.935378e-02    5.325745e-06
  8.965271e-02    5.321815e-06
  8.995164e-02    5.299903e-06
  9.025057e-02    5.314436e-06
  9.054950e-02    5.272881e-06
  9.084843e-02    5.238772e-06
  9.114737e-02    5.240895e-06
  9.144630e-02    5.250117e-06
  9.174523e-02    5.283747e-06
  9.204416e-02    5.265411e-06
  9.234309e-02    5.228092e-06
  9.264202e-02    5.237701e-06
  9.294095e-02    5.234127e-06
  9.323988e-02    5.219128e-06
  9.353881e-02    5.193524e-06
  9.383774e-02    5.171290e-06
  9.413667e-02    5.175094e-06
  9.443560e-02    5.174130e-06
  9.473453e-02    5.177825e-06
  9.503346e-02    5.160447e-06
  9.533239e-02    5.145591e-06
  9.563132e-02    5.146963e-06
  9.593025e-02    5.112768e-06
  9.622918e-02    5.124380e-06
  9.652811e-02    5.137952e-06
  9.682704e-02    5.167870e-06
  9.712597e-02    5.183489e-06
  9.742490e-02    5.162167e-06
  9.772383e-02    5.128971e-06
  9.802276e-02    5.084093e-06
  9.832169e-02    5.070247e-06
  9.862062e-02    5.067147e-06
  9.891956e-02    5.068211e-06
  9.921849e-02    5.019560e-06
  9.951742e-02    4.991234e-06
  9.981635e-02    4.979907e-06
  1.001153e-01    4.984694e-06
  1.004142e-01    4.977937e-06
  1.007131e-01    4.984986e-06
  1.010121e-01    4.974801e-06
  1.013110e-01    4.956642e-06
  1.016099e-01    4.946633e-06
  1.019089e-01    4.915760e-06
  1.022078e-01    4.914049e-06
  1.025067e-01    4.918596e-06
  1.028057e-01    4.910219e-06
  1.031046e-01    4.915048e-06
  1.034035e-01    4.886195e-06
  1.037024e-01    4.874412e-06
  1.040014e-01    4.855029e-06
  1.043003e-01    4.845641e-06
  1.045992e-01    4.839259e-06
  1.048982e-01    4.843312e-06
  1.051971e-01    4.849810e-06
  1.054960e-01    4.808775e-06
  1.057950e-01    4.800190e-06
  1.060939e-01    4.795228e-06
  1.063928e-01    4.794069e-06
  1.066917e-01    4.794765e-06
  1.069907e-01    4.763308e-06
  1.072896e-01    4.748559e-06
  1.075885e-01    4.759241e-06
  1.078875e-01    4.758212e-06
  1.081864e-01    4.717499e-06
  1.084853e-01    4.711622e-06
  1.087843e-01    4.746155e-06
  1.090832e-01    4.737349e-06
  1.093821e-01    4.706563e-06
  1.096810e-01    4.677649e-06
  1.099800e-01    4.668236e-06
  1.102789e-01    4.651795e-06
  1.105778e-01    4.638327e-06
  1.108768e-01    4.635250e-06
  1.111757e-01    4.632787e-06
  1.114746e-01    4.612098e-06
  1.117736e-01    4.622058e-06
  1.120725e-01    4.622477e-06
  1.123714e-01    4.577726e-06
  1.126704e-01    4.589552e-06
  1.129693e-01    4.559856e-06
  1.132682e-01    4.497020e-06
  1.135671e-01    4.488487e-06
  1.138661e-01    4.535066e-06
  1.141650e-01    4.540454e-06
  1.144639e-01    4.500535e-06
  1.147629e-01    4.476947e-06
  1.150618e-01    4.508247e-06
  1.153607e-01    4.487556e-06
  1.156597e-01    4.414479e-06
  1.159586e-01    4.409357e-06
  1.162575e-01    4.415519e-06
  1.165564e-01    4.436039e-06
  1.168554e-01    4.441049e-06
  1.171543e-01    4.429633e-06
  1.174532e-01    4.413619e-06
  1.177522e-01    4.426474e-06
  1.180511e-01    4.448042e-06
  1.183500e-01    4.457683e-06
  1.186490e-01    4.464259e-06
  1.189479e-01    4.445882e-06
  1.192468e-01    4.463974e-06
  1.195458e-01    4.339397e-06
  1.198447e-01    4.273435e-06
  1.201436e-01    4.316477e-06
  1.204425e-01    4.197127e-06
  1.207415e-01    4.245432e-06
  1.210404e-01    4.588154e-06
  1.213393e-01    0.000000e+00
  1.216383e-01    0.000000e+00
  1.219372e-01    0.000000e+00
  1.222361e-01    0.000000e+00
  1.225351e-01    0.000000e+00
  1.228340e-01    0.000000e+00
  1.231329e-01    0.000000e+00
  1.234318e-01    0.000000e+00
  1.237308e-01    0.000000e+00
  1.240297e-01    0.000000e+00
  1.243286e-01    0.000000e+00
  1.246276e-01    0.000000e+00
  1.249265e-01    0.000000e+00
  1.252254e-01    0.000000e+00
  1.255244e-01    0.000000e+00
  1.258233e-01    0.000000e+00
  1.261222e-01    0.000000e+00
  1.264212e-01    0.000000e+00
  1.267201e-01    0.000000e+00
  1.270190e-01    0.000000e+00
  1.273179e-01    0.000000e+00
  1.276169e-01    0.000000e+00
  1.279158e-01    0.000000e+00
  1.282147e-01    0.000000e+00
  1.285137e-01    0.000000e+00
  1.288126e-01    0.000000e+00
  1.291115e-01    0.000000e+00
  1.294105e-01    0.000000e+00
  1.297094e-01    0.000000e+00
  1.300083e-01    0.000000e+00
  1.303072e-01    0.000000e+00
  1.306062e-01    0.000000e+00
  1.309051e-01    0.000000e+00
  1.312040e-01    0.000000e+00
  1.315030e-01    0.000000e+00
  1.318019e-01    0.000000e+00
  1.321008e-01    0.000000e+00
  1.323998e-01    0.000000e+00
  1.326987e-01    0.000000e+00
  1.329976e-01    0.000000e+00
  1.332965e-01    0.000000e+00
  1.335955e-01    0.000000e+00
  1.338944e-01    0.000000e+00
  1.341933e-01    0.000000e+00
  1.344923e-01    0.000000e+00
  1.347912e-01    0.000000e+00
  1.350901e-01    0.000000e+00
  1.353891e-01    0.000000e+00
  1.356880e-01    0.000000e+00
  1.359869e-01    0.000000e+00
  1.362859e-01    0.000000e+00
  1.365848e-01    0.000000e+00
  1.368837e-01    0.000000e+00
  1.371826e-01    0.000000e+00
  1.374816e-01    0.000000e+00
  1.377805e-01    0.000000e+00
  1.380794e-01    0.000000e+00
  1.383784e-01    0.000000e+00
  1.386773e-01    0.000000e+00
  1.389762e-01    0.000000e+00
  1.392752e-01    0.000000e+00
  1.395741e-01    0.000000e+00
  1.398730e-01    0.000000e+00
  1.401719e-01    0.000000e+00
  1.404709e-01    0.000000e+00
  1.407698e-01    0.000000e+00
  1.410687e-01    0.000000e+00
  1.413677e-01    0.000000e+00
  1.416666e-01    0.000000e+00
  1.419655e-01    0.000000e+00
  1.422645e-01    0.000000e+00
  1.425634e-01    0.000000e+00
  1.428623e-01    0.000000e+00
  1.431613e-01    0.000000e+00
  1.434602e-01    0.000000e+00
  1.437591e-01    0.000000e+00
  1.440580e-01    0.000000e+00
  1.443570e-01    0.000000e+00
  1.446559e-01    0.000000e+00
  1.449548e-01    0.000000e+00
  1.452538e-01    0.000000e+00
  1.455527e-01    0.000000e+00
  1.458516e-01    0.000000e+00
  1.461506e-01    0.000000e+00
  1.464495e-01    0.000000e+00
  1.467484e-01    0.000000e+00
  1.470473e-01    0.000000e+00
  1.473463e-01    0.000000e+00
  1.476452e-01    0.000000e+00
  1.479441e-01    0.000000e+00
  1.482431e-01    0.000000e+00
  1.485420e-01    0.000000e+00
  1.488409e-01    0.000000e+00
  1.491399e-01    0.000000e+00
  1.494388e-01    0.000000e+00
  1.497377e-01    0.000000e+00
  1.500367e-01    0.000000e+00
  1.503356e-01    0.000000e+00
  1.506345e-01    0.000000e+00
  1.509334e-01    0.000000e+00
  1.512324e-01    0.000000e+00
  1.515313e-01    0.000000e+00
  1.518302e-01    0.000000e+00
  1.521292e-01    0.000000e+00
  1.524281e-01    0.000000e+00
  1.527270e-01    0.000000e+00
  1.530260e-01    0.000000e+00
  1.533249e-01    0.000000e+00
  1.536238e-01    0.000000e+00
