# == pyFAI calibration ==
# Distance Sample to Detector: 2.266 m
# PONI: 5.659e-02, 4.293e-02 m
# Rotations: 0.000000 0.000000 0.000000 rad
# 
# == Fit2d calibration ==
# Distance Sample-beamCenter: 2266.000 mm
# Center: x=249.594, y=329.012 pix
# Tilt: 0.000 deg  TiltPlanRot: 0.000 deg
# 
# Detector Pilatus 300k	 PixelSize= 1.720e-04, 1.720e-04 m
#    Detector has a mask: True 
#    Detector has a dark current: False 
#    detector has a flat field: False 
# 
# Wavelength: 1.27818e-10 m
# Mask applied: user provided
# Dark current applied: False
# Flat field applied: False
# Polarization factor: None
# Normalization factor: 3119694.2
# --> MT-F127_121.404_NaCl_106.228_limonene_257.983mgml_1_r1d.csv
#        q_A^-1             I 
  4.457554e-03    2.383715e-03
  4.756484e-03    1.861140e-03
  5.055415e-03    1.296585e-03
  5.354345e-03    8.937741e-04
  5.653276e-03    6.761412e-04
  5.952206e-03    1.040911e-03
  6.251136e-03    9.524159e-04
  6.550067e-03    8.301492e-04
  6.848997e-03    7.098539e-04
  7.147927e-03    6.011926e-04
  7.446858e-03    5.146707e-04
  7.745788e-03    4.414264e-04
  8.044719e-03    3.808649e-04
  8.343649e-03    3.326079e-04
  8.642579e-03    2.913298e-04
  8.941510e-03    2.562125e-04
  9.240440e-03    2.265855e-04
  9.539371e-03    2.013164e-04
  9.838301e-03    1.790847e-04
  1.013723e-02    1.604291e-04
  1.043616e-02    1.447157e-04
  1.073509e-02    1.298841e-04
  1.103402e-02    1.173540e-04
  1.133295e-02    1.063311e-04
  1.163188e-02    9.622950e-05
  1.193081e-02    8.806090e-05
  1.222974e-02    8.086080e-05
  1.252867e-02    7.459839e-05
  1.282760e-02    6.833331e-05
  1.312654e-02    6.327462e-05
  1.342547e-02    5.818511e-05
  1.372440e-02    5.379647e-05
  1.402333e-02    4.996587e-05
  1.432226e-02    4.593410e-05
  1.462119e-02    4.275712e-05
  1.492012e-02    4.006322e-05
  1.521905e-02    3.776997e-05
  1.551798e-02    3.539031e-05
  1.581691e-02    3.297631e-05
  1.611584e-02    3.109946e-05
  1.641477e-02    2.933025e-05
  1.671370e-02    2.777473e-05
  1.701263e-02    2.644304e-05
  1.731156e-02    2.496956e-05
  1.761049e-02    2.365010e-05
  1.790942e-02    2.262529e-05
  1.820835e-02    2.132640e-05
  1.850728e-02    2.023701e-05
  1.880621e-02    1.938642e-05
  1.910514e-02    1.837729e-05
  1.940407e-02    1.760705e-05
  1.970300e-02    1.694073e-05
  2.000193e-02    1.635879e-05
  2.030086e-02    1.571899e-05
  2.059979e-02    1.519868e-05
  2.089873e-02    1.462374e-05
  2.119766e-02    1.400246e-05
  2.149659e-02    1.357222e-05
  2.179552e-02    1.320034e-05
  2.209445e-02    1.286443e-05
  2.239338e-02    1.239282e-05
  2.269231e-02    1.213594e-05
  2.299124e-02    1.186746e-05
  2.329017e-02    1.140492e-05
  2.358910e-02    1.105016e-05
  2.388803e-02    1.084069e-05
  2.418696e-02    1.059037e-05
  2.448589e-02    1.039656e-05
  2.478482e-02    1.022593e-05
  2.508375e-02    9.963842e-06
  2.538268e-02    9.778409e-06
  2.568161e-02    9.575461e-06
  2.598054e-02    9.400990e-06
  2.627947e-02    9.247503e-06
  2.657840e-02    9.262981e-06
  2.687733e-02    9.045308e-06
  2.717626e-02    8.859834e-06
  2.747519e-02    8.695026e-06
  2.777412e-02    8.578214e-06
  2.807305e-02    8.531176e-06
  2.837198e-02    8.400642e-06
  2.867092e-02    8.342483e-06
  2.896985e-02    8.198839e-06
  2.926878e-02    8.107307e-06
  2.956771e-02    7.987629e-06
  2.986664e-02    7.977955e-06
  3.016557e-02    7.918515e-06
  3.046450e-02    7.738575e-06
  3.076343e-02    7.597823e-06
  3.106236e-02    7.616541e-06
  3.136129e-02    7.577414e-06
  3.166022e-02    7.532697e-06
  3.195915e-02    7.377371e-06
  3.225808e-02    7.277933e-06
  3.255701e-02    7.311388e-06
  3.285594e-02    7.169350e-06
  3.315487e-02    7.103441e-06
  3.345380e-02    7.008009e-06
  3.375273e-02    6.961159e-06
  3.405166e-02    6.910034e-06
  3.435059e-02    6.717464e-06
  3.464952e-02    6.662102e-06
  3.494845e-02    6.669065e-06
  3.524738e-02    6.531664e-06
  3.554631e-02    6.486349e-06
  3.584524e-02    6.403467e-06
  3.614417e-02    6.385926e-06
  3.644310e-02    6.328651e-06
  3.674204e-02    6.242507e-06
  3.704097e-02    6.258801e-06
  3.733990e-02    6.206984e-06
  3.763883e-02    6.062824e-06
  3.793776e-02    5.944152e-06
  3.823669e-02    5.973174e-06
  3.853562e-02    5.994033e-06
  3.883455e-02    5.958824e-06
  3.913348e-02    5.869050e-06
  3.943241e-02    5.848043e-06
  3.973134e-02    5.794592e-06
  4.003027e-02    5.738848e-06
  4.032920e-02    5.786088e-06
  4.062813e-02    5.709756e-06
  4.092706e-02    5.607624e-06
  4.122599e-02    5.656703e-06
  4.152492e-02    5.594277e-06
  4.182385e-02    5.605574e-06
  4.212278e-02    5.543273e-06
  4.242171e-02    5.492020e-06
  4.272064e-02    5.537462e-06
  4.301957e-02    5.502243e-06
  4.331850e-02    5.475034e-06
  4.361743e-02    5.457316e-06
  4.391636e-02    5.372302e-06
  4.421529e-02    5.396930e-06
  4.451423e-02    5.457142e-06
  4.481316e-02    5.471310e-06
  4.511209e-02    5.400324e-06
  4.541102e-02    5.344124e-06
  4.570995e-02    5.365521e-06
  4.600888e-02    5.334628e-06
  4.630781e-02    5.254297e-06
  4.660674e-02    5.347671e-06
  4.690567e-02    5.304362e-06
  4.720460e-02    5.270109e-06
  4.750353e-02    5.354958e-06
  4.780246e-02    5.418530e-06
  4.810139e-02    5.384309e-06
  4.840032e-02    5.288275e-06
  4.869925e-02    5.276295e-06
  4.899818e-02    5.293198e-06
  4.929711e-02    5.249390e-06
  4.959604e-02    5.220207e-06
  4.989497e-02    5.213582e-06
  5.019390e-02    5.177775e-06
  5.049283e-02    5.208756e-06
  5.079176e-02    5.299542e-06
  5.109069e-02    5.350867e-06
  5.138962e-02    5.434968e-06
  5.168855e-02    5.534505e-06
  5.198748e-02    5.542088e-06
  5.228642e-02    5.475439e-06
  5.258535e-02    5.283459e-06
  5.288428e-02    5.250437e-06
  5.318321e-02    5.206120e-06
  5.348214e-02    5.101227e-06
  5.378107e-02    5.158604e-06
  5.408000e-02    5.163583e-06
  5.437893e-02    5.210371e-06
  5.467786e-02    5.206872e-06
  5.497679e-02    5.178727e-06
  5.527572e-02    5.220694e-06
  5.557465e-02    5.232118e-06
  5.587358e-02    5.167617e-06
  5.617251e-02    5.178763e-06
  5.647144e-02    5.185050e-06
  5.677037e-02    5.210402e-06
  5.706930e-02    5.194544e-06
  5.736823e-02    5.193594e-06
  5.766716e-02    5.124135e-06
  5.796609e-02    5.151602e-06
  5.826502e-02    5.220798e-06
  5.856395e-02    5.249335e-06
  5.886288e-02    5.225244e-06
  5.916181e-02    5.234343e-06
  5.946074e-02    5.240402e-06
  5.975967e-02    5.266789e-06
  6.005861e-02    5.289610e-06
  6.035754e-02    5.281361e-06
  6.065647e-02    5.262162e-06
  6.095540e-02    5.359869e-06
  6.125433e-02    5.461840e-06
  6.155326e-02    5.444821e-06
  6.185219e-02    5.392376e-06
  6.215112e-02    5.312864e-06
  6.245005e-02    5.266495e-06
  6.274898e-02    5.258255e-06
  6.304791e-02    5.312042e-06
  6.334684e-02    5.340777e-06
  6.364577e-02    5.342115e-06
  6.394470e-02    5.354896e-06
  6.424363e-02    5.323663e-06
  6.454256e-02    5.338903e-06
  6.484149e-02    5.384084e-06
  6.514042e-02    5.332090e-06
  6.543935e-02    5.343190e-06
  6.573828e-02    5.346851e-06
  6.603721e-02    5.322227e-06
  6.633614e-02    5.358225e-06
  6.663507e-02    5.383088e-06
  6.693400e-02    5.378527e-06
  6.723293e-02    5.394490e-06
  6.753186e-02    5.403815e-06
  6.783080e-02    5.394055e-06
  6.812973e-02    5.368281e-06
  6.842866e-02    5.402396e-06
  6.872759e-02    5.434636e-06
  6.902652e-02    5.480017e-06
  6.932545e-02    5.486192e-06
  6.962438e-02    5.459634e-06
  6.992331e-02    5.430861e-06
  7.022224e-02    5.437859e-06
  7.052117e-02    5.437472e-06
  7.082010e-02    5.452771e-06
  7.111903e-02    5.504360e-06
  7.141796e-02    5.495931e-06
  7.171689e-02    5.510563e-06
  7.201582e-02    5.456272e-06
  7.231475e-02    5.527053e-06
  7.261368e-02    5.532597e-06
  7.291261e-02    5.457123e-06
  7.321154e-02    5.497564e-06
  7.351047e-02    5.450513e-06
  7.380940e-02    5.445133e-06
  7.410833e-02    5.504497e-06
  7.440726e-02    5.524482e-06
  7.470619e-02    5.468718e-06
  7.500512e-02    5.494580e-06
  7.530405e-02    5.487133e-06
  7.560299e-02    5.434661e-06
  7.590192e-02    5.472445e-06
  7.620085e-02    5.519012e-06
  7.649978e-02    5.507431e-06
  7.679871e-02    5.504351e-06
  7.709764e-02    5.456459e-06
  7.739657e-02    5.466126e-06
  7.769550e-02    5.482724e-06
  7.799443e-02    5.530352e-06
  7.829336e-02    5.516598e-06
  7.859229e-02    5.431727e-06
  7.889122e-02    5.431481e-06
  7.919015e-02    5.428135e-06
  7.948908e-02    5.390132e-06
  7.978801e-02    5.448784e-06
  8.008694e-02    5.490875e-06
  8.038587e-02    5.479702e-06
  8.068480e-02    5.448390e-06
  8.098373e-02    5.422782e-06
  8.128266e-02    5.417347e-06
  8.158159e-02    5.440485e-06
  8.188052e-02    5.444575e-06
  8.217945e-02    5.366309e-06
  8.247838e-02    5.351279e-06
  8.277731e-02    5.372693e-06
  8.307624e-02    5.367459e-06
  8.337518e-02    5.349294e-06
  8.367411e-02    5.380871e-06
  8.397304e-02    5.350676e-06
  8.427197e-02    5.320243e-06
  8.457090e-02    5.293373e-06
  8.486983e-02    5.335780e-06
  8.516876e-02    5.340879e-06
  8.546769e-02    5.300434e-06
  8.576662e-02    5.282544e-06
  8.606555e-02    5.267256e-06
  8.636448e-02    5.252919e-06
  8.666341e-02    5.231248e-06
  8.696234e-02    5.273103e-06
  8.726127e-02    5.267530e-06
  8.756020e-02    5.246728e-06
  8.785913e-02    5.293191e-06
  8.815806e-02    5.254155e-06
  8.845699e-02    5.201792e-06
  8.875592e-02    5.233280e-06
  8.905485e-02    5.210898e-06
  8.935378e-02    5.181513e-06
  8.965271e-02    5.156566e-06
  8.995164e-02    5.169081e-06
  9.025057e-02    5.120211e-06
  9.054950e-02    5.053267e-06
  9.084843e-02    5.082611e-06
  9.114737e-02    5.100555e-06
  9.144630e-02    5.154919e-06
  9.174523e-02    5.124852e-06
  9.204416e-02    5.104388e-06
  9.234309e-02    5.066160e-06
  9.264202e-02    5.063801e-06
  9.294095e-02    5.076576e-06
  9.323988e-02    5.010651e-06
  9.353881e-02    5.015982e-06
  9.383774e-02    5.043851e-06
  9.413667e-02    5.081116e-06
  9.443560e-02    5.023132e-06
  9.473453e-02    5.023792e-06
  9.503346e-02    5.035219e-06
  9.533239e-02    4.912714e-06
  9.563132e-02    4.940408e-06
  9.593025e-02    4.990261e-06
  9.622918e-02    4.999823e-06
  9.652811e-02    4.976697e-06
  9.682704e-02    4.999125e-06
  9.712597e-02    5.020859e-06
  9.742490e-02    5.063726e-06
  9.772383e-02    4.995434e-06
  9.802276e-02    4.940136e-06
  9.832169e-02    4.909681e-06
  9.862062e-02    4.886751e-06
  9.891956e-02    4.847327e-06
  9.921849e-02    4.833738e-06
  9.951742e-02    4.808577e-06
  9.981635e-02    4.847415e-06
  1.001153e-01    4.866132e-06
  1.004142e-01    4.778457e-06
  1.007131e-01    4.765334e-06
  1.010121e-01    4.808201e-06
  1.013110e-01    4.775607e-06
  1.016099e-01    4.756188e-06
  1.019089e-01    4.747381e-06
  1.022078e-01    4.706614e-06
  1.025067e-01    4.680052e-06
  1.028057e-01    4.701604e-06
  1.031046e-01    4.711045e-06
  1.034035e-01    4.723526e-06
  1.037024e-01    4.687270e-06
  1.040014e-01    4.697403e-06
  1.043003e-01    4.664339e-06
  1.045992e-01    4.645533e-06
  1.048982e-01    4.661770e-06
  1.051971e-01    4.653673e-06
  1.054960e-01    4.616987e-06
  1.057950e-01    4.644516e-06
  1.060939e-01    4.650396e-06
  1.063928e-01    4.627694e-06
  1.066917e-01    4.610441e-06
  1.069907e-01    4.606812e-06
  1.072896e-01    4.596856e-06
  1.075885e-01    4.592458e-06
  1.078875e-01    4.614879e-06
  1.081864e-01    4.626734e-06
  1.084853e-01    4.617149e-06
  1.087843e-01    4.603702e-06
  1.090832e-01    4.532407e-06
  1.093821e-01    4.495564e-06
  1.096810e-01    4.494820e-06
  1.099800e-01    4.504604e-06
  1.102789e-01    4.532227e-06
  1.105778e-01    4.521723e-06
  1.108768e-01    4.494057e-06
  1.111757e-01    4.484583e-06
  1.114746e-01    4.473350e-06
  1.117736e-01    4.436672e-06
  1.120725e-01    4.378025e-06
  1.123714e-01    4.480939e-06
  1.126704e-01    4.477827e-06
  1.129693e-01    4.446088e-06
  1.132682e-01    4.455936e-06
  1.135671e-01    4.410184e-06
  1.138661e-01    4.418642e-06
  1.141650e-01    4.339373e-06
  1.144639e-01    4.274076e-06
  1.147629e-01    4.328665e-06
  1.150618e-01    4.321035e-06
  1.153607e-01    4.284497e-06
  1.156597e-01    4.297389e-06
  1.159586e-01    4.304628e-06
  1.162575e-01    4.257980e-06
  1.165564e-01    4.270766e-06
  1.168554e-01    4.347681e-06
  1.171543e-01    4.290004e-06
  1.174532e-01    4.191795e-06
  1.177522e-01    4.279076e-06
  1.180511e-01    4.366269e-06
  1.183500e-01    4.255517e-06
  1.186490e-01    4.176909e-06
  1.189479e-01    4.366600e-06
  1.192468e-01    4.341800e-06
  1.195458e-01    4.237990e-06
  1.198447e-01    4.377568e-06
  1.201436e-01    4.218824e-06
  1.204425e-01    4.141534e-06
  1.207415e-01    4.213715e-06
  1.210404e-01    4.812519e-06
  1.213393e-01    0.000000e+00
  1.216383e-01    0.000000e+00
  1.219372e-01    0.000000e+00
  1.222361e-01    0.000000e+00
  1.225351e-01    0.000000e+00
  1.228340e-01    0.000000e+00
  1.231329e-01    0.000000e+00
  1.234318e-01    0.000000e+00
  1.237308e-01    0.000000e+00
  1.240297e-01    0.000000e+00
  1.243286e-01    0.000000e+00
  1.246276e-01    0.000000e+00
  1.249265e-01    0.000000e+00
  1.252254e-01    0.000000e+00
  1.255244e-01    0.000000e+00
  1.258233e-01    0.000000e+00
  1.261222e-01    0.000000e+00
  1.264212e-01    0.000000e+00
  1.267201e-01    0.000000e+00
  1.270190e-01    0.000000e+00
  1.273179e-01    0.000000e+00
  1.276169e-01    0.000000e+00
  1.279158e-01    0.000000e+00
  1.282147e-01    0.000000e+00
  1.285137e-01    0.000000e+00
  1.288126e-01    0.000000e+00
  1.291115e-01    0.000000e+00
  1.294105e-01    0.000000e+00
  1.297094e-01    0.000000e+00
  1.300083e-01    0.000000e+00
  1.303072e-01    0.000000e+00
  1.306062e-01    0.000000e+00
  1.309051e-01    0.000000e+00
  1.312040e-01    0.000000e+00
  1.315030e-01    0.000000e+00
  1.318019e-01    0.000000e+00
  1.321008e-01    0.000000e+00
  1.323998e-01    0.000000e+00
  1.326987e-01    0.000000e+00
  1.329976e-01    0.000000e+00
  1.332965e-01    0.000000e+00
  1.335955e-01    0.000000e+00
  1.338944e-01    0.000000e+00
  1.341933e-01    0.000000e+00
  1.344923e-01    0.000000e+00
  1.347912e-01    0.000000e+00
  1.350901e-01    0.000000e+00
  1.353891e-01    0.000000e+00
  1.356880e-01    0.000000e+00
  1.359869e-01    0.000000e+00
  1.362859e-01    0.000000e+00
  1.365848e-01    0.000000e+00
  1.368837e-01    0.000000e+00
  1.371826e-01    0.000000e+00
  1.374816e-01    0.000000e+00
  1.377805e-01    0.000000e+00
  1.380794e-01    0.000000e+00
  1.383784e-01    0.000000e+00
  1.386773e-01    0.000000e+00
  1.389762e-01    0.000000e+00
  1.392752e-01    0.000000e+00
  1.395741e-01    0.000000e+00
  1.398730e-01    0.000000e+00
  1.401719e-01    0.000000e+00
  1.404709e-01    0.000000e+00
  1.407698e-01    0.000000e+00
  1.410687e-01    0.000000e+00
  1.413677e-01    0.000000e+00
  1.416666e-01    0.000000e+00
  1.419655e-01    0.000000e+00
  1.422645e-01    0.000000e+00
  1.425634e-01    0.000000e+00
  1.428623e-01    0.000000e+00
  1.431613e-01    0.000000e+00
  1.434602e-01    0.000000e+00
  1.437591e-01    0.000000e+00
  1.440580e-01    0.000000e+00
  1.443570e-01    0.000000e+00
  1.446559e-01    0.000000e+00
  1.449548e-01    0.000000e+00
  1.452538e-01    0.000000e+00
  1.455527e-01    0.000000e+00
  1.458516e-01    0.000000e+00
  1.461506e-01    0.000000e+00
  1.464495e-01    0.000000e+00
  1.467484e-01    0.000000e+00
  1.470473e-01    0.000000e+00
  1.473463e-01    0.000000e+00
  1.476452e-01    0.000000e+00
  1.479441e-01    0.000000e+00
  1.482431e-01    0.000000e+00
  1.485420e-01    0.000000e+00
  1.488409e-01    0.000000e+00
  1.491399e-01    0.000000e+00
  1.494388e-01    0.000000e+00
  1.497377e-01    0.000000e+00
  1.500367e-01    0.000000e+00
  1.503356e-01    0.000000e+00
  1.506345e-01    0.000000e+00
  1.509334e-01    0.000000e+00
  1.512324e-01    0.000000e+00
  1.515313e-01    0.000000e+00
  1.518302e-01    0.000000e+00
  1.521292e-01    0.000000e+00
  1.524281e-01    0.000000e+00
  1.527270e-01    0.000000e+00
  1.530260e-01    0.000000e+00
  1.533249e-01    0.000000e+00
  1.536238e-01    0.000000e+00
