# == pyFAI calibration ==
# Distance Sample to Detector: 2.266 m
# PONI: 5.659e-02, 4.293e-02 m
# Rotations: 0.000000 0.000000 0.000000 rad
# 
# == Fit2d calibration ==
# Distance Sample-beamCenter: 2266.000 mm
# Center: x=249.594, y=329.012 pix
# Tilt: 0.000 deg  TiltPlanRot: 0.000 deg
# 
# Detector Pilatus 300k	 PixelSize= 1.720e-04, 1.720e-04 m
#    Detector has a mask: True 
#    Detector has a dark current: False 
#    detector has a flat field: False 
# 
# Wavelength: 1.27818e-10 m
# Mask applied: user provided
# Dark current applied: False
# Flat field applied: False
# Polarization factor: None
# Normalization factor: 18577987.6
# --> MT-F127_68.222_hexanes_73.095_EtOH_92.944_NaCl_100.000mgml_1_r1d.csv
#        q_A^-1             I 
  4.457554e-03    1.878617e-03
  4.756484e-03    1.480923e-03
  5.055415e-03    1.064491e-03
  5.354345e-03    7.586173e-04
  5.653276e-03    5.942167e-04
  5.952206e-03    9.818542e-04
  6.251136e-03    8.918187e-04
  6.550067e-03    7.705743e-04
  6.848997e-03    6.522908e-04
  7.147927e-03    5.500959e-04
  7.446858e-03    4.693061e-04
  7.745788e-03    4.018118e-04
  8.044719e-03    3.463003e-04
  8.343649e-03    3.025889e-04
  8.642579e-03    2.648793e-04
  8.941510e-03    2.327004e-04
  9.240440e-03    2.059300e-04
  9.539371e-03    1.830022e-04
  9.838301e-03    1.629881e-04
  1.013723e-02    1.458851e-04
  1.043616e-02    1.310253e-04
  1.073509e-02    1.177977e-04
  1.103402e-02    1.068418e-04
  1.133295e-02    9.685336e-05
  1.163188e-02    8.804283e-05
  1.193081e-02    8.049302e-05
  1.222974e-02    7.381321e-05
  1.252867e-02    6.767775e-05
  1.282760e-02    6.215688e-05
  1.312654e-02    5.724747e-05
  1.342547e-02    5.300362e-05
  1.372440e-02    4.916835e-05
  1.402333e-02    4.549371e-05
  1.432226e-02    4.225148e-05
  1.462119e-02    3.945188e-05
  1.492012e-02    3.683792e-05
  1.521905e-02    3.446830e-05
  1.551798e-02    3.241443e-05
  1.581691e-02    3.035428e-05
  1.611584e-02    2.864967e-05
  1.641477e-02    2.692844e-05
  1.671370e-02    2.546863e-05
  1.701263e-02    2.415040e-05
  1.731156e-02    2.287219e-05
  1.761049e-02    2.173348e-05
  1.790942e-02    2.066530e-05
  1.820835e-02    1.972875e-05
  1.850728e-02    1.880572e-05
  1.880621e-02    1.792913e-05
  1.910514e-02    1.713329e-05
  1.940407e-02    1.639437e-05
  1.970300e-02    1.571098e-05
  2.000193e-02    1.509072e-05
  2.030086e-02    1.453651e-05
  2.059979e-02    1.401394e-05
  2.089873e-02    1.357234e-05
  2.119766e-02    1.319276e-05
  2.149659e-02    1.274432e-05
  2.179552e-02    1.228900e-05
  2.209445e-02    1.185397e-05
  2.239338e-02    1.148455e-05
  2.269231e-02    1.114300e-05
  2.299124e-02    1.089201e-05
  2.329017e-02    1.063419e-05
  2.358910e-02    1.033582e-05
  2.388803e-02    1.011279e-05
  2.418696e-02    9.851436e-06
  2.448589e-02    9.616086e-06
  2.478482e-02    9.390130e-06
  2.508375e-02    9.174792e-06
  2.538268e-02    9.038728e-06
  2.568161e-02    8.870138e-06
  2.598054e-02    8.702659e-06
  2.627947e-02    8.580122e-06
  2.657840e-02    8.420629e-06
  2.687733e-02    8.281741e-06
  2.717626e-02    8.137365e-06
  2.747519e-02    8.000852e-06
  2.777412e-02    7.900691e-06
  2.807305e-02    7.747643e-06
  2.837198e-02    7.655023e-06
  2.867092e-02    7.575543e-06
  2.896985e-02    7.464928e-06
  2.926878e-02    7.400857e-06
  2.956771e-02    7.303309e-06
  2.986664e-02    7.202309e-06
  3.016557e-02    7.145838e-06
  3.046450e-02    7.043721e-06
  3.076343e-02    6.968009e-06
  3.106236e-02    6.902364e-06
  3.136129e-02    6.829616e-06
  3.166022e-02    6.772804e-06
  3.195915e-02    6.701661e-06
  3.225808e-02    6.619697e-06
  3.255701e-02    6.557838e-06
  3.285594e-02    6.553436e-06
  3.315487e-02    6.491461e-06
  3.345380e-02    6.416287e-06
  3.375273e-02    6.351496e-06
  3.405166e-02    6.306767e-06
  3.435059e-02    6.242746e-06
  3.464952e-02    6.150533e-06
  3.494845e-02    6.119308e-06
  3.524738e-02    6.086549e-06
  3.554631e-02    6.047329e-06
  3.584524e-02    5.999763e-06
  3.614417e-02    5.960704e-06
  3.644310e-02    5.887988e-06
  3.674204e-02    5.833364e-06
  3.704097e-02    5.782475e-06
  3.733990e-02    5.764645e-06
  3.763883e-02    5.723197e-06
  3.793776e-02    5.673081e-06
  3.823669e-02    5.630681e-06
  3.853562e-02    5.587472e-06
  3.883455e-02    5.579824e-06
  3.913348e-02    5.540508e-06
  3.943241e-02    5.509858e-06
  3.973134e-02    5.468943e-06
  4.003027e-02    5.440300e-06
  4.032920e-02    5.440090e-06
  4.062813e-02    5.408614e-06
  4.092706e-02    5.385360e-06
  4.122599e-02    5.381672e-06
  4.152492e-02    5.339490e-06
  4.182385e-02    5.337809e-06
  4.212278e-02    5.336203e-06
  4.242171e-02    5.284992e-06
  4.272064e-02    5.250149e-06
  4.301957e-02    5.229726e-06
  4.331850e-02    5.232314e-06
  4.361743e-02    5.235593e-06
  4.391636e-02    5.221892e-06
  4.421529e-02    5.212938e-06
  4.451423e-02    5.219881e-06
  4.481316e-02    5.205020e-06
  4.511209e-02    5.181178e-06
  4.541102e-02    5.196456e-06
  4.570995e-02    5.191866e-06
  4.600888e-02    5.169526e-06
  4.630781e-02    5.156232e-06
  4.660674e-02    5.148540e-06
  4.690567e-02    5.164864e-06
  4.720460e-02    5.155506e-06
  4.750353e-02    5.174542e-06
  4.780246e-02    5.170965e-06
  4.810139e-02    5.140056e-06
  4.840032e-02    5.129529e-06
  4.869925e-02    5.096523e-06
  4.899818e-02    5.117698e-06
  4.929711e-02    5.154290e-06
  4.959604e-02    5.123955e-06
  4.989497e-02    5.124753e-06
  5.019390e-02    5.140567e-06
  5.049283e-02    5.125244e-06
  5.079176e-02    5.108919e-06
  5.109069e-02    5.122385e-06
  5.138962e-02    5.144102e-06
  5.168855e-02    5.247167e-06
  5.198748e-02    5.327499e-06
  5.228642e-02    5.295792e-06
  5.258535e-02    5.183864e-06
  5.288428e-02    5.120231e-06
  5.318321e-02    5.099272e-06
  5.348214e-02    5.098438e-06
  5.378107e-02    5.102109e-06
  5.408000e-02    5.104001e-06
  5.437893e-02    5.125888e-06
  5.467786e-02    5.141335e-06
  5.497679e-02    5.122317e-06
  5.527572e-02    5.121474e-06
  5.557465e-02    5.136806e-06
  5.587358e-02    5.130357e-06
  5.617251e-02    5.127273e-06
  5.647144e-02    5.135299e-06
  5.677037e-02    5.144811e-06
  5.706930e-02    5.163352e-06
  5.736823e-02    5.184195e-06
  5.766716e-02    5.176766e-06
  5.796609e-02    5.192735e-06
  5.826502e-02    5.193087e-06
  5.856395e-02    5.200796e-06
  5.886288e-02    5.219375e-06
  5.916181e-02    5.229814e-06
  5.946074e-02    5.197733e-06
  5.975967e-02    5.225142e-06
  6.005861e-02    5.262987e-06
  6.035754e-02    5.286980e-06
  6.065647e-02    5.296250e-06
  6.095540e-02    5.296998e-06
  6.125433e-02    5.346757e-06
  6.155326e-02    5.388037e-06
  6.185219e-02    5.332076e-06
  6.215112e-02    5.285484e-06
  6.245005e-02    5.275372e-06
  6.274898e-02    5.287245e-06
  6.304791e-02    5.301411e-06
  6.334684e-02    5.297553e-06
  6.364577e-02    5.311704e-06
  6.394470e-02    5.328822e-06
  6.424363e-02    5.332606e-06
  6.454256e-02    5.344302e-06
  6.484149e-02    5.330011e-06
  6.514042e-02    5.353910e-06
  6.543935e-02    5.366719e-06
  6.573828e-02    5.358010e-06
  6.603721e-02    5.368551e-06
  6.633614e-02    5.369033e-06
  6.663507e-02    5.374336e-06
  6.693400e-02    5.387448e-06
  6.723293e-02    5.409786e-06
  6.753186e-02    5.403127e-06
  6.783080e-02    5.413709e-06
  6.812973e-02    5.426258e-06
  6.842866e-02    5.421740e-06
  6.872759e-02    5.426834e-06
  6.902652e-02    5.463105e-06
  6.932545e-02    5.477007e-06
  6.962438e-02    5.467801e-06
  6.992331e-02    5.484398e-06
  7.022224e-02    5.483950e-06
  7.052117e-02    5.457796e-06
  7.082010e-02    5.454333e-06
  7.111903e-02    5.490167e-06
  7.141796e-02    5.497324e-06
  7.171689e-02    5.498528e-06
  7.201582e-02    5.526267e-06
  7.231475e-02    5.538796e-06
  7.261368e-02    5.538931e-06
  7.291261e-02    5.522557e-06
  7.321154e-02    5.526904e-06
  7.351047e-02    5.513026e-06
  7.380940e-02    5.485286e-06
  7.410833e-02    5.511176e-06
  7.440726e-02    5.531128e-06
  7.470619e-02    5.530593e-06
  7.500512e-02    5.530578e-06
  7.530405e-02    5.514258e-06
  7.560299e-02    5.516553e-06
  7.590192e-02    5.524585e-06
  7.620085e-02    5.538048e-06
  7.649978e-02    5.523219e-06
  7.679871e-02    5.519200e-06
  7.709764e-02    5.548384e-06
  7.739657e-02    5.518958e-06
  7.769550e-02    5.522955e-06
  7.799443e-02    5.539544e-06
  7.829336e-02    5.537447e-06
  7.859229e-02    5.521574e-06
  7.889122e-02    5.509892e-06
  7.919015e-02    5.513572e-06
  7.948908e-02    5.490205e-06
  7.978801e-02    5.496216e-06
  8.008694e-02    5.520660e-06
  8.038587e-02    5.509769e-06
  8.068480e-02    5.505439e-06
  8.098373e-02    5.494190e-06
  8.128266e-02    5.485294e-06
  8.158159e-02    5.485931e-06
  8.188052e-02    5.490077e-06
  8.217945e-02    5.468716e-06
  8.247838e-02    5.451287e-06
  8.277731e-02    5.445044e-06
  8.307624e-02    5.438344e-06
  8.337518e-02    5.419648e-06
  8.367411e-02    5.420008e-06
  8.397304e-02    5.433719e-06
  8.427197e-02    5.428640e-06
  8.457090e-02    5.405716e-06
  8.486983e-02    5.389127e-06
  8.516876e-02    5.414286e-06
  8.546769e-02    5.401793e-06
  8.576662e-02    5.390622e-06
  8.606555e-02    5.381634e-06
  8.636448e-02    5.365836e-06
  8.666341e-02    5.353831e-06
  8.696234e-02    5.361437e-06
  8.726127e-02    5.331904e-06
  8.756020e-02    5.302497e-06
  8.785913e-02    5.308655e-06
  8.815806e-02    5.316115e-06
  8.845699e-02    5.312665e-06
  8.875592e-02    5.296774e-06
  8.905485e-02    5.282028e-06
  8.935378e-02    5.255386e-06
  8.965271e-02    5.268985e-06
  8.995164e-02    5.265330e-06
  9.025057e-02    5.261238e-06
  9.054950e-02    5.264034e-06
  9.084843e-02    5.229070e-06
  9.114737e-02    5.201988e-06
  9.144630e-02    5.206395e-06
  9.174523e-02    5.217852e-06
  9.204416e-02    5.189042e-06
  9.234309e-02    5.169337e-06
  9.264202e-02    5.169162e-06
  9.294095e-02    5.158861e-06
  9.323988e-02    5.161192e-06
  9.353881e-02    5.140461e-06
  9.383774e-02    5.126594e-06
  9.413667e-02    5.128652e-06
  9.443560e-02    5.124932e-06
  9.473453e-02    5.113579e-06
  9.503346e-02    5.102911e-06
  9.533239e-02    5.087983e-06
  9.563132e-02    5.063112e-06
  9.593025e-02    5.085904e-06
  9.622918e-02    5.102774e-06
  9.652811e-02    5.096218e-06
  9.682704e-02    5.093230e-06
  9.712597e-02    5.088969e-06
  9.742490e-02    5.089952e-06
  9.772383e-02    5.076545e-06
  9.802276e-02    5.035361e-06
  9.832169e-02    5.000087e-06
  9.862062e-02    5.009028e-06
  9.891956e-02    4.999001e-06
  9.921849e-02    4.990209e-06
  9.951742e-02    4.972987e-06
  9.981635e-02    4.954881e-06
  1.001153e-01    4.952190e-06
  1.004142e-01    4.938995e-06
  1.007131e-01    4.927625e-06
  1.010121e-01    4.911405e-06
  1.013110e-01    4.917467e-06
  1.016099e-01    4.881855e-06
  1.019089e-01    4.871806e-06
  1.022078e-01    4.858337e-06
  1.025067e-01    4.860850e-06
  1.028057e-01    4.869510e-06
  1.031046e-01    4.843936e-06
  1.034035e-01    4.835898e-06
  1.037024e-01    4.824582e-06
  1.040014e-01    4.812837e-06
  1.043003e-01    4.803844e-06
  1.045992e-01    4.791314e-06
  1.048982e-01    4.784421e-06
  1.051971e-01    4.768571e-06
  1.054960e-01    4.748502e-06
  1.057950e-01    4.746920e-06
  1.060939e-01    4.764458e-06
  1.063928e-01    4.748422e-06
  1.066917e-01    4.731720e-06
  1.069907e-01    4.724304e-06
  1.072896e-01    4.723216e-06
  1.075885e-01    4.724232e-06
  1.078875e-01    4.706525e-06
  1.081864e-01    4.686850e-06
  1.084853e-01    4.684485e-06
  1.087843e-01    4.672660e-06
  1.090832e-01    4.679205e-06
  1.093821e-01    4.674815e-06
  1.096810e-01    4.641524e-06
  1.099800e-01    4.613282e-06
  1.102789e-01    4.616418e-06
  1.105778e-01    4.603779e-06
  1.108768e-01    4.584823e-06
  1.111757e-01    4.568442e-06
  1.114746e-01    4.539568e-06
  1.117736e-01    4.536902e-06
  1.120725e-01    4.557240e-06
  1.123714e-01    4.542559e-06
  1.126704e-01    4.506358e-06
  1.129693e-01    4.496257e-06
  1.132682e-01    4.483204e-06
  1.135671e-01    4.459256e-06
  1.138661e-01    4.474678e-06
  1.141650e-01    4.488601e-06
  1.144639e-01    4.475548e-06
  1.147629e-01    4.414384e-06
  1.150618e-01    4.390992e-06
  1.153607e-01    4.428940e-06
  1.156597e-01    4.418235e-06
  1.159586e-01    4.375856e-06
  1.162575e-01    4.380055e-06
  1.165564e-01    4.386879e-06
  1.168554e-01    4.384244e-06
  1.171543e-01    4.392797e-06
  1.174532e-01    4.404298e-06
  1.177522e-01    4.398756e-06
  1.180511e-01    4.379660e-06
  1.183500e-01    4.401344e-06
  1.186490e-01    4.389130e-06
  1.189479e-01    4.381272e-06
  1.192468e-01    4.372224e-06
  1.195458e-01    4.401580e-06
  1.198447e-01    4.359945e-06
  1.201436e-01    4.354758e-06
  1.204425e-01    4.370778e-06
  1.207415e-01    4.145182e-06
  1.210404e-01    3.501934e-06
  1.213393e-01    0.000000e+00
  1.216383e-01    0.000000e+00
  1.219372e-01    0.000000e+00
  1.222361e-01    0.000000e+00
  1.225351e-01    0.000000e+00
  1.228340e-01    0.000000e+00
  1.231329e-01    0.000000e+00
  1.234318e-01    0.000000e+00
  1.237308e-01    0.000000e+00
  1.240297e-01    0.000000e+00
  1.243286e-01    0.000000e+00
  1.246276e-01    0.000000e+00
  1.249265e-01    0.000000e+00
  1.252254e-01    0.000000e+00
  1.255244e-01    0.000000e+00
  1.258233e-01    0.000000e+00
  1.261222e-01    0.000000e+00
  1.264212e-01    0.000000e+00
  1.267201e-01    0.000000e+00
  1.270190e-01    0.000000e+00
  1.273179e-01    0.000000e+00
  1.276169e-01    0.000000e+00
  1.279158e-01    0.000000e+00
  1.282147e-01    0.000000e+00
  1.285137e-01    0.000000e+00
  1.288126e-01    0.000000e+00
  1.291115e-01    0.000000e+00
  1.294105e-01    0.000000e+00
  1.297094e-01    0.000000e+00
  1.300083e-01    0.000000e+00
  1.303072e-01    0.000000e+00
  1.306062e-01    0.000000e+00
  1.309051e-01    0.000000e+00
  1.312040e-01    0.000000e+00
  1.315030e-01    0.000000e+00
  1.318019e-01    0.000000e+00
  1.321008e-01    0.000000e+00
  1.323998e-01    0.000000e+00
  1.326987e-01    0.000000e+00
  1.329976e-01    0.000000e+00
  1.332965e-01    0.000000e+00
  1.335955e-01    0.000000e+00
  1.338944e-01    0.000000e+00
  1.341933e-01    0.000000e+00
  1.344923e-01    0.000000e+00
  1.347912e-01    0.000000e+00
  1.350901e-01    0.000000e+00
  1.353891e-01    0.000000e+00
  1.356880e-01    0.000000e+00
  1.359869e-01    0.000000e+00
  1.362859e-01    0.000000e+00
  1.365848e-01    0.000000e+00
  1.368837e-01    0.000000e+00
  1.371826e-01    0.000000e+00
  1.374816e-01    0.000000e+00
  1.377805e-01    0.000000e+00
  1.380794e-01    0.000000e+00
  1.383784e-01    0.000000e+00
  1.386773e-01    0.000000e+00
  1.389762e-01    0.000000e+00
  1.392752e-01    0.000000e+00
  1.395741e-01    0.000000e+00
  1.398730e-01    0.000000e+00
  1.401719e-01    0.000000e+00
  1.404709e-01    0.000000e+00
  1.407698e-01    0.000000e+00
  1.410687e-01    0.000000e+00
  1.413677e-01    0.000000e+00
  1.416666e-01    0.000000e+00
  1.419655e-01    0.000000e+00
  1.422645e-01    0.000000e+00
  1.425634e-01    0.000000e+00
  1.428623e-01    0.000000e+00
  1.431613e-01    0.000000e+00
  1.434602e-01    0.000000e+00
  1.437591e-01    0.000000e+00
  1.440580e-01    0.000000e+00
  1.443570e-01    0.000000e+00
  1.446559e-01    0.000000e+00
  1.449548e-01    0.000000e+00
  1.452538e-01    0.000000e+00
  1.455527e-01    0.000000e+00
  1.458516e-01    0.000000e+00
  1.461506e-01    0.000000e+00
  1.464495e-01    0.000000e+00
  1.467484e-01    0.000000e+00
  1.470473e-01    0.000000e+00
  1.473463e-01    0.000000e+00
  1.476452e-01    0.000000e+00
  1.479441e-01    0.000000e+00
  1.482431e-01    0.000000e+00
  1.485420e-01    0.000000e+00
  1.488409e-01    0.000000e+00
  1.491399e-01    0.000000e+00
  1.494388e-01    0.000000e+00
  1.497377e-01    0.000000e+00
  1.500367e-01    0.000000e+00
  1.503356e-01    0.000000e+00
  1.506345e-01    0.000000e+00
  1.509334e-01    0.000000e+00
  1.512324e-01    0.000000e+00
  1.515313e-01    0.000000e+00
  1.518302e-01    0.000000e+00
  1.521292e-01    0.000000e+00
  1.524281e-01    0.000000e+00
  1.527270e-01    0.000000e+00
  1.530260e-01    0.000000e+00
  1.533249e-01    0.000000e+00
  1.536238e-01    0.000000e+00
