# == pyFAI calibration ==
# Distance Sample to Detector: 2.266 m
# PONI: 5.659e-02, 4.293e-02 m
# Rotations: 0.000000 0.000000 0.000000 rad
# 
# == Fit2d calibration ==
# Distance Sample-beamCenter: 2266.000 mm
# Center: x=249.594, y=329.012 pix
# Tilt: 0.000 deg  TiltPlanRot: 0.000 deg
# 
# Detector Pilatus 300k	 PixelSize= 1.720e-04, 1.720e-04 m
#    Detector has a mask: True 
#    Detector has a dark current: False 
#    detector has a flat field: False 
# 
# Wavelength: 1.27818e-10 m
# Mask applied: user provided
# Dark current applied: False
# Flat field applied: False
# Polarization factor: None
# Normalization factor: 8581612.0
# --> MT-F127_51.078_NaCl_19.702_limonene_0.000mgml_0_r1d.csv
#        q_A^-1             I 
  4.457554e-03    4.525790e-03
  4.756484e-03    3.556472e-03
  5.055415e-03    2.546024e-03
  5.354345e-03    1.815333e-03
  5.653276e-03    1.423067e-03
  5.952206e-03    2.345706e-03
  6.251136e-03    2.130383e-03
  6.550067e-03    1.836565e-03
  6.848997e-03    1.554218e-03
  7.147927e-03    1.309380e-03
  7.446858e-03    1.116130e-03
  7.745788e-03    9.573358e-04
  8.044719e-03    8.259968e-04
  8.343649e-03    7.207654e-04
  8.642579e-03    6.302146e-04
  8.941510e-03    5.552252e-04
  9.240440e-03    4.928064e-04
  9.539371e-03    4.380808e-04
  9.838301e-03    3.893263e-04
  1.013723e-02    3.486714e-04
  1.043616e-02    3.145739e-04
  1.073509e-02    2.823228e-04
  1.103402e-02    2.560142e-04
  1.133295e-02    2.327126e-04
  1.163188e-02    2.122547e-04
  1.193081e-02    1.936448e-04
  1.222974e-02    1.776607e-04
  1.252867e-02    1.633358e-04
  1.282760e-02    1.504666e-04
  1.312654e-02    1.390297e-04
  1.342547e-02    1.288386e-04
  1.372440e-02    1.197102e-04
  1.402333e-02    1.111432e-04
  1.432226e-02    1.030704e-04
  1.462119e-02    9.639296e-05
  1.492012e-02    9.038634e-05
  1.521905e-02    8.439876e-05
  1.551798e-02    7.933763e-05
  1.581691e-02    7.507902e-05
  1.611584e-02    7.075882e-05
  1.641477e-02    6.669095e-05
  1.671370e-02    6.317249e-05
  1.701263e-02    5.981491e-05
  1.731156e-02    5.655585e-05
  1.761049e-02    5.382556e-05
  1.790942e-02    5.138197e-05
  1.820835e-02    4.896069e-05
  1.850728e-02    4.674208e-05
  1.880621e-02    4.471776e-05
  1.910514e-02    4.291117e-05
  1.940407e-02    4.112717e-05
  1.970300e-02    3.951499e-05
  2.000193e-02    3.799293e-05
  2.030086e-02    3.658070e-05
  2.059979e-02    3.532916e-05
  2.089873e-02    3.431811e-05
  2.119766e-02    3.325303e-05
  2.149659e-02    3.215837e-05
  2.179552e-02    3.112618e-05
  2.209445e-02    3.016078e-05
  2.239338e-02    2.923436e-05
  2.269231e-02    2.846887e-05
  2.299124e-02    2.778957e-05
  2.329017e-02    2.702727e-05
  2.358910e-02    2.637882e-05
  2.388803e-02    2.570276e-05
  2.418696e-02    2.519933e-05
  2.448589e-02    2.458276e-05
  2.478482e-02    2.394478e-05
  2.508375e-02    2.343568e-05
  2.538268e-02    2.305915e-05
  2.568161e-02    2.275619e-05
  2.598054e-02    2.228200e-05
  2.627947e-02    2.190255e-05
  2.657840e-02    2.151618e-05
  2.687733e-02    2.115174e-05
  2.717626e-02    2.090693e-05
  2.747519e-02    2.055745e-05
  2.777412e-02    2.013849e-05
  2.807305e-02    1.982136e-05
  2.837198e-02    1.953485e-05
  2.867092e-02    1.940649e-05
  2.896985e-02    1.912182e-05
  2.926878e-02    1.890664e-05
  2.956771e-02    1.869453e-05
  2.986664e-02    1.849060e-05
  3.016557e-02    1.828564e-05
  3.046450e-02    1.806240e-05
  3.076343e-02    1.790525e-05
  3.106236e-02    1.774802e-05
  3.136129e-02    1.763794e-05
  3.166022e-02    1.741154e-05
  3.195915e-02    1.722108e-05
  3.225808e-02    1.706493e-05
  3.255701e-02    1.690491e-05
  3.285594e-02    1.672411e-05
  3.315487e-02    1.652818e-05
  3.345380e-02    1.632560e-05
  3.375273e-02    1.626475e-05
  3.405166e-02    1.612601e-05
  3.435059e-02    1.592162e-05
  3.464952e-02    1.584232e-05
  3.494845e-02    1.575358e-05
  3.524738e-02    1.566501e-05
  3.554631e-02    1.554350e-05
  3.584524e-02    1.537968e-05
  3.614417e-02    1.521123e-05
  3.644310e-02    1.513424e-05
  3.674204e-02    1.505573e-05
  3.704097e-02    1.488021e-05
  3.733990e-02    1.469104e-05
  3.763883e-02    1.465059e-05
  3.793776e-02    1.466123e-05
  3.823669e-02    1.457552e-05
  3.853562e-02    1.445292e-05
  3.883455e-02    1.440005e-05
  3.913348e-02    1.427577e-05
  3.943241e-02    1.417616e-05
  3.973134e-02    1.402790e-05
  4.003027e-02    1.400863e-05
  4.032920e-02    1.394322e-05
  4.062813e-02    1.385781e-05
  4.092706e-02    1.386399e-05
  4.122599e-02    1.379424e-05
  4.152492e-02    1.373994e-05
  4.182385e-02    1.367239e-05
  4.212278e-02    1.360458e-05
  4.242171e-02    1.358763e-05
  4.272064e-02    1.355658e-05
  4.301957e-02    1.343366e-05
  4.331850e-02    1.339447e-05
  4.361743e-02    1.337786e-05
  4.391636e-02    1.341598e-05
  4.421529e-02    1.336721e-05
  4.451423e-02    1.325077e-05
  4.481316e-02    1.333214e-05
  4.511209e-02    1.330475e-05
  4.541102e-02    1.323669e-05
  4.570995e-02    1.323102e-05
  4.600888e-02    1.324168e-05
  4.630781e-02    1.322439e-05
  4.660674e-02    1.326744e-05
  4.690567e-02    1.323586e-05
  4.720460e-02    1.319289e-05
  4.750353e-02    1.320732e-05
  4.780246e-02    1.312254e-05
  4.810139e-02    1.309194e-05
  4.840032e-02    1.310220e-05
  4.869925e-02    1.308541e-05
  4.899818e-02    1.309150e-05
  4.929711e-02    1.311011e-05
  4.959604e-02    1.308674e-05
  4.989497e-02    1.306750e-05
  5.019390e-02    1.306267e-05
  5.049283e-02    1.307830e-05
  5.079176e-02    1.308532e-05
  5.109069e-02    1.310327e-05
  5.138962e-02    1.321480e-05
  5.168855e-02    1.343124e-05
  5.198748e-02    1.358684e-05
  5.228642e-02    1.350965e-05
  5.258535e-02    1.320625e-05
  5.288428e-02    1.308818e-05
  5.318321e-02    1.305760e-05
  5.348214e-02    1.305330e-05
  5.378107e-02    1.304852e-05
  5.408000e-02    1.307989e-05
  5.437893e-02    1.304972e-05
  5.467786e-02    1.301895e-05
  5.497679e-02    1.305100e-05
  5.527572e-02    1.308134e-05
  5.557465e-02    1.306579e-05
  5.587358e-02    1.311522e-05
  5.617251e-02    1.315950e-05
  5.647144e-02    1.313850e-05
  5.677037e-02    1.315607e-05
  5.706930e-02    1.315946e-05
  5.736823e-02    1.315506e-05
  5.766716e-02    1.318653e-05
  5.796609e-02    1.322646e-05
  5.826502e-02    1.321578e-05
  5.856395e-02    1.325399e-05
  5.886288e-02    1.320268e-05
  5.916181e-02    1.319791e-05
  5.946074e-02    1.323588e-05
  5.975967e-02    1.325323e-05
  6.005861e-02    1.324721e-05
  6.035754e-02    1.325013e-05
  6.065647e-02    1.334805e-05
  6.095540e-02    1.348981e-05
  6.125433e-02    1.361065e-05
  6.155326e-02    1.363350e-05
  6.185219e-02    1.355648e-05
  6.215112e-02    1.347792e-05
  6.245005e-02    1.343683e-05
  6.274898e-02    1.349591e-05
  6.304791e-02    1.345809e-05
  6.334684e-02    1.345975e-05
  6.364577e-02    1.346740e-05
  6.394470e-02    1.350246e-05
  6.424363e-02    1.349578e-05
  6.454256e-02    1.349866e-05
  6.484149e-02    1.354289e-05
  6.514042e-02    1.357176e-05
  6.543935e-02    1.360163e-05
  6.573828e-02    1.362154e-05
  6.603721e-02    1.361719e-05
  6.633614e-02    1.363880e-05
  6.663507e-02    1.368290e-05
  6.693400e-02    1.368711e-05
  6.723293e-02    1.370584e-05
  6.753186e-02    1.372326e-05
  6.783080e-02    1.372215e-05
  6.812973e-02    1.377644e-05
  6.842866e-02    1.380456e-05
  6.872759e-02    1.379456e-05
  6.902652e-02    1.378789e-05
  6.932545e-02    1.381006e-05
  6.962438e-02    1.383003e-05
  6.992331e-02    1.385033e-05
  7.022224e-02    1.387341e-05
  7.052117e-02    1.387729e-05
  7.082010e-02    1.387133e-05
  7.111903e-02    1.385553e-05
  7.141796e-02    1.389295e-05
  7.171689e-02    1.392294e-05
  7.201582e-02    1.392401e-05
  7.231475e-02    1.392944e-05
  7.261368e-02    1.391984e-05
  7.291261e-02    1.393245e-05
  7.321154e-02    1.393410e-05
  7.351047e-02    1.392979e-05
  7.380940e-02    1.394612e-05
  7.410833e-02    1.393784e-05
  7.440726e-02    1.394537e-05
  7.470619e-02    1.399876e-05
  7.500512e-02    1.397648e-05
  7.530405e-02    1.397199e-05
  7.560299e-02    1.390911e-05
  7.590192e-02    1.388688e-05
  7.620085e-02    1.394894e-05
  7.649978e-02    1.397878e-05
  7.679871e-02    1.399301e-05
  7.709764e-02    1.399019e-05
  7.739657e-02    1.396702e-05
  7.769550e-02    1.394846e-05
  7.799443e-02    1.395419e-05
  7.829336e-02    1.395799e-05
  7.859229e-02    1.393566e-05
  7.889122e-02    1.391025e-05
  7.919015e-02    1.393856e-05
  7.948908e-02    1.388859e-05
  7.978801e-02    1.387146e-05
  8.008694e-02    1.385773e-05
  8.038587e-02    1.385128e-05
  8.068480e-02    1.390355e-05
  8.098373e-02    1.386548e-05
  8.128266e-02    1.385695e-05
  8.158159e-02    1.386110e-05
  8.188052e-02    1.382696e-05
  8.217945e-02    1.381488e-05
  8.247838e-02    1.378080e-05
  8.277731e-02    1.370912e-05
  8.307624e-02    1.367961e-05
  8.337518e-02    1.369247e-05
  8.367411e-02    1.370839e-05
  8.397304e-02    1.371675e-05
  8.427197e-02    1.372164e-05
  8.457090e-02    1.362547e-05
  8.486983e-02    1.360029e-05
  8.516876e-02    1.364721e-05
  8.546769e-02    1.364673e-05
  8.576662e-02    1.362173e-05
  8.606555e-02    1.356901e-05
  8.636448e-02    1.355990e-05
  8.666341e-02    1.355713e-05
  8.696234e-02    1.350544e-05
  8.726127e-02    1.349927e-05
  8.756020e-02    1.347216e-05
  8.785913e-02    1.343204e-05
  8.815806e-02    1.341405e-05
  8.845699e-02    1.335676e-05
  8.875592e-02    1.337149e-05
  8.905485e-02    1.340760e-05
  8.935378e-02    1.337368e-05
  8.965271e-02    1.331827e-05
  8.995164e-02    1.328157e-05
  9.025057e-02    1.326815e-05
  9.054950e-02    1.327165e-05
  9.084843e-02    1.325866e-05
  9.114737e-02    1.318700e-05
  9.144630e-02    1.318133e-05
  9.174523e-02    1.311184e-05
  9.204416e-02    1.309873e-05
  9.234309e-02    1.309932e-05
  9.264202e-02    1.308122e-05
  9.294095e-02    1.307305e-05
  9.323988e-02    1.300883e-05
  9.353881e-02    1.302250e-05
  9.383774e-02    1.302038e-05
  9.413667e-02    1.296784e-05
  9.443560e-02    1.293283e-05
  9.473453e-02    1.291550e-05
  9.503346e-02    1.289659e-05
  9.533239e-02    1.290866e-05
  9.563132e-02    1.288681e-05
  9.593025e-02    1.285623e-05
  9.622918e-02    1.286725e-05
  9.652811e-02    1.289715e-05
  9.682704e-02    1.294228e-05
  9.712597e-02    1.295179e-05
  9.742490e-02    1.284253e-05
  9.772383e-02    1.275497e-05
  9.802276e-02    1.268653e-05
  9.832169e-02    1.267510e-05
  9.862062e-02    1.265584e-05
  9.891956e-02    1.261971e-05
  9.921849e-02    1.262369e-05
  9.951742e-02    1.259677e-05
  9.981635e-02    1.255641e-05
  1.001153e-01    1.255327e-05
  1.004142e-01    1.253265e-05
  1.007131e-01    1.248038e-05
  1.010121e-01    1.248125e-05
  1.013110e-01    1.246293e-05
  1.016099e-01    1.240414e-05
  1.019089e-01    1.235899e-05
  1.022078e-01    1.231552e-05
  1.025067e-01    1.229428e-05
  1.028057e-01    1.230992e-05
  1.031046e-01    1.229490e-05
  1.034035e-01    1.224972e-05
  1.037024e-01    1.223369e-05
  1.040014e-01    1.223044e-05
  1.043003e-01    1.220676e-05
  1.045992e-01    1.221106e-05
  1.048982e-01    1.220849e-05
  1.051971e-01    1.218224e-05
  1.054960e-01    1.214632e-05
  1.057950e-01    1.211977e-05
  1.060939e-01    1.208193e-05
  1.063928e-01    1.206060e-05
  1.066917e-01    1.201316e-05
  1.069907e-01    1.200092e-05
  1.072896e-01    1.198619e-05
  1.075885e-01    1.195401e-05
  1.078875e-01    1.193868e-05
  1.081864e-01    1.193437e-05
  1.084853e-01    1.194406e-05
  1.087843e-01    1.197387e-05
  1.090832e-01    1.189725e-05
  1.093821e-01    1.183739e-05
  1.096810e-01    1.183034e-05
  1.099800e-01    1.174773e-05
  1.102789e-01    1.174520e-05
  1.105778e-01    1.174664e-05
  1.108768e-01    1.167782e-05
  1.111757e-01    1.161410e-05
  1.114746e-01    1.154541e-05
  1.117736e-01    1.150693e-05
  1.120725e-01    1.154069e-05
  1.123714e-01    1.155896e-05
  1.126704e-01    1.149520e-05
  1.129693e-01    1.141929e-05
  1.132682e-01    1.133824e-05
  1.135671e-01    1.128549e-05
  1.138661e-01    1.138951e-05
  1.141650e-01    1.135283e-05
  1.144639e-01    1.124341e-05
  1.147629e-01    1.123517e-05
  1.150618e-01    1.124271e-05
  1.153607e-01    1.130516e-05
  1.156597e-01    1.132424e-05
  1.159586e-01    1.130813e-05
  1.162575e-01    1.128548e-05
  1.165564e-01    1.131970e-05
  1.168554e-01    1.132236e-05
  1.171543e-01    1.117269e-05
  1.174532e-01    1.102014e-05
  1.177522e-01    1.110405e-05
  1.180511e-01    1.115629e-05
  1.183500e-01    1.115969e-05
  1.186490e-01    1.111067e-05
  1.189479e-01    1.098183e-05
  1.192468e-01    1.094339e-05
  1.195458e-01    1.093643e-05
  1.198447e-01    1.096014e-05
  1.201436e-01    1.095484e-05
  1.204425e-01    1.088362e-05
  1.207415e-01    1.035071e-05
  1.210404e-01    9.563971e-06
  1.213393e-01    0.000000e+00
  1.216383e-01    0.000000e+00
  1.219372e-01    0.000000e+00
  1.222361e-01    0.000000e+00
  1.225351e-01    0.000000e+00
  1.228340e-01    0.000000e+00
  1.231329e-01    0.000000e+00
  1.234318e-01    0.000000e+00
  1.237308e-01    0.000000e+00
  1.240297e-01    0.000000e+00
  1.243286e-01    0.000000e+00
  1.246276e-01    0.000000e+00
  1.249265e-01    0.000000e+00
  1.252254e-01    0.000000e+00
  1.255244e-01    0.000000e+00
  1.258233e-01    0.000000e+00
  1.261222e-01    0.000000e+00
  1.264212e-01    0.000000e+00
  1.267201e-01    0.000000e+00
  1.270190e-01    0.000000e+00
  1.273179e-01    0.000000e+00
  1.276169e-01    0.000000e+00
  1.279158e-01    0.000000e+00
  1.282147e-01    0.000000e+00
  1.285137e-01    0.000000e+00
  1.288126e-01    0.000000e+00
  1.291115e-01    0.000000e+00
  1.294105e-01    0.000000e+00
  1.297094e-01    0.000000e+00
  1.300083e-01    0.000000e+00
  1.303072e-01    0.000000e+00
  1.306062e-01    0.000000e+00
  1.309051e-01    0.000000e+00
  1.312040e-01    0.000000e+00
  1.315030e-01    0.000000e+00
  1.318019e-01    0.000000e+00
  1.321008e-01    0.000000e+00
  1.323998e-01    0.000000e+00
  1.326987e-01    0.000000e+00
  1.329976e-01    0.000000e+00
  1.332965e-01    0.000000e+00
  1.335955e-01    0.000000e+00
  1.338944e-01    0.000000e+00
  1.341933e-01    0.000000e+00
  1.344923e-01    0.000000e+00
  1.347912e-01    0.000000e+00
  1.350901e-01    0.000000e+00
  1.353891e-01    0.000000e+00
  1.356880e-01    0.000000e+00
  1.359869e-01    0.000000e+00
  1.362859e-01    0.000000e+00
  1.365848e-01    0.000000e+00
  1.368837e-01    0.000000e+00
  1.371826e-01    0.000000e+00
  1.374816e-01    0.000000e+00
  1.377805e-01    0.000000e+00
  1.380794e-01    0.000000e+00
  1.383784e-01    0.000000e+00
  1.386773e-01    0.000000e+00
  1.389762e-01    0.000000e+00
  1.392752e-01    0.000000e+00
  1.395741e-01    0.000000e+00
  1.398730e-01    0.000000e+00
  1.401719e-01    0.000000e+00
  1.404709e-01    0.000000e+00
  1.407698e-01    0.000000e+00
  1.410687e-01    0.000000e+00
  1.413677e-01    0.000000e+00
  1.416666e-01    0.000000e+00
  1.419655e-01    0.000000e+00
  1.422645e-01    0.000000e+00
  1.425634e-01    0.000000e+00
  1.428623e-01    0.000000e+00
  1.431613e-01    0.000000e+00
  1.434602e-01    0.000000e+00
  1.437591e-01    0.000000e+00
  1.440580e-01    0.000000e+00
  1.443570e-01    0.000000e+00
  1.446559e-01    0.000000e+00
  1.449548e-01    0.000000e+00
  1.452538e-01    0.000000e+00
  1.455527e-01    0.000000e+00
  1.458516e-01    0.000000e+00
  1.461506e-01    0.000000e+00
  1.464495e-01    0.000000e+00
  1.467484e-01    0.000000e+00
  1.470473e-01    0.000000e+00
  1.473463e-01    0.000000e+00
  1.476452e-01    0.000000e+00
  1.479441e-01    0.000000e+00
  1.482431e-01    0.000000e+00
  1.485420e-01    0.000000e+00
  1.488409e-01    0.000000e+00
  1.491399e-01    0.000000e+00
  1.494388e-01    0.000000e+00
  1.497377e-01    0.000000e+00
  1.500367e-01    0.000000e+00
  1.503356e-01    0.000000e+00
  1.506345e-01    0.000000e+00
  1.509334e-01    0.000000e+00
  1.512324e-01    0.000000e+00
  1.515313e-01    0.000000e+00
  1.518302e-01    0.000000e+00
  1.521292e-01    0.000000e+00
  1.524281e-01    0.000000e+00
  1.527270e-01    0.000000e+00
  1.530260e-01    0.000000e+00
  1.533249e-01    0.000000e+00
  1.536238e-01    0.000000e+00
