# == pyFAI calibration ==
# Distance Sample to Detector: 2.266 m
# PONI: 5.659e-02, 4.293e-02 m
# Rotations: 0.000000 0.000000 0.000000 rad
# 
# == Fit2d calibration ==
# Distance Sample-beamCenter: 2266.000 mm
# Center: x=249.594, y=329.012 pix
# Tilt: 0.000 deg  TiltPlanRot: 0.000 deg
# 
# Detector Pilatus 300k	 PixelSize= 1.720e-04, 1.720e-04 m
#    Detector has a mask: True 
#    Detector has a dark current: False 
#    detector has a flat field: False 
# 
# Wavelength: 1.27818e-10 m
# Mask applied: user provided
# Dark current applied: False
# Flat field applied: False
# Polarization factor: None
# Normalization factor: 20147749.200000003
# --> MT-F127_172.025_hexanes_3.440_EtOH_69.398_NaCl_100.000mgml_2_r1d.csv
#        q_A^-1             I 
  4.457554e-03    1.749418e-03
  4.756484e-03    1.379345e-03
  5.055415e-03    9.923753e-04
  5.354345e-03    7.015686e-04
  5.653276e-03    5.476524e-04
  5.952206e-03    9.273072e-04
  6.251136e-03    8.443987e-04
  6.550067e-03    7.286957e-04
  6.848997e-03    6.151421e-04
  7.147927e-03    5.186023e-04
  7.446858e-03    4.415510e-04
  7.745788e-03    3.780021e-04
  8.044719e-03    3.258971e-04
  8.343649e-03    2.839607e-04
  8.642579e-03    2.481979e-04
  8.941510e-03    2.181107e-04
  9.240440e-03    1.928296e-04
  9.539371e-03    1.708556e-04
  9.838301e-03    1.520863e-04
  1.013723e-02    1.362995e-04
  1.043616e-02    1.227047e-04
  1.073509e-02    1.103897e-04
  1.103402e-02    9.991798e-05
  1.133295e-02    9.079282e-05
  1.163188e-02    8.249406e-05
  1.193081e-02    7.540337e-05
  1.222974e-02    6.907467e-05
  1.252867e-02    6.348254e-05
  1.282760e-02    5.850304e-05
  1.312654e-02    5.382613e-05
  1.342547e-02    4.981527e-05
  1.372440e-02    4.617508e-05
  1.402333e-02    4.291917e-05
  1.432226e-02    4.003787e-05
  1.462119e-02    3.737348e-05
  1.492012e-02    3.496143e-05
  1.521905e-02    3.282139e-05
  1.551798e-02    3.070439e-05
  1.581691e-02    2.882929e-05
  1.611584e-02    2.717939e-05
  1.641477e-02    2.560371e-05
  1.671370e-02    2.419739e-05
  1.701263e-02    2.296042e-05
  1.731156e-02    2.178597e-05
  1.761049e-02    2.077263e-05
  1.790942e-02    1.976819e-05
  1.820835e-02    1.884701e-05
  1.850728e-02    1.801355e-05
  1.880621e-02    1.717350e-05
  1.910514e-02    1.648343e-05
  1.940407e-02    1.579696e-05
  1.970300e-02    1.510028e-05
  2.000193e-02    1.450496e-05
  2.030086e-02    1.399452e-05
  2.059979e-02    1.350660e-05
  2.089873e-02    1.304750e-05
  2.119766e-02    1.262451e-05
  2.149659e-02    1.225426e-05
  2.179552e-02    1.183975e-05
  2.209445e-02    1.142783e-05
  2.239338e-02    1.110640e-05
  2.269231e-02    1.079789e-05
  2.299124e-02    1.048359e-05
  2.329017e-02    1.022762e-05
  2.358910e-02    9.964529e-06
  2.388803e-02    9.741929e-06
  2.418696e-02    9.519431e-06
  2.448589e-02    9.300614e-06
  2.478482e-02    9.091455e-06
  2.508375e-02    8.922474e-06
  2.538268e-02    8.767183e-06
  2.568161e-02    8.590354e-06
  2.598054e-02    8.415424e-06
  2.627947e-02    8.303086e-06
  2.657840e-02    8.171608e-06
  2.687733e-02    7.966839e-06
  2.717626e-02    7.843758e-06
  2.747519e-02    7.746799e-06
  2.777412e-02    7.683379e-06
  2.807305e-02    7.567154e-06
  2.837198e-02    7.448554e-06
  2.867092e-02    7.361537e-06
  2.896985e-02    7.216683e-06
  2.926878e-02    7.122231e-06
  2.956771e-02    7.086297e-06
  2.986664e-02    7.001974e-06
  3.016557e-02    6.893336e-06
  3.046450e-02    6.797845e-06
  3.076343e-02    6.752443e-06
  3.106236e-02    6.696788e-06
  3.136129e-02    6.619889e-06
  3.166022e-02    6.573294e-06
  3.195915e-02    6.516388e-06
  3.225808e-02    6.446500e-06
  3.255701e-02    6.380000e-06
  3.285594e-02    6.329352e-06
  3.315487e-02    6.260039e-06
  3.345380e-02    6.213104e-06
  3.375273e-02    6.161525e-06
  3.405166e-02    6.087777e-06
  3.435059e-02    6.043128e-06
  3.464952e-02    5.980059e-06
  3.494845e-02    5.957991e-06
  3.524738e-02    5.899639e-06
  3.554631e-02    5.828033e-06
  3.584524e-02    5.798517e-06
  3.614417e-02    5.754905e-06
  3.644310e-02    5.718334e-06
  3.674204e-02    5.683722e-06
  3.704097e-02    5.623065e-06
  3.733990e-02    5.583317e-06
  3.763883e-02    5.557320e-06
  3.793776e-02    5.480372e-06
  3.823669e-02    5.452674e-06
  3.853562e-02    5.458283e-06
  3.883455e-02    5.416101e-06
  3.913348e-02    5.374701e-06
  3.943241e-02    5.327801e-06
  3.973134e-02    5.298676e-06
  4.003027e-02    5.315131e-06
  4.032920e-02    5.285116e-06
  4.062813e-02    5.243631e-06
  4.092706e-02    5.213720e-06
  4.122599e-02    5.244564e-06
  4.152492e-02    5.209192e-06
  4.182385e-02    5.170642e-06
  4.212278e-02    5.175046e-06
  4.242171e-02    5.149731e-06
  4.272064e-02    5.138706e-06
  4.301957e-02    5.105006e-06
  4.331850e-02    5.100052e-06
  4.361743e-02    5.091299e-06
  4.391636e-02    5.088802e-06
  4.421529e-02    5.079251e-06
  4.451423e-02    5.060609e-06
  4.481316e-02    5.029546e-06
  4.511209e-02    5.028561e-06
  4.541102e-02    5.035512e-06
  4.570995e-02    5.022546e-06
  4.600888e-02    5.017464e-06
  4.630781e-02    5.008289e-06
  4.660674e-02    4.991969e-06
  4.690567e-02    4.989422e-06
  4.720460e-02    4.995301e-06
  4.750353e-02    4.999050e-06
  4.780246e-02    4.998387e-06
  4.810139e-02    4.966681e-06
  4.840032e-02    4.955397e-06
  4.869925e-02    4.972495e-06
  4.899818e-02    4.972341e-06
  4.929711e-02    4.967433e-06
  4.959604e-02    4.962640e-06
  4.989497e-02    4.969923e-06
  5.019390e-02    4.968230e-06
  5.049283e-02    4.960023e-06
  5.079176e-02    4.979855e-06
  5.109069e-02    5.013793e-06
  5.138962e-02    5.056896e-06
  5.168855e-02    5.123149e-06
  5.198748e-02    5.178801e-06
  5.228642e-02    5.132073e-06
  5.258535e-02    5.013344e-06
  5.288428e-02    4.967669e-06
  5.318321e-02    4.965023e-06
  5.348214e-02    4.972474e-06
  5.378107e-02    4.965898e-06
  5.408000e-02    4.958932e-06
  5.437893e-02    4.972284e-06
  5.467786e-02    4.996557e-06
  5.497679e-02    5.002357e-06
  5.527572e-02    5.023390e-06
  5.557465e-02    5.036726e-06
  5.587358e-02    5.027637e-06
  5.617251e-02    5.002738e-06
  5.647144e-02    5.010149e-06
  5.677037e-02    5.000156e-06
  5.706930e-02    5.020348e-06
  5.736823e-02    5.033678e-06
  5.766716e-02    5.032471e-06
  5.796609e-02    5.039343e-06
  5.826502e-02    5.029755e-06
  5.856395e-02    5.040964e-06
  5.886288e-02    5.033331e-06
  5.916181e-02    5.050693e-06
  5.946074e-02    5.067151e-06
  5.975967e-02    5.101456e-06
  6.005861e-02    5.104062e-06
  6.035754e-02    5.134327e-06
  6.065647e-02    5.142256e-06
  6.095540e-02    5.174380e-06
  6.125433e-02    5.212014e-06
  6.155326e-02    5.227316e-06
  6.185219e-02    5.200147e-06
  6.215112e-02    5.160273e-06
  6.245005e-02    5.155175e-06
  6.274898e-02    5.173630e-06
  6.304791e-02    5.185278e-06
  6.334684e-02    5.191416e-06
  6.364577e-02    5.184291e-06
  6.394470e-02    5.203673e-06
  6.424363e-02    5.212625e-06
  6.454256e-02    5.230152e-06
  6.484149e-02    5.248735e-06
  6.514042e-02    5.248567e-06
  6.543935e-02    5.248643e-06
  6.573828e-02    5.252438e-06
  6.603721e-02    5.256720e-06
  6.633614e-02    5.249174e-06
  6.663507e-02    5.272106e-06
  6.693400e-02    5.299340e-06
  6.723293e-02    5.302366e-06
  6.753186e-02    5.309217e-06
  6.783080e-02    5.306614e-06
  6.812973e-02    5.327786e-06
  6.842866e-02    5.343691e-06
  6.872759e-02    5.330570e-06
  6.902652e-02    5.339946e-06
  6.932545e-02    5.368679e-06
  6.962438e-02    5.381558e-06
  6.992331e-02    5.372817e-06
  7.022224e-02    5.383107e-06
  7.052117e-02    5.388982e-06
  7.082010e-02    5.403097e-06
  7.111903e-02    5.396952e-06
  7.141796e-02    5.393526e-06
  7.171689e-02    5.409875e-06
  7.201582e-02    5.434623e-06
  7.231475e-02    5.452745e-06
  7.261368e-02    5.437138e-06
  7.291261e-02    5.448293e-06
  7.321154e-02    5.446012e-06
  7.351047e-02    5.422844e-06
  7.380940e-02    5.440953e-06
  7.410833e-02    5.455575e-06
  7.440726e-02    5.485087e-06
  7.470619e-02    5.486014e-06
  7.500512e-02    5.481703e-06
  7.530405e-02    5.473808e-06
  7.560299e-02    5.467185e-06
  7.590192e-02    5.453148e-06
  7.620085e-02    5.466289e-06
  7.649978e-02    5.482793e-06
  7.679871e-02    5.495777e-06
  7.709764e-02    5.490939e-06
  7.739657e-02    5.479736e-06
  7.769550e-02    5.489559e-06
  7.799443e-02    5.471245e-06
  7.829336e-02    5.483462e-06
  7.859229e-02    5.486757e-06
  7.889122e-02    5.474198e-06
  7.919015e-02    5.465087e-06
  7.948908e-02    5.466569e-06
  7.978801e-02    5.463099e-06
  8.008694e-02    5.454978e-06
  8.038587e-02    5.449249e-06
  8.068480e-02    5.454301e-06
  8.098373e-02    5.455069e-06
  8.128266e-02    5.442605e-06
  8.158159e-02    5.448359e-06
  8.188052e-02    5.440970e-06
  8.217945e-02    5.437744e-06
  8.247838e-02    5.430190e-06
  8.277731e-02    5.434325e-06
  8.307624e-02    5.430329e-06
  8.337518e-02    5.408444e-06
  8.367411e-02    5.415694e-06
  8.397304e-02    5.430363e-06
  8.427197e-02    5.401293e-06
  8.457090e-02    5.398807e-06
  8.486983e-02    5.394306e-06
  8.516876e-02    5.371772e-06
  8.546769e-02    5.364790e-06
  8.576662e-02    5.351710e-06
  8.606555e-02    5.349188e-06
  8.636448e-02    5.358461e-06
  8.666341e-02    5.345546e-06
  8.696234e-02    5.329426e-06
  8.726127e-02    5.338159e-06
  8.756020e-02    5.329201e-06
  8.785913e-02    5.309969e-06
  8.815806e-02    5.302216e-06
  8.845699e-02    5.302121e-06
  8.875592e-02    5.295865e-06
  8.905485e-02    5.277648e-06
  8.935378e-02    5.243828e-06
  8.965271e-02    5.236661e-06
  8.995164e-02    5.235526e-06
  9.025057e-02    5.235508e-06
  9.054950e-02    5.243488e-06
  9.084843e-02    5.217782e-06
  9.114737e-02    5.213759e-06
  9.144630e-02    5.209382e-06
  9.174523e-02    5.190969e-06
  9.204416e-02    5.196872e-06
  9.234309e-02    5.171817e-06
  9.264202e-02    5.183893e-06
  9.294095e-02    5.164365e-06
  9.323988e-02    5.147004e-06
  9.353881e-02    5.139387e-06
  9.383774e-02    5.115412e-06
  9.413667e-02    5.109629e-06
  9.443560e-02    5.111769e-06
  9.473453e-02    5.126858e-06
  9.503346e-02    5.089979e-06
  9.533239e-02    5.061340e-06
  9.563132e-02    5.086119e-06
  9.593025e-02    5.105866e-06
  9.622918e-02    5.113062e-06
  9.652811e-02    5.111463e-06
  9.682704e-02    5.089001e-06
  9.712597e-02    5.081121e-06
  9.742490e-02    5.065015e-06
  9.772383e-02    5.046483e-06
  9.802276e-02    5.010481e-06
  9.832169e-02    4.987023e-06
  9.862062e-02    4.981273e-06
  9.891956e-02    4.980503e-06
  9.921849e-02    4.978576e-06
  9.951742e-02    4.954776e-06
  9.981635e-02    4.937849e-06
  1.001153e-01    4.928242e-06
  1.004142e-01    4.924295e-06
  1.007131e-01    4.910455e-06
  1.010121e-01    4.890429e-06
  1.013110e-01    4.882073e-06
  1.016099e-01    4.889023e-06
  1.019089e-01    4.881719e-06
  1.022078e-01    4.871363e-06
  1.025067e-01    4.855763e-06
  1.028057e-01    4.838052e-06
  1.031046e-01    4.836570e-06
  1.034035e-01    4.824734e-06
  1.037024e-01    4.802715e-06
  1.040014e-01    4.796736e-06
  1.043003e-01    4.786240e-06
  1.045992e-01    4.787108e-06
  1.048982e-01    4.804331e-06
  1.051971e-01    4.793927e-06
  1.054960e-01    4.753201e-06
  1.057950e-01    4.749758e-06
  1.060939e-01    4.748915e-06
  1.063928e-01    4.735346e-06
  1.066917e-01    4.720045e-06
  1.069907e-01    4.708721e-06
  1.072896e-01    4.696640e-06
  1.075885e-01    4.699915e-06
  1.078875e-01    4.712637e-06
  1.081864e-01    4.695142e-06
  1.084853e-01    4.668185e-06
  1.087843e-01    4.648850e-06
  1.090832e-01    4.651367e-06
  1.093821e-01    4.628245e-06
  1.096810e-01    4.601959e-06
  1.099800e-01    4.589216e-06
  1.102789e-01    4.591717e-06
  1.105778e-01    4.590484e-06
  1.108768e-01    4.580638e-06
  1.111757e-01    4.544555e-06
  1.114746e-01    4.523381e-06
  1.117736e-01    4.514422e-06
  1.120725e-01    4.508307e-06
  1.123714e-01    4.502063e-06
  1.126704e-01    4.491894e-06
  1.129693e-01    4.485946e-06
  1.132682e-01    4.483792e-06
  1.135671e-01    4.483511e-06
  1.138661e-01    4.482951e-06
  1.141650e-01    4.455931e-06
  1.144639e-01    4.442414e-06
  1.147629e-01    4.429260e-06
  1.150618e-01    4.431546e-06
  1.153607e-01    4.423230e-06
  1.156597e-01    4.397080e-06
  1.159586e-01    4.413489e-06
  1.162575e-01    4.409194e-06
  1.165564e-01    4.368819e-06
  1.168554e-01    4.366122e-06
  1.171543e-01    4.346161e-06
  1.174532e-01    4.334533e-06
  1.177522e-01    4.323864e-06
  1.180511e-01    4.375119e-06
  1.183500e-01    4.397782e-06
  1.186490e-01    4.406338e-06
  1.189479e-01    4.404494e-06
  1.192468e-01    4.392503e-06
  1.195458e-01    4.342406e-06
  1.198447e-01    4.259208e-06
  1.201436e-01    4.276716e-06
  1.204425e-01    4.195089e-06
  1.207415e-01    3.918058e-06
  1.210404e-01    4.073620e-06
  1.213393e-01    0.000000e+00
  1.216383e-01    0.000000e+00
  1.219372e-01    0.000000e+00
  1.222361e-01    0.000000e+00
  1.225351e-01    0.000000e+00
  1.228340e-01    0.000000e+00
  1.231329e-01    0.000000e+00
  1.234318e-01    0.000000e+00
  1.237308e-01    0.000000e+00
  1.240297e-01    0.000000e+00
  1.243286e-01    0.000000e+00
  1.246276e-01    0.000000e+00
  1.249265e-01    0.000000e+00
  1.252254e-01    0.000000e+00
  1.255244e-01    0.000000e+00
  1.258233e-01    0.000000e+00
  1.261222e-01    0.000000e+00
  1.264212e-01    0.000000e+00
  1.267201e-01    0.000000e+00
  1.270190e-01    0.000000e+00
  1.273179e-01    0.000000e+00
  1.276169e-01    0.000000e+00
  1.279158e-01    0.000000e+00
  1.282147e-01    0.000000e+00
  1.285137e-01    0.000000e+00
  1.288126e-01    0.000000e+00
  1.291115e-01    0.000000e+00
  1.294105e-01    0.000000e+00
  1.297094e-01    0.000000e+00
  1.300083e-01    0.000000e+00
  1.303072e-01    0.000000e+00
  1.306062e-01    0.000000e+00
  1.309051e-01    0.000000e+00
  1.312040e-01    0.000000e+00
  1.315030e-01    0.000000e+00
  1.318019e-01    0.000000e+00
  1.321008e-01    0.000000e+00
  1.323998e-01    0.000000e+00
  1.326987e-01    0.000000e+00
  1.329976e-01    0.000000e+00
  1.332965e-01    0.000000e+00
  1.335955e-01    0.000000e+00
  1.338944e-01    0.000000e+00
  1.341933e-01    0.000000e+00
  1.344923e-01    0.000000e+00
  1.347912e-01    0.000000e+00
  1.350901e-01    0.000000e+00
  1.353891e-01    0.000000e+00
  1.356880e-01    0.000000e+00
  1.359869e-01    0.000000e+00
  1.362859e-01    0.000000e+00
  1.365848e-01    0.000000e+00
  1.368837e-01    0.000000e+00
  1.371826e-01    0.000000e+00
  1.374816e-01    0.000000e+00
  1.377805e-01    0.000000e+00
  1.380794e-01    0.000000e+00
  1.383784e-01    0.000000e+00
  1.386773e-01    0.000000e+00
  1.389762e-01    0.000000e+00
  1.392752e-01    0.000000e+00
  1.395741e-01    0.000000e+00
  1.398730e-01    0.000000e+00
  1.401719e-01    0.000000e+00
  1.404709e-01    0.000000e+00
  1.407698e-01    0.000000e+00
  1.410687e-01    0.000000e+00
  1.413677e-01    0.000000e+00
  1.416666e-01    0.000000e+00
  1.419655e-01    0.000000e+00
  1.422645e-01    0.000000e+00
  1.425634e-01    0.000000e+00
  1.428623e-01    0.000000e+00
  1.431613e-01    0.000000e+00
  1.434602e-01    0.000000e+00
  1.437591e-01    0.000000e+00
  1.440580e-01    0.000000e+00
  1.443570e-01    0.000000e+00
  1.446559e-01    0.000000e+00
  1.449548e-01    0.000000e+00
  1.452538e-01    0.000000e+00
  1.455527e-01    0.000000e+00
  1.458516e-01    0.000000e+00
  1.461506e-01    0.000000e+00
  1.464495e-01    0.000000e+00
  1.467484e-01    0.000000e+00
  1.470473e-01    0.000000e+00
  1.473463e-01    0.000000e+00
  1.476452e-01    0.000000e+00
  1.479441e-01    0.000000e+00
  1.482431e-01    0.000000e+00
  1.485420e-01    0.000000e+00
  1.488409e-01    0.000000e+00
  1.491399e-01    0.000000e+00
  1.494388e-01    0.000000e+00
  1.497377e-01    0.000000e+00
  1.500367e-01    0.000000e+00
  1.503356e-01    0.000000e+00
  1.506345e-01    0.000000e+00
  1.509334e-01    0.000000e+00
  1.512324e-01    0.000000e+00
  1.515313e-01    0.000000e+00
  1.518302e-01    0.000000e+00
  1.521292e-01    0.000000e+00
  1.524281e-01    0.000000e+00
  1.527270e-01    0.000000e+00
  1.530260e-01    0.000000e+00
  1.533249e-01    0.000000e+00
  1.536238e-01    0.000000e+00
