# == pyFAI calibration ==
# Distance Sample to Detector: 2.266 m
# PONI: 5.659e-02, 4.293e-02 m
# Rotations: 0.000000 0.000000 0.000000 rad
# 
# == Fit2d calibration ==
# Distance Sample-beamCenter: 2266.000 mm
# Center: x=249.594, y=329.012 pix
# Tilt: 0.000 deg  TiltPlanRot: 0.000 deg
# 
# Detector Pilatus 300k	 PixelSize= 1.720e-04, 1.720e-04 m
#    Detector has a mask: True 
#    Detector has a dark current: False 
#    detector has a flat field: False 
# 
# Wavelength: 1.27818e-10 m
# Mask applied: user provided
# Dark current applied: False
# Flat field applied: False
# Polarization factor: None
# Normalization factor: 17673485.0
# --> MT-F127_73.810_hexanes_53.776_EtOH_66.408_NaCl_100.000mgml_1_r1d.csv
#        q_A^-1             I 
  4.457554e-03    1.975720e-03
  4.756484e-03    1.546333e-03
  5.055415e-03    1.097888e-03
  5.354345e-03    7.665900e-04
  5.653276e-03    5.869523e-04
  5.952206e-03    9.369180e-04
  6.251136e-03    8.548640e-04
  6.550067e-03    7.405908e-04
  6.848997e-03    6.274897e-04
  7.147927e-03    5.303606e-04
  7.446858e-03    4.533023e-04
  7.745788e-03    3.887789e-04
  8.044719e-03    3.350058e-04
  8.343649e-03    2.916511e-04
  8.642579e-03    2.552264e-04
  8.941510e-03    2.245873e-04
  9.240440e-03    1.988103e-04
  9.539371e-03    1.767213e-04
  9.838301e-03    1.572287e-04
  1.013723e-02    1.406837e-04
  1.043616e-02    1.266408e-04
  1.073509e-02    1.135437e-04
  1.103402e-02    1.028060e-04
  1.133295e-02    9.341066e-05
  1.163188e-02    8.500784e-05
  1.193081e-02    7.773298e-05
  1.222974e-02    7.124439e-05
  1.252867e-02    6.548974e-05
  1.282760e-02    6.017241e-05
  1.312654e-02    5.544494e-05
  1.342547e-02    5.135600e-05
  1.372440e-02    4.766124e-05
  1.402333e-02    4.412354e-05
  1.432226e-02    4.110847e-05
  1.462119e-02    3.824643e-05
  1.492012e-02    3.576482e-05
  1.521905e-02    3.344719e-05
  1.551798e-02    3.140854e-05
  1.581691e-02    2.951456e-05
  1.611584e-02    2.780454e-05
  1.641477e-02    2.629978e-05
  1.671370e-02    2.481133e-05
  1.701263e-02    2.343148e-05
  1.731156e-02    2.230565e-05
  1.761049e-02    2.114859e-05
  1.790942e-02    2.003448e-05
  1.820835e-02    1.912385e-05
  1.850728e-02    1.819987e-05
  1.880621e-02    1.741299e-05
  1.910514e-02    1.666587e-05
  1.940407e-02    1.603658e-05
  1.970300e-02    1.540878e-05
  2.000193e-02    1.477770e-05
  2.030086e-02    1.430259e-05
  2.059979e-02    1.375047e-05
  2.089873e-02    1.318966e-05
  2.119766e-02    1.278157e-05
  2.149659e-02    1.243786e-05
  2.179552e-02    1.209049e-05
  2.209445e-02    1.171080e-05
  2.239338e-02    1.133039e-05
  2.269231e-02    1.101155e-05
  2.299124e-02    1.071438e-05
  2.329017e-02    1.043785e-05
  2.358910e-02    1.020756e-05
  2.388803e-02    9.974524e-06
  2.418696e-02    9.677933e-06
  2.448589e-02    9.483228e-06
  2.478482e-02    9.312854e-06
  2.508375e-02    9.115583e-06
  2.538268e-02    8.929208e-06
  2.568161e-02    8.732930e-06
  2.598054e-02    8.612371e-06
  2.627947e-02    8.444412e-06
  2.657840e-02    8.286715e-06
  2.687733e-02    8.131398e-06
  2.717626e-02    8.009346e-06
  2.747519e-02    7.890154e-06
  2.777412e-02    7.755777e-06
  2.807305e-02    7.685713e-06
  2.837198e-02    7.621138e-06
  2.867092e-02    7.489280e-06
  2.896985e-02    7.367979e-06
  2.926878e-02    7.310608e-06
  2.956771e-02    7.258377e-06
  2.986664e-02    7.156638e-06
  3.016557e-02    7.080004e-06
  3.046450e-02    7.005371e-06
  3.076343e-02    6.956523e-06
  3.106236e-02    6.879077e-06
  3.136129e-02    6.755689e-06
  3.166022e-02    6.705838e-06
  3.195915e-02    6.645682e-06
  3.225808e-02    6.582181e-06
  3.255701e-02    6.550003e-06
  3.285594e-02    6.457382e-06
  3.315487e-02    6.395288e-06
  3.345380e-02    6.361382e-06
  3.375273e-02    6.259674e-06
  3.405166e-02    6.208127e-06
  3.435059e-02    6.191989e-06
  3.464952e-02    6.120682e-06
  3.494845e-02    6.062103e-06
  3.524738e-02    6.058269e-06
  3.554631e-02    6.013908e-06
  3.584524e-02    5.931791e-06
  3.614417e-02    5.877057e-06
  3.644310e-02    5.858374e-06
  3.674204e-02    5.818933e-06
  3.704097e-02    5.735916e-06
  3.733990e-02    5.709982e-06
  3.763883e-02    5.663957e-06
  3.793776e-02    5.606991e-06
  3.823669e-02    5.566965e-06
  3.853562e-02    5.541140e-06
  3.883455e-02    5.518390e-06
  3.913348e-02    5.514795e-06
  3.943241e-02    5.483429e-06
  3.973134e-02    5.462618e-06
  4.003027e-02    5.436099e-06
  4.032920e-02    5.403741e-06
  4.062813e-02    5.358272e-06
  4.092706e-02    5.309490e-06
  4.122599e-02    5.300421e-06
  4.152492e-02    5.320296e-06
  4.182385e-02    5.317584e-06
  4.212278e-02    5.277423e-06
  4.242171e-02    5.219933e-06
  4.272064e-02    5.222679e-06
  4.301957e-02    5.234251e-06
  4.331850e-02    5.201231e-06
  4.361743e-02    5.172141e-06
  4.391636e-02    5.180103e-06
  4.421529e-02    5.168525e-06
  4.451423e-02    5.144057e-06
  4.481316e-02    5.153721e-06
  4.511209e-02    5.148617e-06
  4.541102e-02    5.149031e-06
  4.570995e-02    5.112723e-06
  4.600888e-02    5.074372e-06
  4.630781e-02    5.103752e-06
  4.660674e-02    5.128082e-06
  4.690567e-02    5.111770e-06
  4.720460e-02    5.105845e-06
  4.750353e-02    5.129777e-06
  4.780246e-02    5.128468e-06
  4.810139e-02    5.107609e-06
  4.840032e-02    5.089810e-06
  4.869925e-02    5.095398e-06
  4.899818e-02    5.116039e-06
  4.929711e-02    5.102996e-06
  4.959604e-02    5.082843e-06
  4.989497e-02    5.090863e-06
  5.019390e-02    5.100245e-06
  5.049283e-02    5.094631e-06
  5.079176e-02    5.077466e-06
  5.109069e-02    5.106222e-06
  5.138962e-02    5.138103e-06
  5.168855e-02    5.226965e-06
  5.198748e-02    5.304842e-06
  5.228642e-02    5.257037e-06
  5.258535e-02    5.129704e-06
  5.288428e-02    5.092176e-06
  5.318321e-02    5.073874e-06
  5.348214e-02    5.065891e-06
  5.378107e-02    5.069269e-06
  5.408000e-02    5.079213e-06
  5.437893e-02    5.065825e-06
  5.467786e-02    5.071042e-06
  5.497679e-02    5.059182e-06
  5.527572e-02    5.083335e-06
  5.557465e-02    5.089660e-06
  5.587358e-02    5.104920e-06
  5.617251e-02    5.103915e-06
  5.647144e-02    5.103251e-06
  5.677037e-02    5.094993e-06
  5.706930e-02    5.092878e-06
  5.736823e-02    5.115587e-06
  5.766716e-02    5.125670e-06
  5.796609e-02    5.124270e-06
  5.826502e-02    5.144521e-06
  5.856395e-02    5.144771e-06
  5.886288e-02    5.140047e-06
  5.916181e-02    5.146065e-06
  5.946074e-02    5.153697e-06
  5.975967e-02    5.155314e-06
  6.005861e-02    5.162681e-06
  6.035754e-02    5.198284e-06
  6.065647e-02    5.210601e-06
  6.095540e-02    5.242960e-06
  6.125433e-02    5.300686e-06
  6.155326e-02    5.289553e-06
  6.185219e-02    5.259955e-06
  6.215112e-02    5.242369e-06
  6.245005e-02    5.229037e-06
  6.274898e-02    5.237077e-06
  6.304791e-02    5.246278e-06
  6.334684e-02    5.249417e-06
  6.364577e-02    5.261483e-06
  6.394470e-02    5.247931e-06
  6.424363e-02    5.263235e-06
  6.454256e-02    5.282511e-06
  6.484149e-02    5.307201e-06
  6.514042e-02    5.318690e-06
  6.543935e-02    5.326128e-06
  6.573828e-02    5.332177e-06
  6.603721e-02    5.327432e-06
  6.633614e-02    5.304561e-06
  6.663507e-02    5.335608e-06
  6.693400e-02    5.347637e-06
  6.723293e-02    5.344205e-06
  6.753186e-02    5.354000e-06
  6.783080e-02    5.378912e-06
  6.812973e-02    5.380521e-06
  6.842866e-02    5.385298e-06
  6.872759e-02    5.379193e-06
  6.902652e-02    5.393016e-06
  6.932545e-02    5.406902e-06
  6.962438e-02    5.393813e-06
  6.992331e-02    5.397920e-06
  7.022224e-02    5.396321e-06
  7.052117e-02    5.402799e-06
  7.082010e-02    5.435704e-06
  7.111903e-02    5.440058e-06
  7.141796e-02    5.436323e-06
  7.171689e-02    5.454366e-06
  7.201582e-02    5.462321e-06
  7.231475e-02    5.451229e-06
  7.261368e-02    5.462467e-06
  7.291261e-02    5.462661e-06
  7.321154e-02    5.476732e-06
  7.351047e-02    5.471229e-06
  7.380940e-02    5.465255e-06
  7.410833e-02    5.469295e-06
  7.440726e-02    5.482414e-06
  7.470619e-02    5.465708e-06
  7.500512e-02    5.458731e-06
  7.530405e-02    5.470195e-06
  7.560299e-02    5.480528e-06
  7.590192e-02    5.490419e-06
  7.620085e-02    5.482589e-06
  7.649978e-02    5.466698e-06
  7.679871e-02    5.457786e-06
  7.709764e-02    5.477235e-06
  7.739657e-02    5.484139e-06
  7.769550e-02    5.470565e-06
  7.799443e-02    5.478781e-06
  7.829336e-02    5.479284e-06
  7.859229e-02    5.472734e-06
  7.889122e-02    5.456893e-06
  7.919015e-02    5.448678e-06
  7.948908e-02    5.440701e-06
  7.978801e-02    5.452058e-06
  8.008694e-02    5.455408e-06
  8.038587e-02    5.453299e-06
  8.068480e-02    5.435530e-06
  8.098373e-02    5.437664e-06
  8.128266e-02    5.431128e-06
  8.158159e-02    5.425029e-06
  8.188052e-02    5.407105e-06
  8.217945e-02    5.403319e-06
  8.247838e-02    5.402043e-06
  8.277731e-02    5.398607e-06
  8.307624e-02    5.387864e-06
  8.337518e-02    5.376593e-06
  8.367411e-02    5.365010e-06
  8.397304e-02    5.371294e-06
  8.427197e-02    5.379846e-06
  8.457090e-02    5.359993e-06
  8.486983e-02    5.354042e-06
  8.516876e-02    5.340330e-06
  8.546769e-02    5.323181e-06
  8.576662e-02    5.322789e-06
  8.606555e-02    5.324541e-06
  8.636448e-02    5.323609e-06
  8.666341e-02    5.306455e-06
  8.696234e-02    5.298466e-06
  8.726127e-02    5.266920e-06
  8.756020e-02    5.249618e-06
  8.785913e-02    5.251969e-06
  8.815806e-02    5.262308e-06
  8.845699e-02    5.235810e-06
  8.875592e-02    5.239845e-06
  8.905485e-02    5.216161e-06
  8.935378e-02    5.209461e-06
  8.965271e-02    5.217990e-06
  8.995164e-02    5.209534e-06
  9.025057e-02    5.206097e-06
  9.054950e-02    5.186829e-06
  9.084843e-02    5.174110e-06
  9.114737e-02    5.153961e-06
  9.144630e-02    5.128163e-06
  9.174523e-02    5.132817e-06
  9.204416e-02    5.141582e-06
  9.234309e-02    5.144589e-06
  9.264202e-02    5.119557e-06
  9.294095e-02    5.086461e-06
  9.323988e-02    5.087165e-06
  9.353881e-02    5.075015e-06
  9.383774e-02    5.063368e-06
  9.413667e-02    5.062367e-06
  9.443560e-02    5.065690e-06
  9.473453e-02    5.043081e-06
  9.503346e-02    5.034348e-06
  9.533239e-02    5.047503e-06
  9.563132e-02    5.033107e-06
  9.593025e-02    5.026765e-06
  9.622918e-02    5.041587e-06
  9.652811e-02    5.048775e-06
  9.682704e-02    5.049440e-06
  9.712597e-02    5.028823e-06
  9.742490e-02    5.012071e-06
  9.772383e-02    4.991614e-06
  9.802276e-02    4.986312e-06
  9.832169e-02    4.961425e-06
  9.862062e-02    4.953647e-06
  9.891956e-02    4.926900e-06
  9.921849e-02    4.913016e-06
  9.951742e-02    4.920996e-06
  9.981635e-02    4.900137e-06
  1.001153e-01    4.862161e-06
  1.004142e-01    4.840339e-06
  1.007131e-01    4.862779e-06
  1.010121e-01    4.848774e-06
  1.013110e-01    4.850770e-06
  1.016099e-01    4.836699e-06
  1.019089e-01    4.835841e-06
  1.022078e-01    4.812571e-06
  1.025067e-01    4.785375e-06
  1.028057e-01    4.789383e-06
  1.031046e-01    4.784098e-06
  1.034035e-01    4.789732e-06
  1.037024e-01    4.789983e-06
  1.040014e-01    4.776442e-06
  1.043003e-01    4.752299e-06
  1.045992e-01    4.723796e-06
  1.048982e-01    4.726628e-06
  1.051971e-01    4.723816e-06
  1.054960e-01    4.694704e-06
  1.057950e-01    4.680654e-06
  1.060939e-01    4.678819e-06
  1.063928e-01    4.679586e-06
  1.066917e-01    4.673806e-06
  1.069907e-01    4.652422e-06
  1.072896e-01    4.639377e-06
  1.075885e-01    4.643879e-06
  1.078875e-01    4.640022e-06
  1.081864e-01    4.629743e-06
  1.084853e-01    4.634288e-06
  1.087843e-01    4.634282e-06
  1.090832e-01    4.617805e-06
  1.093821e-01    4.601374e-06
  1.096810e-01    4.594377e-06
  1.099800e-01    4.585398e-06
  1.102789e-01    4.584449e-06
  1.105778e-01    4.568024e-06
  1.108768e-01    4.532151e-06
  1.111757e-01    4.513009e-06
  1.114746e-01    4.478286e-06
  1.117736e-01    4.470989e-06
  1.120725e-01    4.492774e-06
  1.123714e-01    4.486918e-06
  1.126704e-01    4.473717e-06
  1.129693e-01    4.453507e-06
  1.132682e-01    4.428920e-06
  1.135671e-01    4.452514e-06
  1.138661e-01    4.436628e-06
  1.141650e-01    4.405003e-06
  1.144639e-01    4.400187e-06
  1.147629e-01    4.384734e-06
  1.150618e-01    4.363648e-06
  1.153607e-01    4.377667e-06
  1.156597e-01    4.351741e-06
  1.159586e-01    4.367212e-06
  1.162575e-01    4.352872e-06
  1.165564e-01    4.327424e-06
  1.168554e-01    4.331277e-06
  1.171543e-01    4.360372e-06
  1.174532e-01    4.344527e-06
  1.177522e-01    4.348071e-06
  1.180511e-01    4.369976e-06
  1.183500e-01    4.345944e-06
  1.186490e-01    4.309617e-06
  1.189479e-01    4.293031e-06
  1.192468e-01    4.280575e-06
  1.195458e-01    4.293378e-06
  1.198447e-01    4.314194e-06
  1.201436e-01    4.236776e-06
  1.204425e-01    4.159307e-06
  1.207415e-01    4.252118e-06
  1.210404e-01    4.870455e-06
  1.213393e-01    0.000000e+00
  1.216383e-01    0.000000e+00
  1.219372e-01    0.000000e+00
  1.222361e-01    0.000000e+00
  1.225351e-01    0.000000e+00
  1.228340e-01    0.000000e+00
  1.231329e-01    0.000000e+00
  1.234318e-01    0.000000e+00
  1.237308e-01    0.000000e+00
  1.240297e-01    0.000000e+00
  1.243286e-01    0.000000e+00
  1.246276e-01    0.000000e+00
  1.249265e-01    0.000000e+00
  1.252254e-01    0.000000e+00
  1.255244e-01    0.000000e+00
  1.258233e-01    0.000000e+00
  1.261222e-01    0.000000e+00
  1.264212e-01    0.000000e+00
  1.267201e-01    0.000000e+00
  1.270190e-01    0.000000e+00
  1.273179e-01    0.000000e+00
  1.276169e-01    0.000000e+00
  1.279158e-01    0.000000e+00
  1.282147e-01    0.000000e+00
  1.285137e-01    0.000000e+00
  1.288126e-01    0.000000e+00
  1.291115e-01    0.000000e+00
  1.294105e-01    0.000000e+00
  1.297094e-01    0.000000e+00
  1.300083e-01    0.000000e+00
  1.303072e-01    0.000000e+00
  1.306062e-01    0.000000e+00
  1.309051e-01    0.000000e+00
  1.312040e-01    0.000000e+00
  1.315030e-01    0.000000e+00
  1.318019e-01    0.000000e+00
  1.321008e-01    0.000000e+00
  1.323998e-01    0.000000e+00
  1.326987e-01    0.000000e+00
  1.329976e-01    0.000000e+00
  1.332965e-01    0.000000e+00
  1.335955e-01    0.000000e+00
  1.338944e-01    0.000000e+00
  1.341933e-01    0.000000e+00
  1.344923e-01    0.000000e+00
  1.347912e-01    0.000000e+00
  1.350901e-01    0.000000e+00
  1.353891e-01    0.000000e+00
  1.356880e-01    0.000000e+00
  1.359869e-01    0.000000e+00
  1.362859e-01    0.000000e+00
  1.365848e-01    0.000000e+00
  1.368837e-01    0.000000e+00
  1.371826e-01    0.000000e+00
  1.374816e-01    0.000000e+00
  1.377805e-01    0.000000e+00
  1.380794e-01    0.000000e+00
  1.383784e-01    0.000000e+00
  1.386773e-01    0.000000e+00
  1.389762e-01    0.000000e+00
  1.392752e-01    0.000000e+00
  1.395741e-01    0.000000e+00
  1.398730e-01    0.000000e+00
  1.401719e-01    0.000000e+00
  1.404709e-01    0.000000e+00
  1.407698e-01    0.000000e+00
  1.410687e-01    0.000000e+00
  1.413677e-01    0.000000e+00
  1.416666e-01    0.000000e+00
  1.419655e-01    0.000000e+00
  1.422645e-01    0.000000e+00
  1.425634e-01    0.000000e+00
  1.428623e-01    0.000000e+00
  1.431613e-01    0.000000e+00
  1.434602e-01    0.000000e+00
  1.437591e-01    0.000000e+00
  1.440580e-01    0.000000e+00
  1.443570e-01    0.000000e+00
  1.446559e-01    0.000000e+00
  1.449548e-01    0.000000e+00
  1.452538e-01    0.000000e+00
  1.455527e-01    0.000000e+00
  1.458516e-01    0.000000e+00
  1.461506e-01    0.000000e+00
  1.464495e-01    0.000000e+00
  1.467484e-01    0.000000e+00
  1.470473e-01    0.000000e+00
  1.473463e-01    0.000000e+00
  1.476452e-01    0.000000e+00
  1.479441e-01    0.000000e+00
  1.482431e-01    0.000000e+00
  1.485420e-01    0.000000e+00
  1.488409e-01    0.000000e+00
  1.491399e-01    0.000000e+00
  1.494388e-01    0.000000e+00
  1.497377e-01    0.000000e+00
  1.500367e-01    0.000000e+00
  1.503356e-01    0.000000e+00
  1.506345e-01    0.000000e+00
  1.509334e-01    0.000000e+00
  1.512324e-01    0.000000e+00
  1.515313e-01    0.000000e+00
  1.518302e-01    0.000000e+00
  1.521292e-01    0.000000e+00
  1.524281e-01    0.000000e+00
  1.527270e-01    0.000000e+00
  1.530260e-01    0.000000e+00
  1.533249e-01    0.000000e+00
  1.536238e-01    0.000000e+00
