# == pyFAI calibration ==
# Distance Sample to Detector: 2.266 m
# PONI: 5.659e-02, 4.293e-02 m
# Rotations: 0.000000 0.000000 0.000000 rad
# 
# == Fit2d calibration ==
# Distance Sample-beamCenter: 2266.000 mm
# Center: x=249.594, y=329.012 pix
# Tilt: 0.000 deg  TiltPlanRot: 0.000 deg
# 
# Detector Pilatus 300k	 PixelSize= 1.720e-04, 1.720e-04 m
#    Detector has a mask: True 
#    Detector has a dark current: False 
#    detector has a flat field: False 
# 
# Wavelength: 1.27818e-10 m
# Mask applied: user provided
# Dark current applied: False
# Flat field applied: False
# Polarization factor: None
# Normalization factor: 25361528.0
# --> MT-F127_179.693_hexanes_3.594_EtOH_37.322_NaCl_100.000mgml_1_r1d.csv
#        q_A^-1             I 
  4.457554e-03    1.814960e-03
  4.756484e-03    1.441285e-03
  5.055415e-03    1.049104e-03
  5.354345e-03    7.624130e-04
  5.653276e-03    6.076070e-04
  5.952206e-03    1.018335e-03
  6.251136e-03    9.201695e-04
  6.550067e-03    7.893366e-04
  6.848997e-03    6.642250e-04
  7.147927e-03    5.592116e-04
  7.446858e-03    4.768888e-04
  7.745788e-03    4.090358e-04
  8.044719e-03    3.533047e-04
  8.343649e-03    3.079510e-04
  8.642579e-03    2.696320e-04
  8.941510e-03    2.380671e-04
  9.240440e-03    2.106277e-04
  9.539371e-03    1.869096e-04
  9.838301e-03    1.665363e-04
  1.013723e-02    1.492316e-04
  1.043616e-02    1.342582e-04
  1.073509e-02    1.206211e-04
  1.103402e-02    1.093319e-04
  1.133295e-02    9.917880e-05
  1.163188e-02    9.034500e-05
  1.193081e-02    8.253714e-05
  1.222974e-02    7.561028e-05
  1.252867e-02    6.938511e-05
  1.282760e-02    6.374755e-05
  1.312654e-02    5.899635e-05
  1.342547e-02    5.449425e-05
  1.372440e-02    5.037330e-05
  1.402333e-02    4.672567e-05
  1.432226e-02    4.343230e-05
  1.462119e-02    4.060103e-05
  1.492012e-02    3.803473e-05
  1.521905e-02    3.552673e-05
  1.551798e-02    3.336517e-05
  1.581691e-02    3.133794e-05
  1.611584e-02    2.944477e-05
  1.641477e-02    2.785690e-05
  1.671370e-02    2.632671e-05
  1.701263e-02    2.482956e-05
  1.731156e-02    2.343082e-05
  1.761049e-02    2.226916e-05
  1.790942e-02    2.119499e-05
  1.820835e-02    2.018109e-05
  1.850728e-02    1.929000e-05
  1.880621e-02    1.841124e-05
  1.910514e-02    1.760451e-05
  1.940407e-02    1.691772e-05
  1.970300e-02    1.625620e-05
  2.000193e-02    1.555144e-05
  2.030086e-02    1.491270e-05
  2.059979e-02    1.430433e-05
  2.089873e-02    1.385029e-05
  2.119766e-02    1.341972e-05
  2.149659e-02    1.297496e-05
  2.179552e-02    1.257135e-05
  2.209445e-02    1.220329e-05
  2.239338e-02    1.181900e-05
  2.269231e-02    1.145053e-05
  2.299124e-02    1.114618e-05
  2.329017e-02    1.086416e-05
  2.358910e-02    1.059067e-05
  2.388803e-02    1.030255e-05
  2.418696e-02    1.003341e-05
  2.448589e-02    9.798709e-06
  2.478482e-02    9.603978e-06
  2.508375e-02    9.412980e-06
  2.538268e-02    9.219171e-06
  2.568161e-02    9.067350e-06
  2.598054e-02    8.879765e-06
  2.627947e-02    8.698972e-06
  2.657840e-02    8.536592e-06
  2.687733e-02    8.395174e-06
  2.717626e-02    8.285971e-06
  2.747519e-02    8.128967e-06
  2.777412e-02    8.010689e-06
  2.807305e-02    7.911191e-06
  2.837198e-02    7.813300e-06
  2.867092e-02    7.745273e-06
  2.896985e-02    7.624498e-06
  2.926878e-02    7.512608e-06
  2.956771e-02    7.418488e-06
  2.986664e-02    7.376693e-06
  3.016557e-02    7.266550e-06
  3.046450e-02    7.168070e-06
  3.076343e-02    7.074568e-06
  3.106236e-02    7.000561e-06
  3.136129e-02    6.943860e-06
  3.166022e-02    6.864751e-06
  3.195915e-02    6.777904e-06
  3.225808e-02    6.724925e-06
  3.255701e-02    6.677411e-06
  3.285594e-02    6.596047e-06
  3.315487e-02    6.532211e-06
  3.345380e-02    6.491616e-06
  3.375273e-02    6.436380e-06
  3.405166e-02    6.367027e-06
  3.435059e-02    6.300134e-06
  3.464952e-02    6.245976e-06
  3.494845e-02    6.237716e-06
  3.524738e-02    6.195068e-06
  3.554631e-02    6.145774e-06
  3.584524e-02    6.102867e-06
  3.614417e-02    6.017126e-06
  3.644310e-02    5.991129e-06
  3.674204e-02    5.952596e-06
  3.704097e-02    5.904660e-06
  3.733990e-02    5.862880e-06
  3.763883e-02    5.826569e-06
  3.793776e-02    5.796714e-06
  3.823669e-02    5.774059e-06
  3.853562e-02    5.739352e-06
  3.883455e-02    5.688245e-06
  3.913348e-02    5.652456e-06
  3.943241e-02    5.639603e-06
  3.973134e-02    5.598040e-06
  4.003027e-02    5.575800e-06
  4.032920e-02    5.551274e-06
  4.062813e-02    5.528507e-06
  4.092706e-02    5.525400e-06
  4.122599e-02    5.518273e-06
  4.152492e-02    5.467463e-06
  4.182385e-02    5.443687e-06
  4.212278e-02    5.443448e-06
  4.242171e-02    5.390014e-06
  4.272064e-02    5.377819e-06
  4.301957e-02    5.376141e-06
  4.331850e-02    5.380370e-06
  4.361743e-02    5.375771e-06
  4.391636e-02    5.351122e-06
  4.421529e-02    5.341706e-06
  4.451423e-02    5.329792e-06
  4.481316e-02    5.316784e-06
  4.511209e-02    5.321457e-06
  4.541102e-02    5.300771e-06
  4.570995e-02    5.302818e-06
  4.600888e-02    5.307750e-06
  4.630781e-02    5.290354e-06
  4.660674e-02    5.288069e-06
  4.690567e-02    5.257080e-06
  4.720460e-02    5.254208e-06
  4.750353e-02    5.283863e-06
  4.780246e-02    5.283487e-06
  4.810139e-02    5.271468e-06
  4.840032e-02    5.284312e-06
  4.869925e-02    5.280601e-06
  4.899818e-02    5.248073e-06
  4.929711e-02    5.235974e-06
  4.959604e-02    5.238016e-06
  4.989497e-02    5.253833e-06
  5.019390e-02    5.253353e-06
  5.049283e-02    5.249899e-06
  5.079176e-02    5.263662e-06
  5.109069e-02    5.274289e-06
  5.138962e-02    5.320023e-06
  5.168855e-02    5.362656e-06
  5.198748e-02    5.428386e-06
  5.228642e-02    5.415532e-06
  5.258535e-02    5.313339e-06
  5.288428e-02    5.264425e-06
  5.318321e-02    5.242514e-06
  5.348214e-02    5.249909e-06
  5.378107e-02    5.257331e-06
  5.408000e-02    5.269578e-06
  5.437893e-02    5.254163e-06
  5.467786e-02    5.261822e-06
  5.497679e-02    5.286185e-06
  5.527572e-02    5.308584e-06
  5.557465e-02    5.284252e-06
  5.587358e-02    5.270845e-06
  5.617251e-02    5.299818e-06
  5.647144e-02    5.331841e-06
  5.677037e-02    5.331768e-06
  5.706930e-02    5.320325e-06
  5.736823e-02    5.304079e-06
  5.766716e-02    5.304593e-06
  5.796609e-02    5.317626e-06
  5.826502e-02    5.324488e-06
  5.856395e-02    5.354212e-06
  5.886288e-02    5.359238e-06
  5.916181e-02    5.359808e-06
  5.946074e-02    5.376773e-06
  5.975967e-02    5.383076e-06
  6.005861e-02    5.385119e-06
  6.035754e-02    5.396093e-06
  6.065647e-02    5.403492e-06
  6.095540e-02    5.458277e-06
  6.125433e-02    5.514283e-06
  6.155326e-02    5.514866e-06
  6.185219e-02    5.457766e-06
  6.215112e-02    5.443810e-06
  6.245005e-02    5.452924e-06
  6.274898e-02    5.456071e-06
  6.304791e-02    5.445012e-06
  6.334684e-02    5.464862e-06
  6.364577e-02    5.478988e-06
  6.394470e-02    5.472636e-06
  6.424363e-02    5.483878e-06
  6.454256e-02    5.505417e-06
  6.484149e-02    5.517179e-06
  6.514042e-02    5.500757e-06
  6.543935e-02    5.511867e-06
  6.573828e-02    5.528534e-06
  6.603721e-02    5.536770e-06
  6.633614e-02    5.542046e-06
  6.663507e-02    5.550243e-06
  6.693400e-02    5.568129e-06
  6.723293e-02    5.595713e-06
  6.753186e-02    5.585538e-06
  6.783080e-02    5.580392e-06
  6.812973e-02    5.588444e-06
  6.842866e-02    5.618682e-06
  6.872759e-02    5.617329e-06
  6.902652e-02    5.616609e-06
  6.932545e-02    5.617074e-06
  6.962438e-02    5.643263e-06
  6.992331e-02    5.641158e-06
  7.022224e-02    5.646225e-06
  7.052117e-02    5.639799e-06
  7.082010e-02    5.641060e-06
  7.111903e-02    5.638515e-06
  7.141796e-02    5.660159e-06
  7.171689e-02    5.665690e-06
  7.201582e-02    5.678031e-06
  7.231475e-02    5.687617e-06
  7.261368e-02    5.688663e-06
  7.291261e-02    5.698691e-06
  7.321154e-02    5.716720e-06
  7.351047e-02    5.714186e-06
  7.380940e-02    5.710105e-06
  7.410833e-02    5.720070e-06
  7.440726e-02    5.709118e-06
  7.470619e-02    5.704579e-06
  7.500512e-02    5.705999e-06
  7.530405e-02    5.694152e-06
  7.560299e-02    5.706328e-06
  7.590192e-02    5.710082e-06
  7.620085e-02    5.707921e-06
  7.649978e-02    5.713615e-06
  7.679871e-02    5.702548e-06
  7.709764e-02    5.683175e-06
  7.739657e-02    5.688929e-06
  7.769550e-02    5.697138e-06
  7.799443e-02    5.700042e-06
  7.829336e-02    5.686011e-06
  7.859229e-02    5.702161e-06
  7.889122e-02    5.695671e-06
  7.919015e-02    5.680247e-06
  7.948908e-02    5.687866e-06
  7.978801e-02    5.695462e-06
  8.008694e-02    5.683047e-06
  8.038587e-02    5.693064e-06
  8.068480e-02    5.691612e-06
  8.098373e-02    5.671922e-06
  8.128266e-02    5.658517e-06
  8.158159e-02    5.664333e-06
  8.188052e-02    5.646548e-06
  8.217945e-02    5.624904e-06
  8.247838e-02    5.616865e-06
  8.277731e-02    5.633410e-06
  8.307624e-02    5.634981e-06
  8.337518e-02    5.622916e-06
  8.367411e-02    5.602682e-06
  8.397304e-02    5.583001e-06
  8.427197e-02    5.587627e-06
  8.457090e-02    5.588129e-06
  8.486983e-02    5.586768e-06
  8.516876e-02    5.581227e-06
  8.546769e-02    5.573227e-06
  8.576662e-02    5.542469e-06
  8.606555e-02    5.547970e-06
  8.636448e-02    5.562435e-06
  8.666341e-02    5.560489e-06
  8.696234e-02    5.545460e-06
  8.726127e-02    5.525320e-06
  8.756020e-02    5.517966e-06
  8.785913e-02    5.480298e-06
  8.815806e-02    5.460163e-06
  8.845699e-02    5.473997e-06
  8.875592e-02    5.477151e-06
  8.905485e-02    5.458511e-06
  8.935378e-02    5.434948e-06
  8.965271e-02    5.436463e-06
  8.995164e-02    5.450696e-06
  9.025057e-02    5.432435e-06
  9.054950e-02    5.418998e-06
  9.084843e-02    5.397951e-06
  9.114737e-02    5.382129e-06
  9.144630e-02    5.379926e-06
  9.174523e-02    5.384730e-06
  9.204416e-02    5.358228e-06
  9.234309e-02    5.361421e-06
  9.264202e-02    5.354704e-06
  9.294095e-02    5.319062e-06
  9.323988e-02    5.307159e-06
  9.353881e-02    5.302892e-06
  9.383774e-02    5.307452e-06
  9.413667e-02    5.300912e-06
  9.443560e-02    5.291276e-06
  9.473453e-02    5.280750e-06
  9.503346e-02    5.267389e-06
  9.533239e-02    5.257511e-06
  9.563132e-02    5.251958e-06
  9.593025e-02    5.249289e-06
  9.622918e-02    5.242619e-06
  9.652811e-02    5.236336e-06
  9.682704e-02    5.242779e-06
  9.712597e-02    5.255898e-06
  9.742490e-02    5.242026e-06
  9.772383e-02    5.225304e-06
  9.802276e-02    5.185545e-06
  9.832169e-02    5.160844e-06
  9.862062e-02    5.152755e-06
  9.891956e-02    5.151334e-06
  9.921849e-02    5.148673e-06
  9.951742e-02    5.139568e-06
  9.981635e-02    5.120014e-06
  1.001153e-01    5.095676e-06
  1.004142e-01    5.116378e-06
  1.007131e-01    5.107617e-06
  1.010121e-01    5.098978e-06
  1.013110e-01    5.086839e-06
  1.016099e-01    5.069302e-06
  1.019089e-01    5.054027e-06
  1.022078e-01    5.034030e-06
  1.025067e-01    5.006353e-06
  1.028057e-01    5.005775e-06
  1.031046e-01    5.003871e-06
  1.034035e-01    5.004624e-06
  1.037024e-01    4.999272e-06
  1.040014e-01    4.983052e-06
  1.043003e-01    4.976986e-06
  1.045992e-01    4.966394e-06
  1.048982e-01    4.942260e-06
  1.051971e-01    4.920394e-06
  1.054960e-01    4.917132e-06
  1.057950e-01    4.915055e-06
  1.060939e-01    4.925879e-06
  1.063928e-01    4.911662e-06
  1.066917e-01    4.897033e-06
  1.069907e-01    4.888595e-06
  1.072896e-01    4.861432e-06
  1.075885e-01    4.844428e-06
  1.078875e-01    4.841491e-06
  1.081864e-01    4.828936e-06
  1.084853e-01    4.828610e-06
  1.087843e-01    4.853568e-06
  1.090832e-01    4.831889e-06
  1.093821e-01    4.800524e-06
  1.096810e-01    4.787917e-06
  1.099800e-01    4.789788e-06
  1.102789e-01    4.773436e-06
  1.105778e-01    4.742808e-06
  1.108768e-01    4.738156e-06
  1.111757e-01    4.719130e-06
  1.114746e-01    4.691007e-06
  1.117736e-01    4.689999e-06
  1.120725e-01    4.684578e-06
  1.123714e-01    4.649888e-06
  1.126704e-01    4.664386e-06
  1.129693e-01    4.660253e-06
  1.132682e-01    4.643188e-06
  1.135671e-01    4.605354e-06
  1.138661e-01    4.602114e-06
  1.141650e-01    4.621836e-06
  1.144639e-01    4.603834e-06
  1.147629e-01    4.572085e-06
  1.150618e-01    4.566479e-06
  1.153607e-01    4.571610e-06
  1.156597e-01    4.591832e-06
  1.159586e-01    4.589162e-06
  1.162575e-01    4.535199e-06
  1.165564e-01    4.523960e-06
  1.168554e-01    4.540387e-06
  1.171543e-01    4.512043e-06
  1.174532e-01    4.508909e-06
  1.177522e-01    4.512248e-06
  1.180511e-01    4.483133e-06
  1.183500e-01    4.504621e-06
  1.186490e-01    4.530329e-06
  1.189479e-01    4.526083e-06
  1.192468e-01    4.511499e-06
  1.195458e-01    4.483703e-06
  1.198447e-01    4.450285e-06
  1.201436e-01    4.474045e-06
  1.204425e-01    4.515020e-06
  1.207415e-01    4.320412e-06
  1.210404e-01    4.499069e-06
  1.213393e-01    0.000000e+00
  1.216383e-01    0.000000e+00
  1.219372e-01    0.000000e+00
  1.222361e-01    0.000000e+00
  1.225351e-01    0.000000e+00
  1.228340e-01    0.000000e+00
  1.231329e-01    0.000000e+00
  1.234318e-01    0.000000e+00
  1.237308e-01    0.000000e+00
  1.240297e-01    0.000000e+00
  1.243286e-01    0.000000e+00
  1.246276e-01    0.000000e+00
  1.249265e-01    0.000000e+00
  1.252254e-01    0.000000e+00
  1.255244e-01    0.000000e+00
  1.258233e-01    0.000000e+00
  1.261222e-01    0.000000e+00
  1.264212e-01    0.000000e+00
  1.267201e-01    0.000000e+00
  1.270190e-01    0.000000e+00
  1.273179e-01    0.000000e+00
  1.276169e-01    0.000000e+00
  1.279158e-01    0.000000e+00
  1.282147e-01    0.000000e+00
  1.285137e-01    0.000000e+00
  1.288126e-01    0.000000e+00
  1.291115e-01    0.000000e+00
  1.294105e-01    0.000000e+00
  1.297094e-01    0.000000e+00
  1.300083e-01    0.000000e+00
  1.303072e-01    0.000000e+00
  1.306062e-01    0.000000e+00
  1.309051e-01    0.000000e+00
  1.312040e-01    0.000000e+00
  1.315030e-01    0.000000e+00
  1.318019e-01    0.000000e+00
  1.321008e-01    0.000000e+00
  1.323998e-01    0.000000e+00
  1.326987e-01    0.000000e+00
  1.329976e-01    0.000000e+00
  1.332965e-01    0.000000e+00
  1.335955e-01    0.000000e+00
  1.338944e-01    0.000000e+00
  1.341933e-01    0.000000e+00
  1.344923e-01    0.000000e+00
  1.347912e-01    0.000000e+00
  1.350901e-01    0.000000e+00
  1.353891e-01    0.000000e+00
  1.356880e-01    0.000000e+00
  1.359869e-01    0.000000e+00
  1.362859e-01    0.000000e+00
  1.365848e-01    0.000000e+00
  1.368837e-01    0.000000e+00
  1.371826e-01    0.000000e+00
  1.374816e-01    0.000000e+00
  1.377805e-01    0.000000e+00
  1.380794e-01    0.000000e+00
  1.383784e-01    0.000000e+00
  1.386773e-01    0.000000e+00
  1.389762e-01    0.000000e+00
  1.392752e-01    0.000000e+00
  1.395741e-01    0.000000e+00
  1.398730e-01    0.000000e+00
  1.401719e-01    0.000000e+00
  1.404709e-01    0.000000e+00
  1.407698e-01    0.000000e+00
  1.410687e-01    0.000000e+00
  1.413677e-01    0.000000e+00
  1.416666e-01    0.000000e+00
  1.419655e-01    0.000000e+00
  1.422645e-01    0.000000e+00
  1.425634e-01    0.000000e+00
  1.428623e-01    0.000000e+00
  1.431613e-01    0.000000e+00
  1.434602e-01    0.000000e+00
  1.437591e-01    0.000000e+00
  1.440580e-01    0.000000e+00
  1.443570e-01    0.000000e+00
  1.446559e-01    0.000000e+00
  1.449548e-01    0.000000e+00
  1.452538e-01    0.000000e+00
  1.455527e-01    0.000000e+00
  1.458516e-01    0.000000e+00
  1.461506e-01    0.000000e+00
  1.464495e-01    0.000000e+00
  1.467484e-01    0.000000e+00
  1.470473e-01    0.000000e+00
  1.473463e-01    0.000000e+00
  1.476452e-01    0.000000e+00
  1.479441e-01    0.000000e+00
  1.482431e-01    0.000000e+00
  1.485420e-01    0.000000e+00
  1.488409e-01    0.000000e+00
  1.491399e-01    0.000000e+00
  1.494388e-01    0.000000e+00
  1.497377e-01    0.000000e+00
  1.500367e-01    0.000000e+00
  1.503356e-01    0.000000e+00
  1.506345e-01    0.000000e+00
  1.509334e-01    0.000000e+00
  1.512324e-01    0.000000e+00
  1.515313e-01    0.000000e+00
  1.518302e-01    0.000000e+00
  1.521292e-01    0.000000e+00
  1.524281e-01    0.000000e+00
  1.527270e-01    0.000000e+00
  1.530260e-01    0.000000e+00
  1.533249e-01    0.000000e+00
  1.536238e-01    0.000000e+00
