# == pyFAI calibration ==
# Distance Sample to Detector: 2.266 m
# PONI: 5.659e-02, 4.293e-02 m
# Rotations: 0.000000 0.000000 0.000000 rad
# 
# == Fit2d calibration ==
# Distance Sample-beamCenter: 2266.000 mm
# Center: x=249.594, y=329.012 pix
# Tilt: 0.000 deg  TiltPlanRot: 0.000 deg
# 
# Detector Pilatus 300k	 PixelSize= 1.720e-04, 1.720e-04 m
#    Detector has a mask: True 
#    Detector has a dark current: False 
#    detector has a flat field: False 
# 
# Wavelength: 1.27818e-10 m
# Mask applied: user provided
# Dark current applied: False
# Flat field applied: False
# Polarization factor: None
# Normalization factor: 29653203.0
# --> MT-F127_76.801_NaCl_52.364_limonene_36.306mgml_1_r1d.csv
#        q_A^-1             I 
  4.457554e-03    1.751499e-03
  4.756484e-03    1.390751e-03
  5.055415e-03    1.015411e-03
  5.354345e-03    7.377564e-04
  5.653276e-03    5.864961e-04
  5.952206e-03    9.669558e-04
  6.251136e-03    8.693913e-04
  6.550067e-03    7.408633e-04
  6.848997e-03    6.205921e-04
  7.147927e-03    5.214785e-04
  7.446858e-03    4.444465e-04
  7.745788e-03    3.812592e-04
  8.044719e-03    3.286142e-04
  8.343649e-03    2.867854e-04
  8.642579e-03    2.509792e-04
  8.941510e-03    2.210514e-04
  9.240440e-03    1.958641e-04
  9.539371e-03    1.738150e-04
  9.838301e-03    1.543700e-04
  1.013723e-02    1.384957e-04
  1.043616e-02    1.245888e-04
  1.073509e-02    1.120421e-04
  1.103402e-02    1.013302e-04
  1.133295e-02    9.197513e-05
  1.163188e-02    8.374916e-05
  1.193081e-02    7.660003e-05
  1.222974e-02    7.018704e-05
  1.252867e-02    6.442644e-05
  1.282760e-02    5.923642e-05
  1.312654e-02    5.454397e-05
  1.342547e-02    5.052213e-05
  1.372440e-02    4.688568e-05
  1.402333e-02    4.359468e-05
  1.432226e-02    4.052001e-05
  1.462119e-02    3.767711e-05
  1.492012e-02    3.514781e-05
  1.521905e-02    3.293114e-05
  1.551798e-02    3.097599e-05
  1.581691e-02    2.905318e-05
  1.611584e-02    2.737074e-05
  1.641477e-02    2.584913e-05
  1.671370e-02    2.438949e-05
  1.701263e-02    2.315716e-05
  1.731156e-02    2.195431e-05
  1.761049e-02    2.081170e-05
  1.790942e-02    1.977553e-05
  1.820835e-02    1.887281e-05
  1.850728e-02    1.804986e-05
  1.880621e-02    1.717864e-05
  1.910514e-02    1.643445e-05
  1.940407e-02    1.581034e-05
  1.970300e-02    1.515379e-05
  2.000193e-02    1.451097e-05
  2.030086e-02    1.399887e-05
  2.059979e-02    1.354858e-05
  2.089873e-02    1.309627e-05
  2.119766e-02    1.262691e-05
  2.149659e-02    1.221346e-05
  2.179552e-02    1.180020e-05
  2.209445e-02    1.143395e-05
  2.239338e-02    1.110257e-05
  2.269231e-02    1.078411e-05
  2.299124e-02    1.051309e-05
  2.329017e-02    1.022542e-05
  2.358910e-02    9.944797e-06
  2.388803e-02    9.740297e-06
  2.418696e-02    9.525665e-06
  2.448589e-02    9.324893e-06
  2.478482e-02    9.141430e-06
  2.508375e-02    8.928479e-06
  2.538268e-02    8.744214e-06
  2.568161e-02    8.581834e-06
  2.598054e-02    8.409130e-06
  2.627947e-02    8.258494e-06
  2.657840e-02    8.116273e-06
  2.687733e-02    7.980222e-06
  2.717626e-02    7.857094e-06
  2.747519e-02    7.747069e-06
  2.777412e-02    7.612538e-06
  2.807305e-02    7.494866e-06
  2.837198e-02    7.397244e-06
  2.867092e-02    7.341112e-06
  2.896985e-02    7.246806e-06
  2.926878e-02    7.138618e-06
  2.956771e-02    7.018758e-06
  2.986664e-02    6.949373e-06
  3.016557e-02    6.888959e-06
  3.046450e-02    6.800316e-06
  3.076343e-02    6.724494e-06
  3.106236e-02    6.661904e-06
  3.136129e-02    6.600398e-06
  3.166022e-02    6.551186e-06
  3.195915e-02    6.495623e-06
  3.225808e-02    6.439225e-06
  3.255701e-02    6.374960e-06
  3.285594e-02    6.306212e-06
  3.315487e-02    6.243716e-06
  3.345380e-02    6.199885e-06
  3.375273e-02    6.161769e-06
  3.405166e-02    6.095905e-06
  3.435059e-02    6.015113e-06
  3.464952e-02    5.984958e-06
  3.494845e-02    5.993950e-06
  3.524738e-02    5.947164e-06
  3.554631e-02    5.872922e-06
  3.584524e-02    5.823046e-06
  3.614417e-02    5.776255e-06
  3.644310e-02    5.731561e-06
  3.674204e-02    5.707169e-06
  3.704097e-02    5.662605e-06
  3.733990e-02    5.624864e-06
  3.763883e-02    5.591779e-06
  3.793776e-02    5.557635e-06
  3.823669e-02    5.544569e-06
  3.853562e-02    5.494408e-06
  3.883455e-02    5.475652e-06
  3.913348e-02    5.446156e-06
  3.943241e-02    5.414749e-06
  3.973134e-02    5.389730e-06
  4.003027e-02    5.380431e-06
  4.032920e-02    5.362615e-06
  4.062813e-02    5.336925e-06
  4.092706e-02    5.292576e-06
  4.122599e-02    5.274577e-06
  4.152492e-02    5.266519e-06
  4.182385e-02    5.245080e-06
  4.212278e-02    5.244136e-06
  4.242171e-02    5.235733e-06
  4.272064e-02    5.212456e-06
  4.301957e-02    5.207098e-06
  4.331850e-02    5.183135e-06
  4.361743e-02    5.172143e-06
  4.391636e-02    5.159227e-06
  4.421529e-02    5.152384e-06
  4.451423e-02    5.162258e-06
  4.481316e-02    5.128589e-06
  4.511209e-02    5.117724e-06
  4.541102e-02    5.107565e-06
  4.570995e-02    5.100821e-06
  4.600888e-02    5.105654e-06
  4.630781e-02    5.099003e-06
  4.660674e-02    5.104927e-06
  4.690567e-02    5.108170e-06
  4.720460e-02    5.107217e-06
  4.750353e-02    5.096473e-06
  4.780246e-02    5.090126e-06
  4.810139e-02    5.096457e-06
  4.840032e-02    5.101694e-06
  4.869925e-02    5.102089e-06
  4.899818e-02    5.106465e-06
  4.929711e-02    5.099886e-06
  4.959604e-02    5.123808e-06
  4.989497e-02    5.115116e-06
  5.019390e-02    5.107096e-06
  5.049283e-02    5.099698e-06
  5.079176e-02    5.111589e-06
  5.109069e-02    5.149561e-06
  5.138962e-02    5.152701e-06
  5.168855e-02    5.208945e-06
  5.198748e-02    5.245729e-06
  5.228642e-02    5.196536e-06
  5.258535e-02    5.129211e-06
  5.288428e-02    5.104138e-06
  5.318321e-02    5.122612e-06
  5.348214e-02    5.133276e-06
  5.378107e-02    5.125511e-06
  5.408000e-02    5.133580e-06
  5.437893e-02    5.136852e-06
  5.467786e-02    5.120734e-06
  5.497679e-02    5.120817e-06
  5.527572e-02    5.132166e-06
  5.557465e-02    5.144147e-06
  5.587358e-02    5.156941e-06
  5.617251e-02    5.158559e-06
  5.647144e-02    5.149355e-06
  5.677037e-02    5.144211e-06
  5.706930e-02    5.171713e-06
  5.736823e-02    5.176163e-06
  5.766716e-02    5.165099e-06
  5.796609e-02    5.185841e-06
  5.826502e-02    5.189534e-06
  5.856395e-02    5.197373e-06
  5.886288e-02    5.200240e-06
  5.916181e-02    5.205649e-06
  5.946074e-02    5.209615e-06
  5.975967e-02    5.232880e-06
  6.005861e-02    5.242917e-06
  6.035754e-02    5.263073e-06
  6.065647e-02    5.271279e-06
  6.095540e-02    5.294230e-06
  6.125433e-02    5.355905e-06
  6.155326e-02    5.374619e-06
  6.185219e-02    5.326984e-06
  6.215112e-02    5.310253e-06
  6.245005e-02    5.319616e-06
  6.274898e-02    5.310332e-06
  6.304791e-02    5.321353e-06
  6.334684e-02    5.321766e-06
  6.364577e-02    5.329523e-06
  6.394470e-02    5.347531e-06
  6.424363e-02    5.366137e-06
  6.454256e-02    5.371248e-06
  6.484149e-02    5.366202e-06
  6.514042e-02    5.362802e-06
  6.543935e-02    5.386299e-06
  6.573828e-02    5.395303e-06
  6.603721e-02    5.407711e-06
  6.633614e-02    5.409348e-06
  6.663507e-02    5.398345e-06
  6.693400e-02    5.409571e-06
  6.723293e-02    5.439973e-06
  6.753186e-02    5.466070e-06
  6.783080e-02    5.454169e-06
  6.812973e-02    5.450972e-06
  6.842866e-02    5.463753e-06
  6.872759e-02    5.461630e-06
  6.902652e-02    5.469366e-06
  6.932545e-02    5.494713e-06
  6.962438e-02    5.506268e-06
  6.992331e-02    5.501983e-06
  7.022224e-02    5.506295e-06
  7.052117e-02    5.506366e-06
  7.082010e-02    5.506205e-06
  7.111903e-02    5.507261e-06
  7.141796e-02    5.520244e-06
  7.171689e-02    5.536282e-06
  7.201582e-02    5.537868e-06
  7.231475e-02    5.536009e-06
  7.261368e-02    5.535611e-06
  7.291261e-02    5.539811e-06
  7.321154e-02    5.567847e-06
  7.351047e-02    5.571255e-06
  7.380940e-02    5.571887e-06
  7.410833e-02    5.571208e-06
  7.440726e-02    5.552217e-06
  7.470619e-02    5.554010e-06
  7.500512e-02    5.561595e-06
  7.530405e-02    5.568401e-06
  7.560299e-02    5.579203e-06
  7.590192e-02    5.564548e-06
  7.620085e-02    5.570997e-06
  7.649978e-02    5.574042e-06
  7.679871e-02    5.569813e-06
  7.709764e-02    5.579474e-06
  7.739657e-02    5.569774e-06
  7.769550e-02    5.566503e-06
  7.799443e-02    5.556131e-06
  7.829336e-02    5.557782e-06
  7.859229e-02    5.564802e-06
  7.889122e-02    5.562422e-06
  7.919015e-02    5.545077e-06
  7.948908e-02    5.539798e-06
  7.978801e-02    5.552296e-06
  8.008694e-02    5.560211e-06
  8.038587e-02    5.538349e-06
  8.068480e-02    5.530231e-06
  8.098373e-02    5.522837e-06
  8.128266e-02    5.527989e-06
  8.158159e-02    5.515256e-06
  8.188052e-02    5.508643e-06
  8.217945e-02    5.501185e-06
  8.247838e-02    5.511769e-06
  8.277731e-02    5.499017e-06
  8.307624e-02    5.490287e-06
  8.337518e-02    5.494479e-06
  8.367411e-02    5.494012e-06
  8.397304e-02    5.487980e-06
  8.427197e-02    5.482230e-06
  8.457090e-02    5.471857e-06
  8.486983e-02    5.472252e-06
  8.516876e-02    5.464132e-06
  8.546769e-02    5.438197e-06
  8.576662e-02    5.423542e-06
  8.606555e-02    5.424979e-06
  8.636448e-02    5.419750e-06
  8.666341e-02    5.415948e-06
  8.696234e-02    5.401693e-06
  8.726127e-02    5.394512e-06
  8.756020e-02    5.400359e-06
  8.785913e-02    5.386374e-06
  8.815806e-02    5.364953e-06
  8.845699e-02    5.349586e-06
  8.875592e-02    5.351817e-06
  8.905485e-02    5.349262e-06
  8.935378e-02    5.333006e-06
  8.965271e-02    5.319166e-06
  8.995164e-02    5.315940e-06
  9.025057e-02    5.323275e-06
  9.054950e-02    5.308815e-06
  9.084843e-02    5.283333e-06
  9.114737e-02    5.280833e-06
  9.144630e-02    5.266471e-06
  9.174523e-02    5.260958e-06
  9.204416e-02    5.256958e-06
  9.234309e-02    5.249345e-06
  9.264202e-02    5.233912e-06
  9.294095e-02    5.215416e-06
  9.323988e-02    5.211211e-06
  9.353881e-02    5.198849e-06
  9.383774e-02    5.195335e-06
  9.413667e-02    5.183599e-06
  9.443560e-02    5.174089e-06
  9.473453e-02    5.150580e-06
  9.503346e-02    5.130392e-06
  9.533239e-02    5.160153e-06
  9.563132e-02    5.158584e-06
  9.593025e-02    5.141295e-06
  9.622918e-02    5.139152e-06
  9.652811e-02    5.137081e-06
  9.682704e-02    5.146920e-06
  9.712597e-02    5.135214e-06
  9.742490e-02    5.114315e-06
  9.772383e-02    5.111863e-06
  9.802276e-02    5.084861e-06
  9.832169e-02    5.058314e-06
  9.862062e-02    5.039708e-06
  9.891956e-02    5.030850e-06
  9.921849e-02    5.030960e-06
  9.951742e-02    5.023753e-06
  9.981635e-02    4.994617e-06
  1.001153e-01    4.986691e-06
  1.004142e-01    4.984199e-06
  1.007131e-01    4.967533e-06
  1.010121e-01    4.946121e-06
  1.013110e-01    4.940649e-06
  1.016099e-01    4.933671e-06
  1.019089e-01    4.913536e-06
  1.022078e-01    4.911379e-06
  1.025067e-01    4.914945e-06
  1.028057e-01    4.913919e-06
  1.031046e-01    4.903563e-06
  1.034035e-01    4.889173e-06
  1.037024e-01    4.879146e-06
  1.040014e-01    4.870774e-06
  1.043003e-01    4.861226e-06
  1.045992e-01    4.855830e-06
  1.048982e-01    4.854760e-06
  1.051971e-01    4.837729e-06
  1.054960e-01    4.812138e-06
  1.057950e-01    4.804019e-06
  1.060939e-01    4.798131e-06
  1.063928e-01    4.789409e-06
  1.066917e-01    4.779173e-06
  1.069907e-01    4.772093e-06
  1.072896e-01    4.764808e-06
  1.075885e-01    4.754334e-06
  1.078875e-01    4.752846e-06
  1.081864e-01    4.749257e-06
  1.084853e-01    4.745174e-06
  1.087843e-01    4.713021e-06
  1.090832e-01    4.708569e-06
  1.093821e-01    4.706569e-06
  1.096810e-01    4.687758e-06
  1.099800e-01    4.660413e-06
  1.102789e-01    4.638355e-06
  1.105778e-01    4.630255e-06
  1.108768e-01    4.613195e-06
  1.111757e-01    4.600338e-06
  1.114746e-01    4.604774e-06
  1.117736e-01    4.613501e-06
  1.120725e-01    4.594322e-06
  1.123714e-01    4.567271e-06
  1.126704e-01    4.557429e-06
  1.129693e-01    4.524580e-06
  1.132682e-01    4.504226e-06
  1.135671e-01    4.493540e-06
  1.138661e-01    4.495476e-06
  1.141650e-01    4.520240e-06
  1.144639e-01    4.546273e-06
  1.147629e-01    4.535819e-06
  1.150618e-01    4.503142e-06
  1.153607e-01    4.471733e-06
  1.156597e-01    4.473460e-06
  1.159586e-01    4.494672e-06
  1.162575e-01    4.490281e-06
  1.165564e-01    4.490001e-06
  1.168554e-01    4.478076e-06
  1.171543e-01    4.440290e-06
  1.174532e-01    4.427049e-06
  1.177522e-01    4.433427e-06
  1.180511e-01    4.443712e-06
  1.183500e-01    4.442738e-06
  1.186490e-01    4.424623e-06
  1.189479e-01    4.410331e-06
  1.192468e-01    4.408443e-06
  1.195458e-01    4.410355e-06
  1.198447e-01    4.424094e-06
  1.201436e-01    4.375566e-06
  1.204425e-01    4.287208e-06
  1.207415e-01    4.096158e-06
  1.210404e-01    3.982939e-06
  1.213393e-01    0.000000e+00
  1.216383e-01    0.000000e+00
  1.219372e-01    0.000000e+00
  1.222361e-01    0.000000e+00
  1.225351e-01    0.000000e+00
  1.228340e-01    0.000000e+00
  1.231329e-01    0.000000e+00
  1.234318e-01    0.000000e+00
  1.237308e-01    0.000000e+00
  1.240297e-01    0.000000e+00
  1.243286e-01    0.000000e+00
  1.246276e-01    0.000000e+00
  1.249265e-01    0.000000e+00
  1.252254e-01    0.000000e+00
  1.255244e-01    0.000000e+00
  1.258233e-01    0.000000e+00
  1.261222e-01    0.000000e+00
  1.264212e-01    0.000000e+00
  1.267201e-01    0.000000e+00
  1.270190e-01    0.000000e+00
  1.273179e-01    0.000000e+00
  1.276169e-01    0.000000e+00
  1.279158e-01    0.000000e+00
  1.282147e-01    0.000000e+00
  1.285137e-01    0.000000e+00
  1.288126e-01    0.000000e+00
  1.291115e-01    0.000000e+00
  1.294105e-01    0.000000e+00
  1.297094e-01    0.000000e+00
  1.300083e-01    0.000000e+00
  1.303072e-01    0.000000e+00
  1.306062e-01    0.000000e+00
  1.309051e-01    0.000000e+00
  1.312040e-01    0.000000e+00
  1.315030e-01    0.000000e+00
  1.318019e-01    0.000000e+00
  1.321008e-01    0.000000e+00
  1.323998e-01    0.000000e+00
  1.326987e-01    0.000000e+00
  1.329976e-01    0.000000e+00
  1.332965e-01    0.000000e+00
  1.335955e-01    0.000000e+00
  1.338944e-01    0.000000e+00
  1.341933e-01    0.000000e+00
  1.344923e-01    0.000000e+00
  1.347912e-01    0.000000e+00
  1.350901e-01    0.000000e+00
  1.353891e-01    0.000000e+00
  1.356880e-01    0.000000e+00
  1.359869e-01    0.000000e+00
  1.362859e-01    0.000000e+00
  1.365848e-01    0.000000e+00
  1.368837e-01    0.000000e+00
  1.371826e-01    0.000000e+00
  1.374816e-01    0.000000e+00
  1.377805e-01    0.000000e+00
  1.380794e-01    0.000000e+00
  1.383784e-01    0.000000e+00
  1.386773e-01    0.000000e+00
  1.389762e-01    0.000000e+00
  1.392752e-01    0.000000e+00
  1.395741e-01    0.000000e+00
  1.398730e-01    0.000000e+00
  1.401719e-01    0.000000e+00
  1.404709e-01    0.000000e+00
  1.407698e-01    0.000000e+00
  1.410687e-01    0.000000e+00
  1.413677e-01    0.000000e+00
  1.416666e-01    0.000000e+00
  1.419655e-01    0.000000e+00
  1.422645e-01    0.000000e+00
  1.425634e-01    0.000000e+00
  1.428623e-01    0.000000e+00
  1.431613e-01    0.000000e+00
  1.434602e-01    0.000000e+00
  1.437591e-01    0.000000e+00
  1.440580e-01    0.000000e+00
  1.443570e-01    0.000000e+00
  1.446559e-01    0.000000e+00
  1.449548e-01    0.000000e+00
  1.452538e-01    0.000000e+00
  1.455527e-01    0.000000e+00
  1.458516e-01    0.000000e+00
  1.461506e-01    0.000000e+00
  1.464495e-01    0.000000e+00
  1.467484e-01    0.000000e+00
  1.470473e-01    0.000000e+00
  1.473463e-01    0.000000e+00
  1.476452e-01    0.000000e+00
  1.479441e-01    0.000000e+00
  1.482431e-01    0.000000e+00
  1.485420e-01    0.000000e+00
  1.488409e-01    0.000000e+00
  1.491399e-01    0.000000e+00
  1.494388e-01    0.000000e+00
  1.497377e-01    0.000000e+00
  1.500367e-01    0.000000e+00
  1.503356e-01    0.000000e+00
  1.506345e-01    0.000000e+00
  1.509334e-01    0.000000e+00
  1.512324e-01    0.000000e+00
  1.515313e-01    0.000000e+00
  1.518302e-01    0.000000e+00
  1.521292e-01    0.000000e+00
  1.524281e-01    0.000000e+00
  1.527270e-01    0.000000e+00
  1.530260e-01    0.000000e+00
  1.533249e-01    0.000000e+00
  1.536238e-01    0.000000e+00
