# == pyFAI calibration ==
# Distance Sample to Detector: 2.266 m
# PONI: 5.659e-02, 4.293e-02 m
# Rotations: 0.000000 0.000000 0.000000 rad
# 
# == Fit2d calibration ==
# Distance Sample-beamCenter: 2266.000 mm
# Center: x=249.594, y=329.012 pix
# Tilt: 0.000 deg  TiltPlanRot: 0.000 deg
# 
# Detector Pilatus 300k	 PixelSize= 1.720e-04, 1.720e-04 m
#    Detector has a mask: True 
#    Detector has a dark current: False 
#    detector has a flat field: False 
# 
# Wavelength: 1.27818e-10 m
# Mask applied: user provided
# Dark current applied: False
# Flat field applied: False
# Polarization factor: None
# Normalization factor: 29528809.599999994
# --> MT-F127_136.144_NaCl_93.599_limonene_187.198mgml_0_r1d.csv
#        q_A^-1             I 
  4.457554e-03    1.570901e-03
  4.756484e-03    1.250187e-03
  5.055415e-03    9.079004e-04
  5.354345e-03    6.575451e-04
  5.653276e-03    5.194974e-04
  5.952206e-03    8.520351e-04
  6.251136e-03    7.706950e-04
  6.550067e-03    6.617943e-04
  6.848997e-03    5.587809e-04
  7.147927e-03    4.712606e-04
  7.446858e-03    4.022079e-04
  7.745788e-03    3.454957e-04
  8.044719e-03    2.982734e-04
  8.343649e-03    2.604248e-04
  8.642579e-03    2.281283e-04
  8.941510e-03    2.010719e-04
  9.240440e-03    1.779175e-04
  9.539371e-03    1.582349e-04
  9.838301e-03    1.410229e-04
  1.013723e-02    1.265823e-04
  1.043616e-02    1.141867e-04
  1.073509e-02    1.027720e-04
  1.103402e-02    9.316968e-05
  1.133295e-02    8.457253e-05
  1.163188e-02    7.701404e-05
  1.193081e-02    7.035194e-05
  1.222974e-02    6.449297e-05
  1.252867e-02    5.927351e-05
  1.282760e-02    5.461327e-05
  1.312654e-02    5.048154e-05
  1.342547e-02    4.658427e-05
  1.372440e-02    4.322185e-05
  1.402333e-02    4.016927e-05
  1.432226e-02    3.733595e-05
  1.462119e-02    3.485437e-05
  1.492012e-02    3.262442e-05
  1.521905e-02    3.052082e-05
  1.551798e-02    2.869376e-05
  1.581691e-02    2.703308e-05
  1.611584e-02    2.551994e-05
  1.641477e-02    2.404487e-05
  1.671370e-02    2.272135e-05
  1.701263e-02    2.152135e-05
  1.731156e-02    2.039589e-05
  1.761049e-02    1.937301e-05
  1.790942e-02    1.849517e-05
  1.820835e-02    1.753546e-05
  1.850728e-02    1.675964e-05
  1.880621e-02    1.604834e-05
  1.910514e-02    1.535341e-05
  1.940407e-02    1.467450e-05
  1.970300e-02    1.408084e-05
  2.000193e-02    1.355058e-05
  2.030086e-02    1.305114e-05
  2.059979e-02    1.257320e-05
  2.089873e-02    1.214790e-05
  2.119766e-02    1.175269e-05
  2.149659e-02    1.136409e-05
  2.179552e-02    1.102947e-05
  2.209445e-02    1.071538e-05
  2.239338e-02    1.040112e-05
  2.269231e-02    1.012947e-05
  2.299124e-02    9.853251e-06
  2.329017e-02    9.536373e-06
  2.358910e-02    9.280659e-06
  2.388803e-02    9.091694e-06
  2.418696e-02    8.879077e-06
  2.448589e-02    8.693316e-06
  2.478482e-02    8.481241e-06
  2.508375e-02    8.259794e-06
  2.538268e-02    8.102699e-06
  2.568161e-02    7.960174e-06
  2.598054e-02    7.807164e-06
  2.627947e-02    7.706720e-06
  2.657840e-02    7.563418e-06
  2.687733e-02    7.403017e-06
  2.717626e-02    7.260408e-06
  2.747519e-02    7.162156e-06
  2.777412e-02    7.037812e-06
  2.807305e-02    6.950806e-06
  2.837198e-02    6.890607e-06
  2.867092e-02    6.766008e-06
  2.896985e-02    6.657194e-06
  2.926878e-02    6.587428e-06
  2.956771e-02    6.512033e-06
  2.986664e-02    6.415876e-06
  3.016557e-02    6.327196e-06
  3.046450e-02    6.266846e-06
  3.076343e-02    6.203877e-06
  3.106236e-02    6.165014e-06
  3.136129e-02    6.091346e-06
  3.166022e-02    5.999387e-06
  3.195915e-02    5.971443e-06
  3.225808e-02    5.904201e-06
  3.255701e-02    5.845576e-06
  3.285594e-02    5.795189e-06
  3.315487e-02    5.715297e-06
  3.345380e-02    5.651662e-06
  3.375273e-02    5.634114e-06
  3.405166e-02    5.596879e-06
  3.435059e-02    5.500217e-06
  3.464952e-02    5.466607e-06
  3.494845e-02    5.463537e-06
  3.524738e-02    5.424171e-06
  3.554631e-02    5.366902e-06
  3.584524e-02    5.322779e-06
  3.614417e-02    5.280404e-06
  3.644310e-02    5.261726e-06
  3.674204e-02    5.205087e-06
  3.704097e-02    5.158481e-06
  3.733990e-02    5.144630e-06
  3.763883e-02    5.097871e-06
  3.793776e-02    5.059140e-06
  3.823669e-02    5.043835e-06
  3.853562e-02    5.011610e-06
  3.883455e-02    4.982435e-06
  3.913348e-02    4.959843e-06
  3.943241e-02    4.929910e-06
  3.973134e-02    4.908987e-06
  4.003027e-02    4.869029e-06
  4.032920e-02    4.841151e-06
  4.062813e-02    4.803509e-06
  4.092706e-02    4.786543e-06
  4.122599e-02    4.755018e-06
  4.152492e-02    4.741168e-06
  4.182385e-02    4.754915e-06
  4.212278e-02    4.735800e-06
  4.242171e-02    4.703762e-06
  4.272064e-02    4.711515e-06
  4.301957e-02    4.684804e-06
  4.331850e-02    4.635549e-06
  4.361743e-02    4.639551e-06
  4.391636e-02    4.635285e-06
  4.421529e-02    4.612871e-06
  4.451423e-02    4.608340e-06
  4.481316e-02    4.622857e-06
  4.511209e-02    4.622853e-06
  4.541102e-02    4.616301e-06
  4.570995e-02    4.584278e-06
  4.600888e-02    4.581014e-06
  4.630781e-02    4.583040e-06
  4.660674e-02    4.565175e-06
  4.690567e-02    4.575418e-06
  4.720460e-02    4.584787e-06
  4.750353e-02    4.576772e-06
  4.780246e-02    4.556390e-06
  4.810139e-02    4.543115e-06
  4.840032e-02    4.537754e-06
  4.869925e-02    4.550244e-06
  4.899818e-02    4.551258e-06
  4.929711e-02    4.530514e-06
  4.959604e-02    4.533978e-06
  4.989497e-02    4.526648e-06
  5.019390e-02    4.539694e-06
  5.049283e-02    4.542410e-06
  5.079176e-02    4.543100e-06
  5.109069e-02    4.553997e-06
  5.138962e-02    4.578786e-06
  5.168855e-02    4.622557e-06
  5.198748e-02    4.664623e-06
  5.228642e-02    4.642494e-06
  5.258535e-02    4.556765e-06
  5.288428e-02    4.523818e-06
  5.318321e-02    4.543560e-06
  5.348214e-02    4.541663e-06
  5.378107e-02    4.531868e-06
  5.408000e-02    4.538060e-06
  5.437893e-02    4.545327e-06
  5.467786e-02    4.544227e-06
  5.497679e-02    4.541714e-06
  5.527572e-02    4.558499e-06
  5.557465e-02    4.551021e-06
  5.587358e-02    4.545217e-06
  5.617251e-02    4.551696e-06
  5.647144e-02    4.540466e-06
  5.677037e-02    4.538220e-06
  5.706930e-02    4.547238e-06
  5.736823e-02    4.549197e-06
  5.766716e-02    4.569831e-06
  5.796609e-02    4.573384e-06
  5.826502e-02    4.579384e-06
  5.856395e-02    4.593019e-06
  5.886288e-02    4.590105e-06
  5.916181e-02    4.582291e-06
  5.946074e-02    4.597555e-06
  5.975967e-02    4.618249e-06
  6.005861e-02    4.620772e-06
  6.035754e-02    4.618182e-06
  6.065647e-02    4.621134e-06
  6.095540e-02    4.667979e-06
  6.125433e-02    4.713619e-06
  6.155326e-02    4.727246e-06
  6.185219e-02    4.684363e-06
  6.215112e-02    4.656071e-06
  6.245005e-02    4.640162e-06
  6.274898e-02    4.657665e-06
  6.304791e-02    4.678510e-06
  6.334684e-02    4.663998e-06
  6.364577e-02    4.671232e-06
  6.394470e-02    4.677823e-06
  6.424363e-02    4.695993e-06
  6.454256e-02    4.694165e-06
  6.484149e-02    4.693240e-06
  6.514042e-02    4.698050e-06
  6.543935e-02    4.700363e-06
  6.573828e-02    4.714986e-06
  6.603721e-02    4.732450e-06
  6.633614e-02    4.738552e-06
  6.663507e-02    4.726433e-06
  6.693400e-02    4.744428e-06
  6.723293e-02    4.758234e-06
  6.753186e-02    4.752827e-06
  6.783080e-02    4.740461e-06
  6.812973e-02    4.752238e-06
  6.842866e-02    4.756322e-06
  6.872759e-02    4.763215e-06
  6.902652e-02    4.774599e-06
  6.932545e-02    4.792606e-06
  6.962438e-02    4.807669e-06
  6.992331e-02    4.804674e-06
  7.022224e-02    4.800432e-06
  7.052117e-02    4.787394e-06
  7.082010e-02    4.794575e-06
  7.111903e-02    4.808872e-06
  7.141796e-02    4.814327e-06
  7.171689e-02    4.812664e-06
  7.201582e-02    4.818893e-06
  7.231475e-02    4.820276e-06
  7.261368e-02    4.822706e-06
  7.291261e-02    4.830530e-06
  7.321154e-02    4.839400e-06
  7.351047e-02    4.840190e-06
  7.380940e-02    4.828960e-06
  7.410833e-02    4.827020e-06
  7.440726e-02    4.828628e-06
  7.470619e-02    4.828663e-06
  7.500512e-02    4.826704e-06
  7.530405e-02    4.828110e-06
  7.560299e-02    4.842327e-06
  7.590192e-02    4.850940e-06
  7.620085e-02    4.825246e-06
  7.649978e-02    4.809626e-06
  7.679871e-02    4.811222e-06
  7.709764e-02    4.832577e-06
  7.739657e-02    4.835048e-06
  7.769550e-02    4.829525e-06
  7.799443e-02    4.838130e-06
  7.829336e-02    4.836351e-06
  7.859229e-02    4.821220e-06
  7.889122e-02    4.816855e-06
  7.919015e-02    4.819326e-06
  7.948908e-02    4.819673e-06
  7.978801e-02    4.814935e-06
  8.008694e-02    4.815240e-06
  8.038587e-02    4.813063e-06
  8.068480e-02    4.786335e-06
  8.098373e-02    4.781989e-06
  8.128266e-02    4.778594e-06
  8.158159e-02    4.783512e-06
  8.188052e-02    4.776577e-06
  8.217945e-02    4.776706e-06
  8.247838e-02    4.768304e-06
  8.277731e-02    4.758751e-06
  8.307624e-02    4.764328e-06
  8.337518e-02    4.771068e-06
  8.367411e-02    4.765489e-06
  8.397304e-02    4.746673e-06
  8.427197e-02    4.725457e-06
  8.457090e-02    4.726169e-06
  8.486983e-02    4.717609e-06
  8.516876e-02    4.723723e-06
  8.546769e-02    4.717017e-06
  8.576662e-02    4.716295e-06
  8.606555e-02    4.709400e-06
  8.636448e-02    4.691221e-06
  8.666341e-02    4.691524e-06
  8.696234e-02    4.698310e-06
  8.726127e-02    4.665500e-06
  8.756020e-02    4.651963e-06
  8.785913e-02    4.651691e-06
  8.815806e-02    4.661475e-06
  8.845699e-02    4.658697e-06
  8.875592e-02    4.643828e-06
  8.905485e-02    4.633293e-06
  8.935378e-02    4.622858e-06
  8.965271e-02    4.603174e-06
  8.995164e-02    4.596876e-06
  9.025057e-02    4.606392e-06
  9.054950e-02    4.594508e-06
  9.084843e-02    4.592565e-06
  9.114737e-02    4.591809e-06
  9.144630e-02    4.572862e-06
  9.174523e-02    4.555899e-06
  9.204416e-02    4.550699e-06
  9.234309e-02    4.546157e-06
  9.264202e-02    4.542807e-06
  9.294095e-02    4.529611e-06
  9.323988e-02    4.528644e-06
  9.353881e-02    4.528327e-06
  9.383774e-02    4.515503e-06
  9.413667e-02    4.495058e-06
  9.443560e-02    4.501282e-06
  9.473453e-02    4.488096e-06
  9.503346e-02    4.488133e-06
  9.533239e-02    4.476688e-06
  9.563132e-02    4.473061e-06
  9.593025e-02    4.474512e-06
  9.622918e-02    4.479397e-06
  9.652811e-02    4.475412e-06
  9.682704e-02    4.463979e-06
  9.712597e-02    4.462673e-06
  9.742490e-02    4.453293e-06
  9.772383e-02    4.433472e-06
  9.802276e-02    4.432372e-06
  9.832169e-02    4.405405e-06
  9.862062e-02    4.387184e-06
  9.891956e-02    4.385588e-06
  9.921849e-02    4.392607e-06
  9.951742e-02    4.373599e-06
  9.981635e-02    4.348525e-06
  1.001153e-01    4.327933e-06
  1.004142e-01    4.325746e-06
  1.007131e-01    4.327148e-06
  1.010121e-01    4.324862e-06
  1.013110e-01    4.313317e-06
  1.016099e-01    4.299724e-06
  1.019089e-01    4.296016e-06
  1.022078e-01    4.285608e-06
  1.025067e-01    4.282012e-06
  1.028057e-01    4.277770e-06
  1.031046e-01    4.252116e-06
  1.034035e-01    4.253558e-06
  1.037024e-01    4.257081e-06
  1.040014e-01    4.237437e-06
  1.043003e-01    4.233062e-06
  1.045992e-01    4.226653e-06
  1.048982e-01    4.214829e-06
  1.051971e-01    4.201350e-06
  1.054960e-01    4.196107e-06
  1.057950e-01    4.199704e-06
  1.060939e-01    4.196085e-06
  1.063928e-01    4.179142e-06
  1.066917e-01    4.167040e-06
  1.069907e-01    4.155684e-06
  1.072896e-01    4.145086e-06
  1.075885e-01    4.127116e-06
  1.078875e-01    4.115889e-06
  1.081864e-01    4.133052e-06
  1.084853e-01    4.123532e-06
  1.087843e-01    4.113609e-06
  1.090832e-01    4.103384e-06
  1.093821e-01    4.101033e-06
  1.096810e-01    4.098195e-06
  1.099800e-01    4.081780e-06
  1.102789e-01    4.070850e-06
  1.105778e-01    4.062385e-06
  1.108768e-01    4.029104e-06
  1.111757e-01    4.004045e-06
  1.114746e-01    3.986315e-06
  1.117736e-01    3.995752e-06
  1.120725e-01    3.989549e-06
  1.123714e-01    3.988817e-06
  1.126704e-01    3.979629e-06
  1.129693e-01    3.961271e-06
  1.132682e-01    3.951993e-06
  1.135671e-01    3.932740e-06
  1.138661e-01    3.937757e-06
  1.141650e-01    3.946815e-06
  1.144639e-01    3.941962e-06
  1.147629e-01    3.936211e-06
  1.150618e-01    3.901520e-06
  1.153607e-01    3.876288e-06
  1.156597e-01    3.928238e-06
  1.159586e-01    3.932872e-06
  1.162575e-01    3.896088e-06
  1.165564e-01    3.885831e-06
  1.168554e-01    3.872849e-06
  1.171543e-01    3.841662e-06
  1.174532e-01    3.867086e-06
  1.177522e-01    3.864608e-06
  1.180511e-01    3.850022e-06
  1.183500e-01    3.863571e-06
  1.186490e-01    3.886049e-06
  1.189479e-01    3.870389e-06
  1.192468e-01    3.872890e-06
  1.195458e-01    3.875996e-06
  1.198447e-01    3.834995e-06
  1.201436e-01    3.826238e-06
  1.204425e-01    3.846872e-06
  1.207415e-01    3.709579e-06
  1.210404e-01    3.389591e-06
  1.213393e-01    0.000000e+00
  1.216383e-01    0.000000e+00
  1.219372e-01    0.000000e+00
  1.222361e-01    0.000000e+00
  1.225351e-01    0.000000e+00
  1.228340e-01    0.000000e+00
  1.231329e-01    0.000000e+00
  1.234318e-01    0.000000e+00
  1.237308e-01    0.000000e+00
  1.240297e-01    0.000000e+00
  1.243286e-01    0.000000e+00
  1.246276e-01    0.000000e+00
  1.249265e-01    0.000000e+00
  1.252254e-01    0.000000e+00
  1.255244e-01    0.000000e+00
  1.258233e-01    0.000000e+00
  1.261222e-01    0.000000e+00
  1.264212e-01    0.000000e+00
  1.267201e-01    0.000000e+00
  1.270190e-01    0.000000e+00
  1.273179e-01    0.000000e+00
  1.276169e-01    0.000000e+00
  1.279158e-01    0.000000e+00
  1.282147e-01    0.000000e+00
  1.285137e-01    0.000000e+00
  1.288126e-01    0.000000e+00
  1.291115e-01    0.000000e+00
  1.294105e-01    0.000000e+00
  1.297094e-01    0.000000e+00
  1.300083e-01    0.000000e+00
  1.303072e-01    0.000000e+00
  1.306062e-01    0.000000e+00
  1.309051e-01    0.000000e+00
  1.312040e-01    0.000000e+00
  1.315030e-01    0.000000e+00
  1.318019e-01    0.000000e+00
  1.321008e-01    0.000000e+00
  1.323998e-01    0.000000e+00
  1.326987e-01    0.000000e+00
  1.329976e-01    0.000000e+00
  1.332965e-01    0.000000e+00
  1.335955e-01    0.000000e+00
  1.338944e-01    0.000000e+00
  1.341933e-01    0.000000e+00
  1.344923e-01    0.000000e+00
  1.347912e-01    0.000000e+00
  1.350901e-01    0.000000e+00
  1.353891e-01    0.000000e+00
  1.356880e-01    0.000000e+00
  1.359869e-01    0.000000e+00
  1.362859e-01    0.000000e+00
  1.365848e-01    0.000000e+00
  1.368837e-01    0.000000e+00
  1.371826e-01    0.000000e+00
  1.374816e-01    0.000000e+00
  1.377805e-01    0.000000e+00
  1.380794e-01    0.000000e+00
  1.383784e-01    0.000000e+00
  1.386773e-01    0.000000e+00
  1.389762e-01    0.000000e+00
  1.392752e-01    0.000000e+00
  1.395741e-01    0.000000e+00
  1.398730e-01    0.000000e+00
  1.401719e-01    0.000000e+00
  1.404709e-01    0.000000e+00
  1.407698e-01    0.000000e+00
  1.410687e-01    0.000000e+00
  1.413677e-01    0.000000e+00
  1.416666e-01    0.000000e+00
  1.419655e-01    0.000000e+00
  1.422645e-01    0.000000e+00
  1.425634e-01    0.000000e+00
  1.428623e-01    0.000000e+00
  1.431613e-01    0.000000e+00
  1.434602e-01    0.000000e+00
  1.437591e-01    0.000000e+00
  1.440580e-01    0.000000e+00
  1.443570e-01    0.000000e+00
  1.446559e-01    0.000000e+00
  1.449548e-01    0.000000e+00
  1.452538e-01    0.000000e+00
  1.455527e-01    0.000000e+00
  1.458516e-01    0.000000e+00
  1.461506e-01    0.000000e+00
  1.464495e-01    0.000000e+00
  1.467484e-01    0.000000e+00
  1.470473e-01    0.000000e+00
  1.473463e-01    0.000000e+00
  1.476452e-01    0.000000e+00
  1.479441e-01    0.000000e+00
  1.482431e-01    0.000000e+00
  1.485420e-01    0.000000e+00
  1.488409e-01    0.000000e+00
  1.491399e-01    0.000000e+00
  1.494388e-01    0.000000e+00
  1.497377e-01    0.000000e+00
  1.500367e-01    0.000000e+00
  1.503356e-01    0.000000e+00
  1.506345e-01    0.000000e+00
  1.509334e-01    0.000000e+00
  1.512324e-01    0.000000e+00
  1.515313e-01    0.000000e+00
  1.518302e-01    0.000000e+00
  1.521292e-01    0.000000e+00
  1.524281e-01    0.000000e+00
  1.527270e-01    0.000000e+00
  1.530260e-01    0.000000e+00
  1.533249e-01    0.000000e+00
  1.536238e-01    0.000000e+00
