# == pyFAI calibration ==
# Distance Sample to Detector: 2.266 m
# PONI: 5.659e-02, 4.293e-02 m
# Rotations: 0.000000 0.000000 0.000000 rad
# 
# == Fit2d calibration ==
# Distance Sample-beamCenter: 2266.000 mm
# Center: x=249.594, y=329.012 pix
# Tilt: 0.000 deg  TiltPlanRot: 0.000 deg
# 
# Detector Pilatus 300k	 PixelSize= 1.720e-04, 1.720e-04 m
#    Detector has a mask: True 
#    Detector has a dark current: False 
#    detector has a flat field: False 
# 
# Wavelength: 1.27818e-10 m
# Mask applied: user provided
# Dark current applied: False
# Flat field applied: False
# Polarization factor: None
# Normalization factor: 12577195.0
# --> MT-F127_21.891_NaCl_54.727_limonene_0.000mgml_2_r1d.csv
#        q_A^-1             I 
  4.457554e-03    1.937138e-03
  4.756484e-03    1.523927e-03
  5.055415e-03    1.084953e-03
  5.354345e-03    7.654070e-04
  5.653276e-03    5.854413e-04
  5.952206e-03    9.262769e-04
  6.251136e-03    8.480651e-04
  6.550067e-03    7.381598e-04
  6.848997e-03    6.273169e-04
  7.147927e-03    5.308227e-04
  7.446858e-03    4.530260e-04
  7.745788e-03    3.888999e-04
  8.044719e-03    3.347120e-04
  8.343649e-03    2.920002e-04
  8.642579e-03    2.548244e-04
  8.941510e-03    2.241821e-04
  9.240440e-03    1.986391e-04
  9.539371e-03    1.760250e-04
  9.838301e-03    1.569309e-04
  1.013723e-02    1.404426e-04
  1.043616e-02    1.263371e-04
  1.073509e-02    1.134318e-04
  1.103402e-02    1.024352e-04
  1.133295e-02    9.305138e-05
  1.163188e-02    8.481942e-05
  1.193081e-02    7.734633e-05
  1.222974e-02    7.079459e-05
  1.252867e-02    6.507038e-05
  1.282760e-02    5.980701e-05
  1.312654e-02    5.502125e-05
  1.342547e-02    5.089255e-05
  1.372440e-02    4.713062e-05
  1.402333e-02    4.378807e-05
  1.432226e-02    4.061107e-05
  1.462119e-02    3.781439e-05
  1.492012e-02    3.529855e-05
  1.521905e-02    3.311492e-05
  1.551798e-02    3.113709e-05
  1.581691e-02    2.916460e-05
  1.611584e-02    2.742143e-05
  1.641477e-02    2.589558e-05
  1.671370e-02    2.443116e-05
  1.701263e-02    2.311984e-05
  1.731156e-02    2.190830e-05
  1.761049e-02    2.079244e-05
  1.790942e-02    1.975127e-05
  1.820835e-02    1.877824e-05
  1.850728e-02    1.791256e-05
  1.880621e-02    1.711576e-05
  1.910514e-02    1.637444e-05
  1.940407e-02    1.579017e-05
  1.970300e-02    1.514780e-05
  2.000193e-02    1.448768e-05
  2.030086e-02    1.389836e-05
  2.059979e-02    1.340640e-05
  2.089873e-02    1.304543e-05
  2.119766e-02    1.259448e-05
  2.149659e-02    1.208777e-05
  2.179552e-02    1.169706e-05
  2.209445e-02    1.137559e-05
  2.239338e-02    1.105792e-05
  2.269231e-02    1.071690e-05
  2.299124e-02    1.046123e-05
  2.329017e-02    1.021601e-05
  2.358910e-02    9.963288e-06
  2.388803e-02    9.640808e-06
  2.418696e-02    9.388672e-06
  2.448589e-02    9.188631e-06
  2.478482e-02    9.033930e-06
  2.508375e-02    8.851852e-06
  2.538268e-02    8.679133e-06
  2.568161e-02    8.548025e-06
  2.598054e-02    8.369489e-06
  2.627947e-02    8.194845e-06
  2.657840e-02    8.078910e-06
  2.687733e-02    7.942458e-06
  2.717626e-02    7.763633e-06
  2.747519e-02    7.655293e-06
  2.777412e-02    7.590770e-06
  2.807305e-02    7.525266e-06
  2.837198e-02    7.427132e-06
  2.867092e-02    7.292814e-06
  2.896985e-02    7.165362e-06
  2.926878e-02    7.085569e-06
  2.956771e-02    7.011366e-06
  2.986664e-02    6.919420e-06
  3.016557e-02    6.845528e-06
  3.046450e-02    6.788736e-06
  3.076343e-02    6.723189e-06
  3.106236e-02    6.703670e-06
  3.136129e-02    6.600003e-06
  3.166022e-02    6.510881e-06
  3.195915e-02    6.440107e-06
  3.225808e-02    6.375726e-06
  3.255701e-02    6.317655e-06
  3.285594e-02    6.278750e-06
  3.315487e-02    6.190737e-06
  3.345380e-02    6.156539e-06
  3.375273e-02    6.083504e-06
  3.405166e-02    6.039448e-06
  3.435059e-02    6.007204e-06
  3.464952e-02    5.937936e-06
  3.494845e-02    5.868646e-06
  3.524738e-02    5.839481e-06
  3.554631e-02    5.768864e-06
  3.584524e-02    5.742835e-06
  3.614417e-02    5.690173e-06
  3.644310e-02    5.628329e-06
  3.674204e-02    5.573789e-06
  3.704097e-02    5.546434e-06
  3.733990e-02    5.464202e-06
  3.763883e-02    5.414413e-06
  3.793776e-02    5.396316e-06
  3.823669e-02    5.358719e-06
  3.853562e-02    5.320555e-06
  3.883455e-02    5.265316e-06
  3.913348e-02    5.230833e-06
  3.943241e-02    5.247327e-06
  3.973134e-02    5.191987e-06
  4.003027e-02    5.149312e-06
  4.032920e-02    5.132972e-06
  4.062813e-02    5.115220e-06
  4.092706e-02    5.092266e-06
  4.122599e-02    5.071181e-06
  4.152492e-02    5.067709e-06
  4.182385e-02    5.031963e-06
  4.212278e-02    5.002084e-06
  4.242171e-02    4.984171e-06
  4.272064e-02    4.974468e-06
  4.301957e-02    4.986334e-06
  4.331850e-02    4.934604e-06
  4.361743e-02    4.904938e-06
  4.391636e-02    4.900466e-06
  4.421529e-02    4.905467e-06
  4.451423e-02    4.908126e-06
  4.481316e-02    4.875614e-06
  4.511209e-02    4.831246e-06
  4.541102e-02    4.834664e-06
  4.570995e-02    4.850681e-06
  4.600888e-02    4.820621e-06
  4.630781e-02    4.806485e-06
  4.660674e-02    4.820653e-06
  4.690567e-02    4.803437e-06
  4.720460e-02    4.836616e-06
  4.750353e-02    4.856097e-06
  4.780246e-02    4.854737e-06
  4.810139e-02    4.846459e-06
  4.840032e-02    4.818499e-06
  4.869925e-02    4.804127e-06
  4.899818e-02    4.777372e-06
  4.929711e-02    4.774203e-06
  4.959604e-02    4.824927e-06
  4.989497e-02    4.807818e-06
  5.019390e-02    4.763697e-06
  5.049283e-02    4.797153e-06
  5.079176e-02    4.824511e-06
  5.109069e-02    4.824511e-06
  5.138962e-02    4.890244e-06
  5.168855e-02    4.997592e-06
  5.198748e-02    5.034447e-06
  5.228642e-02    4.990046e-06
  5.258535e-02    4.872390e-06
  5.288428e-02    4.802264e-06
  5.318321e-02    4.772053e-06
  5.348214e-02    4.780949e-06
  5.378107e-02    4.793643e-06
  5.408000e-02    4.815285e-06
  5.437893e-02    4.794696e-06
  5.467786e-02    4.776562e-06
  5.497679e-02    4.798288e-06
  5.527572e-02    4.798803e-06
  5.557465e-02    4.789370e-06
  5.587358e-02    4.794513e-06
  5.617251e-02    4.804749e-06
  5.647144e-02    4.787734e-06
  5.677037e-02    4.816788e-06
  5.706930e-02    4.827056e-06
  5.736823e-02    4.795285e-06
  5.766716e-02    4.792881e-06
  5.796609e-02    4.785353e-06
  5.826502e-02    4.820253e-06
  5.856395e-02    4.841101e-06
  5.886288e-02    4.828168e-06
  5.916181e-02    4.825363e-06
  5.946074e-02    4.848826e-06
  5.975967e-02    4.874238e-06
  6.005861e-02    4.863479e-06
  6.035754e-02    4.882773e-06
  6.065647e-02    4.929713e-06
  6.095540e-02    4.947853e-06
  6.125433e-02    5.002297e-06
  6.155326e-02    5.028836e-06
  6.185219e-02    4.978051e-06
  6.215112e-02    4.959200e-06
  6.245005e-02    4.957466e-06
  6.274898e-02    4.969733e-06
  6.304791e-02    4.976625e-06
  6.334684e-02    4.957091e-06
  6.364577e-02    4.965508e-06
  6.394470e-02    4.974131e-06
  6.424363e-02    4.968933e-06
  6.454256e-02    4.994709e-06
  6.484149e-02    5.005244e-06
  6.514042e-02    4.987112e-06
  6.543935e-02    4.986913e-06
  6.573828e-02    4.997680e-06
  6.603721e-02    5.023942e-06
  6.633614e-02    5.044398e-06
  6.663507e-02    5.030596e-06
  6.693400e-02    5.028113e-06
  6.723293e-02    5.039075e-06
  6.753186e-02    5.059150e-06
  6.783080e-02    5.107167e-06
  6.812973e-02    5.103165e-06
  6.842866e-02    5.076079e-06
  6.872759e-02    5.090433e-06
  6.902652e-02    5.104703e-06
  6.932545e-02    5.125766e-06
  6.962438e-02    5.147656e-06
  6.992331e-02    5.129382e-06
  7.022224e-02    5.108810e-06
  7.052117e-02    5.115945e-06
  7.082010e-02    5.123227e-06
  7.111903e-02    5.126750e-06
  7.141796e-02    5.152500e-06
  7.171689e-02    5.167421e-06
  7.201582e-02    5.190163e-06
  7.231475e-02    5.191506e-06
  7.261368e-02    5.170333e-06
  7.291261e-02    5.145919e-06
  7.321154e-02    5.180801e-06
  7.351047e-02    5.191836e-06
  7.380940e-02    5.172802e-06
  7.410833e-02    5.191125e-06
  7.440726e-02    5.182528e-06
  7.470619e-02    5.187059e-06
  7.500512e-02    5.228972e-06
  7.530405e-02    5.214096e-06
  7.560299e-02    5.190567e-06
  7.590192e-02    5.204853e-06
  7.620085e-02    5.204796e-06
  7.649978e-02    5.216168e-06
  7.679871e-02    5.246055e-06
  7.709764e-02    5.224427e-06
  7.739657e-02    5.200890e-06
  7.769550e-02    5.214789e-06
  7.799443e-02    5.210064e-06
  7.829336e-02    5.202106e-06
  7.859229e-02    5.187845e-06
  7.889122e-02    5.182726e-06
  7.919015e-02    5.206281e-06
  7.948908e-02    5.213055e-06
  7.978801e-02    5.197994e-06
  8.008694e-02    5.181546e-06
  8.038587e-02    5.179858e-06
  8.068480e-02    5.206909e-06
  8.098373e-02    5.194595e-06
  8.128266e-02    5.156568e-06
  8.158159e-02    5.174637e-06
  8.188052e-02    5.179721e-06
  8.217945e-02    5.163617e-06
  8.247838e-02    5.128194e-06
  8.277731e-02    5.134372e-06
  8.307624e-02    5.134947e-06
  8.337518e-02    5.154016e-06
  8.367411e-02    5.141966e-06
  8.397304e-02    5.125380e-06
  8.427197e-02    5.121222e-06
  8.457090e-02    5.110222e-06
  8.486983e-02    5.098163e-06
  8.516876e-02    5.108158e-06
  8.546769e-02    5.098150e-06
  8.576662e-02    5.071659e-06
  8.606555e-02    5.063999e-06
  8.636448e-02    5.072063e-06
  8.666341e-02    5.081481e-06
  8.696234e-02    5.068840e-06
  8.726127e-02    5.043518e-06
  8.756020e-02    5.015866e-06
  8.785913e-02    5.027252e-06
  8.815806e-02    5.043082e-06
  8.845699e-02    5.019359e-06
  8.875592e-02    5.000282e-06
  8.905485e-02    4.994782e-06
  8.935378e-02    4.975062e-06
  8.965271e-02    4.948348e-06
  8.995164e-02    4.955435e-06
  9.025057e-02    4.945572e-06
  9.054950e-02    4.919770e-06
  9.084843e-02    4.911783e-06
  9.114737e-02    4.929127e-06
  9.144630e-02    4.935931e-06
  9.174523e-02    4.926218e-06
  9.204416e-02    4.910659e-06
  9.234309e-02    4.905598e-06
  9.264202e-02    4.894127e-06
  9.294095e-02    4.863452e-06
  9.323988e-02    4.870733e-06
  9.353881e-02    4.868072e-06
  9.383774e-02    4.844765e-06
  9.413667e-02    4.813572e-06
  9.443560e-02    4.806987e-06
  9.473453e-02    4.817149e-06
  9.503346e-02    4.819607e-06
  9.533239e-02    4.811240e-06
  9.563132e-02    4.815171e-06
  9.593025e-02    4.805292e-06
  9.622918e-02    4.791654e-06
  9.652811e-02    4.824902e-06
  9.682704e-02    4.819646e-06
  9.712597e-02    4.799389e-06
  9.742490e-02    4.806782e-06
  9.772383e-02    4.776710e-06
  9.802276e-02    4.732849e-06
  9.832169e-02    4.735070e-06
  9.862062e-02    4.710778e-06
  9.891956e-02    4.675304e-06
  9.921849e-02    4.679085e-06
  9.951742e-02    4.668959e-06
  9.981635e-02    4.676633e-06
  1.001153e-01    4.670589e-06
  1.004142e-01    4.635353e-06
  1.007131e-01    4.636612e-06
  1.010121e-01    4.636037e-06
  1.013110e-01    4.630253e-06
  1.016099e-01    4.627467e-06
  1.019089e-01    4.628401e-06
  1.022078e-01    4.606774e-06
  1.025067e-01    4.570437e-06
  1.028057e-01    4.569930e-06
  1.031046e-01    4.549062e-06
  1.034035e-01    4.550182e-06
  1.037024e-01    4.557787e-06
  1.040014e-01    4.549145e-06
  1.043003e-01    4.533737e-06
  1.045992e-01    4.522861e-06
  1.048982e-01    4.497157e-06
  1.051971e-01    4.488278e-06
  1.054960e-01    4.492799e-06
  1.057950e-01    4.488456e-06
  1.060939e-01    4.474898e-06
  1.063928e-01    4.462818e-06
  1.066917e-01    4.451267e-06
  1.069907e-01    4.438040e-06
  1.072896e-01    4.428195e-06
  1.075885e-01    4.411608e-06
  1.078875e-01    4.416569e-06
  1.081864e-01    4.415739e-06
  1.084853e-01    4.401515e-06
  1.087843e-01    4.426623e-06
  1.090832e-01    4.450291e-06
  1.093821e-01    4.408486e-06
  1.096810e-01    4.376327e-06
  1.099800e-01    4.342756e-06
  1.102789e-01    4.323801e-06
  1.105778e-01    4.327751e-06
  1.108768e-01    4.311839e-06
  1.111757e-01    4.276343e-06
  1.114746e-01    4.266879e-06
  1.117736e-01    4.243466e-06
  1.120725e-01    4.272216e-06
  1.123714e-01    4.276817e-06
  1.126704e-01    4.251182e-06
  1.129693e-01    4.223692e-06
  1.132682e-01    4.181526e-06
  1.135671e-01    4.155037e-06
  1.138661e-01    4.188669e-06
  1.141650e-01    4.227243e-06
  1.144639e-01    4.247142e-06
  1.147629e-01    4.240849e-06
  1.150618e-01    4.208012e-06
  1.153607e-01    4.162896e-06
  1.156597e-01    4.134762e-06
  1.159586e-01    4.135558e-06
  1.162575e-01    4.154668e-06
  1.165564e-01    4.153394e-06
  1.168554e-01    4.162626e-06
  1.171543e-01    4.229685e-06
  1.174532e-01    4.187430e-06
  1.177522e-01    4.169430e-06
  1.180511e-01    4.130911e-06
  1.183500e-01    4.144988e-06
  1.186490e-01    4.138605e-06
  1.189479e-01    4.091582e-06
  1.192468e-01    4.082714e-06
  1.195458e-01    4.103270e-06
  1.198447e-01    4.126596e-06
  1.201436e-01    4.123835e-06
  1.204425e-01    4.160537e-06
  1.207415e-01    3.945021e-06
  1.210404e-01    3.740307e-06
  1.213393e-01    0.000000e+00
  1.216383e-01    0.000000e+00
  1.219372e-01    0.000000e+00
  1.222361e-01    0.000000e+00
  1.225351e-01    0.000000e+00
  1.228340e-01    0.000000e+00
  1.231329e-01    0.000000e+00
  1.234318e-01    0.000000e+00
  1.237308e-01    0.000000e+00
  1.240297e-01    0.000000e+00
  1.243286e-01    0.000000e+00
  1.246276e-01    0.000000e+00
  1.249265e-01    0.000000e+00
  1.252254e-01    0.000000e+00
  1.255244e-01    0.000000e+00
  1.258233e-01    0.000000e+00
  1.261222e-01    0.000000e+00
  1.264212e-01    0.000000e+00
  1.267201e-01    0.000000e+00
  1.270190e-01    0.000000e+00
  1.273179e-01    0.000000e+00
  1.276169e-01    0.000000e+00
  1.279158e-01    0.000000e+00
  1.282147e-01    0.000000e+00
  1.285137e-01    0.000000e+00
  1.288126e-01    0.000000e+00
  1.291115e-01    0.000000e+00
  1.294105e-01    0.000000e+00
  1.297094e-01    0.000000e+00
  1.300083e-01    0.000000e+00
  1.303072e-01    0.000000e+00
  1.306062e-01    0.000000e+00
  1.309051e-01    0.000000e+00
  1.312040e-01    0.000000e+00
  1.315030e-01    0.000000e+00
  1.318019e-01    0.000000e+00
  1.321008e-01    0.000000e+00
  1.323998e-01    0.000000e+00
  1.326987e-01    0.000000e+00
  1.329976e-01    0.000000e+00
  1.332965e-01    0.000000e+00
  1.335955e-01    0.000000e+00
  1.338944e-01    0.000000e+00
  1.341933e-01    0.000000e+00
  1.344923e-01    0.000000e+00
  1.347912e-01    0.000000e+00
  1.350901e-01    0.000000e+00
  1.353891e-01    0.000000e+00
  1.356880e-01    0.000000e+00
  1.359869e-01    0.000000e+00
  1.362859e-01    0.000000e+00
  1.365848e-01    0.000000e+00
  1.368837e-01    0.000000e+00
  1.371826e-01    0.000000e+00
  1.374816e-01    0.000000e+00
  1.377805e-01    0.000000e+00
  1.380794e-01    0.000000e+00
  1.383784e-01    0.000000e+00
  1.386773e-01    0.000000e+00
  1.389762e-01    0.000000e+00
  1.392752e-01    0.000000e+00
  1.395741e-01    0.000000e+00
  1.398730e-01    0.000000e+00
  1.401719e-01    0.000000e+00
  1.404709e-01    0.000000e+00
  1.407698e-01    0.000000e+00
  1.410687e-01    0.000000e+00
  1.413677e-01    0.000000e+00
  1.416666e-01    0.000000e+00
  1.419655e-01    0.000000e+00
  1.422645e-01    0.000000e+00
  1.425634e-01    0.000000e+00
  1.428623e-01    0.000000e+00
  1.431613e-01    0.000000e+00
  1.434602e-01    0.000000e+00
  1.437591e-01    0.000000e+00
  1.440580e-01    0.000000e+00
  1.443570e-01    0.000000e+00
  1.446559e-01    0.000000e+00
  1.449548e-01    0.000000e+00
  1.452538e-01    0.000000e+00
  1.455527e-01    0.000000e+00
  1.458516e-01    0.000000e+00
  1.461506e-01    0.000000e+00
  1.464495e-01    0.000000e+00
  1.467484e-01    0.000000e+00
  1.470473e-01    0.000000e+00
  1.473463e-01    0.000000e+00
  1.476452e-01    0.000000e+00
  1.479441e-01    0.000000e+00
  1.482431e-01    0.000000e+00
  1.485420e-01    0.000000e+00
  1.488409e-01    0.000000e+00
  1.491399e-01    0.000000e+00
  1.494388e-01    0.000000e+00
  1.497377e-01    0.000000e+00
  1.500367e-01    0.000000e+00
  1.503356e-01    0.000000e+00
  1.506345e-01    0.000000e+00
  1.509334e-01    0.000000e+00
  1.512324e-01    0.000000e+00
  1.515313e-01    0.000000e+00
  1.518302e-01    0.000000e+00
  1.521292e-01    0.000000e+00
  1.524281e-01    0.000000e+00
  1.527270e-01    0.000000e+00
  1.530260e-01    0.000000e+00
  1.533249e-01    0.000000e+00
  1.536238e-01    0.000000e+00
