# == pyFAI calibration ==
# Distance Sample to Detector: 2.266 m
# PONI: 5.659e-02, 4.293e-02 m
# Rotations: 0.000000 0.000000 0.000000 rad
# 
# == Fit2d calibration ==
# Distance Sample-beamCenter: 2266.000 mm
# Center: x=249.594, y=329.012 pix
# Tilt: 0.000 deg  TiltPlanRot: 0.000 deg
# 
# Detector Pilatus 300k	 PixelSize= 1.720e-04, 1.720e-04 m
#    Detector has a mask: True 
#    Detector has a dark current: False 
#    detector has a flat field: False 
# 
# Wavelength: 1.27818e-10 m
# Mask applied: user provided
# Dark current applied: False
# Flat field applied: False
# Polarization factor: None
# Normalization factor: 15937207.200000001
# --> MT-F127_136.144_NaCl_119.126_limonene_187.198mgml_2_r1d.csv
#        q_A^-1             I 
  4.457554e-03    1.949961e-03
  4.756484e-03    1.524713e-03
  5.055415e-03    1.075707e-03
  5.354345e-03    7.504351e-04
  5.653276e-03    5.780447e-04
  5.952206e-03    9.342129e-04
  6.251136e-03    8.521839e-04
  6.550067e-03    7.396705e-04
  6.848997e-03    6.283063e-04
  7.147927e-03    5.300671e-04
  7.446858e-03    4.528715e-04
  7.745788e-03    3.874154e-04
  8.044719e-03    3.332682e-04
  8.343649e-03    2.905368e-04
  8.642579e-03    2.544895e-04
  8.941510e-03    2.237037e-04
  9.240440e-03    1.980634e-04
  9.539371e-03    1.756498e-04
  9.838301e-03    1.565180e-04
  1.013723e-02    1.400009e-04
  1.043616e-02    1.259877e-04
  1.073509e-02    1.133268e-04
  1.103402e-02    1.025885e-04
  1.133295e-02    9.286733e-05
  1.163188e-02    8.493794e-05
  1.193081e-02    7.763092e-05
  1.222974e-02    7.100614e-05
  1.252867e-02    6.516281e-05
  1.282760e-02    5.985994e-05
  1.312654e-02    5.521574e-05
  1.342547e-02    5.102369e-05
  1.372440e-02    4.746169e-05
  1.402333e-02    4.421727e-05
  1.432226e-02    4.102646e-05
  1.462119e-02    3.818046e-05
  1.492012e-02    3.576609e-05
  1.521905e-02    3.339691e-05
  1.551798e-02    3.142182e-05
  1.581691e-02    2.956217e-05
  1.611584e-02    2.777954e-05
  1.641477e-02    2.627149e-05
  1.671370e-02    2.481269e-05
  1.701263e-02    2.353084e-05
  1.731156e-02    2.231606e-05
  1.761049e-02    2.115412e-05
  1.790942e-02    2.011449e-05
  1.820835e-02    1.917295e-05
  1.850728e-02    1.837283e-05
  1.880621e-02    1.760371e-05
  1.910514e-02    1.675912e-05
  1.940407e-02    1.607941e-05
  1.970300e-02    1.542891e-05
  2.000193e-02    1.482249e-05
  2.030086e-02    1.438386e-05
  2.059979e-02    1.382445e-05
  2.089873e-02    1.334266e-05
  2.119766e-02    1.291120e-05
  2.149659e-02    1.245243e-05
  2.179552e-02    1.199854e-05
  2.209445e-02    1.167577e-05
  2.239338e-02    1.141280e-05
  2.269231e-02    1.105175e-05
  2.299124e-02    1.070815e-05
  2.329017e-02    1.043863e-05
  2.358910e-02    1.019364e-05
  2.388803e-02    9.968558e-06
  2.418696e-02    9.739337e-06
  2.448589e-02    9.475158e-06
  2.478482e-02    9.267661e-06
  2.508375e-02    9.112226e-06
  2.538268e-02    8.971074e-06
  2.568161e-02    8.775898e-06
  2.598054e-02    8.618900e-06
  2.627947e-02    8.477650e-06
  2.657840e-02    8.325213e-06
  2.687733e-02    8.194363e-06
  2.717626e-02    8.110916e-06
  2.747519e-02    8.022117e-06
  2.777412e-02    7.857418e-06
  2.807305e-02    7.749803e-06
  2.837198e-02    7.652312e-06
  2.867092e-02    7.500167e-06
  2.896985e-02    7.380627e-06
  2.926878e-02    7.305457e-06
  2.956771e-02    7.237071e-06
  2.986664e-02    7.167323e-06
  3.016557e-02    7.093915e-06
  3.046450e-02    6.977395e-06
  3.076343e-02    6.884090e-06
  3.106236e-02    6.855682e-06
  3.136129e-02    6.819723e-06
  3.166022e-02    6.761083e-06
  3.195915e-02    6.699552e-06
  3.225808e-02    6.586128e-06
  3.255701e-02    6.522928e-06
  3.285594e-02    6.470460e-06
  3.315487e-02    6.429873e-06
  3.345380e-02    6.334467e-06
  3.375273e-02    6.253690e-06
  3.405166e-02    6.215343e-06
  3.435059e-02    6.193241e-06
  3.464952e-02    6.116872e-06
  3.494845e-02    6.050259e-06
  3.524738e-02    6.011371e-06
  3.554631e-02    5.964549e-06
  3.584524e-02    5.916008e-06
  3.614417e-02    5.877510e-06
  3.644310e-02    5.820110e-06
  3.674204e-02    5.760643e-06
  3.704097e-02    5.728084e-06
  3.733990e-02    5.686766e-06
  3.763883e-02    5.654395e-06
  3.793776e-02    5.601632e-06
  3.823669e-02    5.573411e-06
  3.853562e-02    5.532768e-06
  3.883455e-02    5.503373e-06
  3.913348e-02    5.475972e-06
  3.943241e-02    5.454554e-06
  3.973134e-02    5.436566e-06
  4.003027e-02    5.379077e-06
  4.032920e-02    5.355152e-06
  4.062813e-02    5.347081e-06
  4.092706e-02    5.318726e-06
  4.122599e-02    5.295313e-06
  4.152492e-02    5.244444e-06
  4.182385e-02    5.223127e-06
  4.212278e-02    5.243939e-06
  4.242171e-02    5.243049e-06
  4.272064e-02    5.216521e-06
  4.301957e-02    5.182766e-06
  4.331850e-02    5.134101e-06
  4.361743e-02    5.116376e-06
  4.391636e-02    5.139303e-06
  4.421529e-02    5.170692e-06
  4.451423e-02    5.142667e-06
  4.481316e-02    5.126109e-06
  4.511209e-02    5.098556e-06
  4.541102e-02    5.094645e-06
  4.570995e-02    5.116673e-06
  4.600888e-02    5.100679e-06
  4.630781e-02    5.082542e-06
  4.660674e-02    5.074817e-06
  4.690567e-02    5.067941e-06
  4.720460e-02    5.075616e-06
  4.750353e-02    5.069144e-06
  4.780246e-02    5.060545e-06
  4.810139e-02    5.068529e-06
  4.840032e-02    5.060177e-06
  4.869925e-02    5.048179e-06
  4.899818e-02    5.032692e-06
  4.929711e-02    5.023934e-06
  4.959604e-02    5.057081e-06
  4.989497e-02    5.040853e-06
  5.019390e-02    5.055742e-06
  5.049283e-02    5.064719e-06
  5.079176e-02    5.045835e-06
  5.109069e-02    5.046684e-06
  5.138962e-02    5.066154e-06
  5.168855e-02    5.194938e-06
  5.198748e-02    5.278003e-06
  5.228642e-02    5.202687e-06
  5.258535e-02    5.077271e-06
  5.288428e-02    5.028606e-06
  5.318321e-02    5.047289e-06
  5.348214e-02    5.040181e-06
  5.378107e-02    5.054194e-06
  5.408000e-02    5.055606e-06
  5.437893e-02    5.037531e-06
  5.467786e-02    5.055717e-06
  5.497679e-02    5.036986e-06
  5.527572e-02    5.008138e-06
  5.557465e-02    5.032387e-06
  5.587358e-02    5.044707e-06
  5.617251e-02    5.046842e-06
  5.647144e-02    5.063897e-06
  5.677037e-02    5.051027e-06
  5.706930e-02    5.069969e-06
  5.736823e-02    5.067347e-06
  5.766716e-02    5.050568e-06
  5.796609e-02    5.056274e-06
  5.826502e-02    5.104998e-06
  5.856395e-02    5.114075e-06
  5.886288e-02    5.103493e-06
  5.916181e-02    5.118504e-06
  5.946074e-02    5.121683e-06
  5.975967e-02    5.130129e-06
  6.005861e-02    5.129377e-06
  6.035754e-02    5.157710e-06
  6.065647e-02    5.194272e-06
  6.095540e-02    5.237735e-06
  6.125433e-02    5.293090e-06
  6.155326e-02    5.297652e-06
  6.185219e-02    5.256396e-06
  6.215112e-02    5.238478e-06
  6.245005e-02    5.240740e-06
  6.274898e-02    5.220118e-06
  6.304791e-02    5.219436e-06
  6.334684e-02    5.212652e-06
  6.364577e-02    5.233731e-06
  6.394470e-02    5.226491e-06
  6.424363e-02    5.239222e-06
  6.454256e-02    5.238229e-06
  6.484149e-02    5.261225e-06
  6.514042e-02    5.266431e-06
  6.543935e-02    5.280704e-06
  6.573828e-02    5.312371e-06
  6.603721e-02    5.313186e-06
  6.633614e-02    5.296360e-06
  6.663507e-02    5.311330e-06
  6.693400e-02    5.298966e-06
  6.723293e-02    5.327917e-06
  6.753186e-02    5.348947e-06
  6.783080e-02    5.341790e-06
  6.812973e-02    5.360500e-06
  6.842866e-02    5.365232e-06
  6.872759e-02    5.378448e-06
  6.902652e-02    5.382966e-06
  6.932545e-02    5.386959e-06
  6.962438e-02    5.402938e-06
  6.992331e-02    5.399235e-06
  7.022224e-02    5.428236e-06
  7.052117e-02    5.441945e-06
  7.082010e-02    5.433073e-06
  7.111903e-02    5.442205e-06
  7.141796e-02    5.441810e-06
  7.171689e-02    5.440422e-06
  7.201582e-02    5.472209e-06
  7.231475e-02    5.496827e-06
  7.261368e-02    5.490420e-06
  7.291261e-02    5.459683e-06
  7.321154e-02    5.474402e-06
  7.351047e-02    5.478455e-06
  7.380940e-02    5.485075e-06
  7.410833e-02    5.473881e-06
  7.440726e-02    5.484722e-06
  7.470619e-02    5.478454e-06
  7.500512e-02    5.484922e-06
  7.530405e-02    5.513670e-06
  7.560299e-02    5.501260e-06
  7.590192e-02    5.496385e-06
  7.620085e-02    5.498981e-06
  7.649978e-02    5.481834e-06
  7.679871e-02    5.477191e-06
  7.709764e-02    5.486326e-06
  7.739657e-02    5.484357e-06
  7.769550e-02    5.474688e-06
  7.799443e-02    5.502933e-06
  7.829336e-02    5.508531e-06
  7.859229e-02    5.479116e-06
  7.889122e-02    5.479153e-06
  7.919015e-02    5.472222e-06
  7.948908e-02    5.482114e-06
  7.978801e-02    5.467838e-06
  8.008694e-02    5.455187e-06
  8.038587e-02    5.461596e-06
  8.068480e-02    5.470499e-06
  8.098373e-02    5.471491e-06
  8.128266e-02    5.457747e-06
  8.158159e-02    5.459705e-06
  8.188052e-02    5.447016e-06
  8.217945e-02    5.438195e-06
  8.247838e-02    5.431968e-06
  8.277731e-02    5.443007e-06
  8.307624e-02    5.453455e-06
  8.337518e-02    5.431176e-06
  8.367411e-02    5.408881e-06
  8.397304e-02    5.388475e-06
  8.427197e-02    5.406948e-06
  8.457090e-02    5.385984e-06
  8.486983e-02    5.392793e-06
  8.516876e-02    5.388060e-06
  8.546769e-02    5.376982e-06
  8.576662e-02    5.372693e-06
  8.606555e-02    5.370434e-06
  8.636448e-02    5.347648e-06
  8.666341e-02    5.353218e-06
  8.696234e-02    5.351280e-06
  8.726127e-02    5.335577e-06
  8.756020e-02    5.336798e-06
  8.785913e-02    5.323839e-06
  8.815806e-02    5.311617e-06
  8.845699e-02    5.281873e-06
  8.875592e-02    5.285940e-06
  8.905485e-02    5.283390e-06
  8.935378e-02    5.272915e-06
  8.965271e-02    5.251104e-06
  8.995164e-02    5.220251e-06
  9.025057e-02    5.210909e-06
  9.054950e-02    5.206919e-06
  9.084843e-02    5.210863e-06
  9.114737e-02    5.204963e-06
  9.144630e-02    5.191206e-06
  9.174523e-02    5.189056e-06
  9.204416e-02    5.176772e-06
  9.234309e-02    5.145306e-06
  9.264202e-02    5.171295e-06
  9.294095e-02    5.163099e-06
  9.323988e-02    5.130618e-06
  9.353881e-02    5.118604e-06
  9.383774e-02    5.107855e-06
  9.413667e-02    5.110551e-06
  9.443560e-02    5.096555e-06
  9.473453e-02    5.099496e-06
  9.503346e-02    5.105763e-06
  9.533239e-02    5.094619e-06
  9.563132e-02    5.082351e-06
  9.593025e-02    5.089619e-06
  9.622918e-02    5.096987e-06
  9.652811e-02    5.097494e-06
  9.682704e-02    5.081495e-06
  9.712597e-02    5.086828e-06
  9.742490e-02    5.086201e-06
  9.772383e-02    5.061110e-06
  9.802276e-02    5.036076e-06
  9.832169e-02    5.000849e-06
  9.862062e-02    4.992118e-06
  9.891956e-02    4.991904e-06
  9.921849e-02    4.989953e-06
  9.951742e-02    4.980786e-06
  9.981635e-02    4.960979e-06
  1.001153e-01    4.914377e-06
  1.004142e-01    4.903937e-06
  1.007131e-01    4.908606e-06
  1.010121e-01    4.886796e-06
  1.013110e-01    4.873495e-06
  1.016099e-01    4.877953e-06
  1.019089e-01    4.871138e-06
  1.022078e-01    4.853316e-06
  1.025067e-01    4.847427e-06
  1.028057e-01    4.834661e-06
  1.031046e-01    4.817960e-06
  1.034035e-01    4.824617e-06
  1.037024e-01    4.830757e-06
  1.040014e-01    4.822244e-06
  1.043003e-01    4.792798e-06
  1.045992e-01    4.782892e-06
  1.048982e-01    4.803434e-06
  1.051971e-01    4.773761e-06
  1.054960e-01    4.748872e-06
  1.057950e-01    4.744566e-06
  1.060939e-01    4.724909e-06
  1.063928e-01    4.733999e-06
  1.066917e-01    4.735239e-06
  1.069907e-01    4.705706e-06
  1.072896e-01    4.696062e-06
  1.075885e-01    4.675784e-06
  1.078875e-01    4.683329e-06
  1.081864e-01    4.675304e-06
  1.084853e-01    4.662513e-06
  1.087843e-01    4.663567e-06
  1.090832e-01    4.663354e-06
  1.093821e-01    4.657185e-06
  1.096810e-01    4.643490e-06
  1.099800e-01    4.641266e-06
  1.102789e-01    4.632235e-06
  1.105778e-01    4.572826e-06
  1.108768e-01    4.569943e-06
  1.111757e-01    4.575558e-06
  1.114746e-01    4.549649e-06
  1.117736e-01    4.518567e-06
  1.120725e-01    4.514791e-06
  1.123714e-01    4.503692e-06
  1.126704e-01    4.495968e-06
  1.129693e-01    4.499786e-06
  1.132682e-01    4.496552e-06
  1.135671e-01    4.492903e-06
  1.138661e-01    4.455710e-06
  1.141650e-01    4.455610e-06
  1.144639e-01    4.482190e-06
  1.147629e-01    4.483058e-06
  1.150618e-01    4.452533e-06
  1.153607e-01    4.432458e-06
  1.156597e-01    4.441022e-06
  1.159586e-01    4.445591e-06
  1.162575e-01    4.442096e-06
  1.165564e-01    4.366404e-06
  1.168554e-01    4.335290e-06
  1.171543e-01    4.371328e-06
  1.174532e-01    4.410816e-06
  1.177522e-01    4.429793e-06
  1.180511e-01    4.423132e-06
  1.183500e-01    4.372177e-06
  1.186490e-01    4.364276e-06
  1.189479e-01    4.310637e-06
  1.192468e-01    4.312707e-06
  1.195458e-01    4.319746e-06
  1.198447e-01    4.249138e-06
  1.201436e-01    4.275657e-06
  1.204425e-01    4.354753e-06
  1.207415e-01    4.291432e-06
  1.210404e-01    4.082201e-06
  1.213393e-01    0.000000e+00
  1.216383e-01    0.000000e+00
  1.219372e-01    0.000000e+00
  1.222361e-01    0.000000e+00
  1.225351e-01    0.000000e+00
  1.228340e-01    0.000000e+00
  1.231329e-01    0.000000e+00
  1.234318e-01    0.000000e+00
  1.237308e-01    0.000000e+00
  1.240297e-01    0.000000e+00
  1.243286e-01    0.000000e+00
  1.246276e-01    0.000000e+00
  1.249265e-01    0.000000e+00
  1.252254e-01    0.000000e+00
  1.255244e-01    0.000000e+00
  1.258233e-01    0.000000e+00
  1.261222e-01    0.000000e+00
  1.264212e-01    0.000000e+00
  1.267201e-01    0.000000e+00
  1.270190e-01    0.000000e+00
  1.273179e-01    0.000000e+00
  1.276169e-01    0.000000e+00
  1.279158e-01    0.000000e+00
  1.282147e-01    0.000000e+00
  1.285137e-01    0.000000e+00
  1.288126e-01    0.000000e+00
  1.291115e-01    0.000000e+00
  1.294105e-01    0.000000e+00
  1.297094e-01    0.000000e+00
  1.300083e-01    0.000000e+00
  1.303072e-01    0.000000e+00
  1.306062e-01    0.000000e+00
  1.309051e-01    0.000000e+00
  1.312040e-01    0.000000e+00
  1.315030e-01    0.000000e+00
  1.318019e-01    0.000000e+00
  1.321008e-01    0.000000e+00
  1.323998e-01    0.000000e+00
  1.326987e-01    0.000000e+00
  1.329976e-01    0.000000e+00
  1.332965e-01    0.000000e+00
  1.335955e-01    0.000000e+00
  1.338944e-01    0.000000e+00
  1.341933e-01    0.000000e+00
  1.344923e-01    0.000000e+00
  1.347912e-01    0.000000e+00
  1.350901e-01    0.000000e+00
  1.353891e-01    0.000000e+00
  1.356880e-01    0.000000e+00
  1.359869e-01    0.000000e+00
  1.362859e-01    0.000000e+00
  1.365848e-01    0.000000e+00
  1.368837e-01    0.000000e+00
  1.371826e-01    0.000000e+00
  1.374816e-01    0.000000e+00
  1.377805e-01    0.000000e+00
  1.380794e-01    0.000000e+00
  1.383784e-01    0.000000e+00
  1.386773e-01    0.000000e+00
  1.389762e-01    0.000000e+00
  1.392752e-01    0.000000e+00
  1.395741e-01    0.000000e+00
  1.398730e-01    0.000000e+00
  1.401719e-01    0.000000e+00
  1.404709e-01    0.000000e+00
  1.407698e-01    0.000000e+00
  1.410687e-01    0.000000e+00
  1.413677e-01    0.000000e+00
  1.416666e-01    0.000000e+00
  1.419655e-01    0.000000e+00
  1.422645e-01    0.000000e+00
  1.425634e-01    0.000000e+00
  1.428623e-01    0.000000e+00
  1.431613e-01    0.000000e+00
  1.434602e-01    0.000000e+00
  1.437591e-01    0.000000e+00
  1.440580e-01    0.000000e+00
  1.443570e-01    0.000000e+00
  1.446559e-01    0.000000e+00
  1.449548e-01    0.000000e+00
  1.452538e-01    0.000000e+00
  1.455527e-01    0.000000e+00
  1.458516e-01    0.000000e+00
  1.461506e-01    0.000000e+00
  1.464495e-01    0.000000e+00
  1.467484e-01    0.000000e+00
  1.470473e-01    0.000000e+00
  1.473463e-01    0.000000e+00
  1.476452e-01    0.000000e+00
  1.479441e-01    0.000000e+00
  1.482431e-01    0.000000e+00
  1.485420e-01    0.000000e+00
  1.488409e-01    0.000000e+00
  1.491399e-01    0.000000e+00
  1.494388e-01    0.000000e+00
  1.497377e-01    0.000000e+00
  1.500367e-01    0.000000e+00
  1.503356e-01    0.000000e+00
  1.506345e-01    0.000000e+00
  1.509334e-01    0.000000e+00
  1.512324e-01    0.000000e+00
  1.515313e-01    0.000000e+00
  1.518302e-01    0.000000e+00
  1.521292e-01    0.000000e+00
  1.524281e-01    0.000000e+00
  1.527270e-01    0.000000e+00
  1.530260e-01    0.000000e+00
  1.533249e-01    0.000000e+00
  1.536238e-01    0.000000e+00
