# == pyFAI calibration ==
# Distance Sample to Detector: 2.266 m
# PONI: 5.659e-02, 4.293e-02 m
# Rotations: 0.000000 0.000000 0.000000 rad
# 
# == Fit2d calibration ==
# Distance Sample-beamCenter: 2266.000 mm
# Center: x=249.594, y=329.012 pix
# Tilt: 0.000 deg  TiltPlanRot: 0.000 deg
# 
# Detector Pilatus 300k	 PixelSize= 1.720e-04, 1.720e-04 m
#    Detector has a mask: True 
#    Detector has a dark current: False 
#    detector has a flat field: False 
# 
# Wavelength: 1.27818e-10 m
# Mask applied: user provided
# Dark current applied: False
# Flat field applied: False
# Polarization factor: None
# Normalization factor: 15623766.8
# --> MT-F127_121.404_NaCl_151.755_limonene_257.983mgml_2_r1d.csv
#        q_A^-1             I 
  4.457554e-03    1.971198e-03
  4.756484e-03    1.536638e-03
  5.055415e-03    1.086259e-03
  5.354345e-03    7.625103e-04
  5.653276e-03    5.858605e-04
  5.952206e-03    9.399334e-04
  6.251136e-03    8.577554e-04
  6.550067e-03    7.438302e-04
  6.848997e-03    6.312008e-04
  7.147927e-03    5.333305e-04
  7.446858e-03    4.547315e-04
  7.745788e-03    3.893745e-04
  8.044719e-03    3.352881e-04
  8.343649e-03    2.920307e-04
  8.642579e-03    2.550963e-04
  8.941510e-03    2.245853e-04
  9.240440e-03    1.987373e-04
  9.539371e-03    1.764255e-04
  9.838301e-03    1.567359e-04
  1.013723e-02    1.398445e-04
  1.043616e-02    1.258431e-04
  1.073509e-02    1.133836e-04
  1.103402e-02    1.024077e-04
  1.133295e-02    9.272317e-05
  1.163188e-02    8.458320e-05
  1.193081e-02    7.738753e-05
  1.222974e-02    7.061815e-05
  1.252867e-02    6.473358e-05
  1.282760e-02    5.965820e-05
  1.312654e-02    5.501218e-05
  1.342547e-02    5.088149e-05
  1.372440e-02    4.723442e-05
  1.402333e-02    4.388165e-05
  1.432226e-02    4.063749e-05
  1.462119e-02    3.788087e-05
  1.492012e-02    3.552661e-05
  1.521905e-02    3.321041e-05
  1.551798e-02    3.122492e-05
  1.581691e-02    2.931749e-05
  1.611584e-02    2.748686e-05
  1.641477e-02    2.597991e-05
  1.671370e-02    2.457385e-05
  1.701263e-02    2.323597e-05
  1.731156e-02    2.203059e-05
  1.761049e-02    2.095884e-05
  1.790942e-02    1.987817e-05
  1.820835e-02    1.895517e-05
  1.850728e-02    1.814007e-05
  1.880621e-02    1.736802e-05
  1.910514e-02    1.659940e-05
  1.940407e-02    1.592339e-05
  1.970300e-02    1.528149e-05
  2.000193e-02    1.468485e-05
  2.030086e-02    1.419412e-05
  2.059979e-02    1.363682e-05
  2.089873e-02    1.313813e-05
  2.119766e-02    1.273576e-05
  2.149659e-02    1.234282e-05
  2.179552e-02    1.194273e-05
  2.209445e-02    1.156807e-05
  2.239338e-02    1.125204e-05
  2.269231e-02    1.088377e-05
  2.299124e-02    1.060180e-05
  2.329017e-02    1.029283e-05
  2.358910e-02    1.001462e-05
  2.388803e-02    9.831386e-06
  2.418696e-02    9.650464e-06
  2.448589e-02    9.350067e-06
  2.478482e-02    9.133099e-06
  2.508375e-02    8.920672e-06
  2.538268e-02    8.792897e-06
  2.568161e-02    8.663782e-06
  2.598054e-02    8.515040e-06
  2.627947e-02    8.400634e-06
  2.657840e-02    8.262420e-06
  2.687733e-02    8.117311e-06
  2.717626e-02    7.988132e-06
  2.747519e-02    7.856433e-06
  2.777412e-02    7.765152e-06
  2.807305e-02    7.673150e-06
  2.837198e-02    7.549273e-06
  2.867092e-02    7.460144e-06
  2.896985e-02    7.393328e-06
  2.926878e-02    7.284936e-06
  2.956771e-02    7.180382e-06
  2.986664e-02    7.052470e-06
  3.016557e-02    7.005424e-06
  3.046450e-02    6.984897e-06
  3.076343e-02    6.903577e-06
  3.106236e-02    6.839281e-06
  3.136129e-02    6.757999e-06
  3.166022e-02    6.684653e-06
  3.195915e-02    6.595223e-06
  3.225808e-02    6.546290e-06
  3.255701e-02    6.500002e-06
  3.285594e-02    6.465668e-06
  3.315487e-02    6.350990e-06
  3.345380e-02    6.268056e-06
  3.375273e-02    6.243881e-06
  3.405166e-02    6.181257e-06
  3.435059e-02    6.144408e-06
  3.464952e-02    6.091754e-06
  3.494845e-02    6.046580e-06
  3.524738e-02    5.988712e-06
  3.554631e-02    5.943833e-06
  3.584524e-02    5.900260e-06
  3.614417e-02    5.821691e-06
  3.644310e-02    5.775690e-06
  3.674204e-02    5.735600e-06
  3.704097e-02    5.727354e-06
  3.733990e-02    5.698895e-06
  3.763883e-02    5.662416e-06
  3.793776e-02    5.600106e-06
  3.823669e-02    5.572644e-06
  3.853562e-02    5.534111e-06
  3.883455e-02    5.491719e-06
  3.913348e-02    5.464217e-06
  3.943241e-02    5.428887e-06
  3.973134e-02    5.390261e-06
  4.003027e-02    5.367212e-06
  4.032920e-02    5.315644e-06
  4.062813e-02    5.293834e-06
  4.092706e-02    5.283507e-06
  4.122599e-02    5.242558e-06
  4.152492e-02    5.223689e-06
  4.182385e-02    5.224496e-06
  4.212278e-02    5.175560e-06
  4.242171e-02    5.182886e-06
  4.272064e-02    5.184631e-06
  4.301957e-02    5.174764e-06
  4.331850e-02    5.150219e-06
  4.361743e-02    5.138414e-06
  4.391636e-02    5.128108e-06
  4.421529e-02    5.129039e-06
  4.451423e-02    5.108728e-06
  4.481316e-02    5.070007e-06
  4.511209e-02    5.060511e-06
  4.541102e-02    5.071812e-06
  4.570995e-02    5.062843e-06
  4.600888e-02    5.055777e-06
  4.630781e-02    5.039828e-06
  4.660674e-02    5.014326e-06
  4.690567e-02    5.017651e-06
  4.720460e-02    5.025173e-06
  4.750353e-02    5.069749e-06
  4.780246e-02    5.061609e-06
  4.810139e-02    5.031192e-06
  4.840032e-02    5.027820e-06
  4.869925e-02    5.036488e-06
  4.899818e-02    5.027870e-06
  4.929711e-02    5.001470e-06
  4.959604e-02    5.022005e-06
  4.989497e-02    5.056275e-06
  5.019390e-02    5.061150e-06
  5.049283e-02    5.026889e-06
  5.079176e-02    5.029863e-06
  5.109069e-02    5.050520e-06
  5.138962e-02    5.073239e-06
  5.168855e-02    5.156843e-06
  5.198748e-02    5.250594e-06
  5.228642e-02    5.198655e-06
  5.258535e-02    5.072610e-06
  5.288428e-02    5.021428e-06
  5.318321e-02    5.033291e-06
  5.348214e-02    5.038296e-06
  5.378107e-02    5.022137e-06
  5.408000e-02    5.019594e-06
  5.437893e-02    4.984682e-06
  5.467786e-02    5.008962e-06
  5.497679e-02    5.003796e-06
  5.527572e-02    4.998564e-06
  5.557465e-02    5.029527e-06
  5.587358e-02    5.047009e-06
  5.617251e-02    5.009481e-06
  5.647144e-02    5.016025e-06
  5.677037e-02    5.023809e-06
  5.706930e-02    5.048640e-06
  5.736823e-02    5.053265e-06
  5.766716e-02    5.037588e-06
  5.796609e-02    5.030332e-06
  5.826502e-02    5.049834e-06
  5.856395e-02    5.078286e-06
  5.886288e-02    5.118487e-06
  5.916181e-02    5.112562e-06
  5.946074e-02    5.093320e-06
  5.975967e-02    5.116865e-06
  6.005861e-02    5.136342e-06
  6.035754e-02    5.155259e-06
  6.065647e-02    5.162333e-06
  6.095540e-02    5.186914e-06
  6.125433e-02    5.268798e-06
  6.155326e-02    5.279428e-06
  6.185219e-02    5.248088e-06
  6.215112e-02    5.201761e-06
  6.245005e-02    5.177369e-06
  6.274898e-02    5.169277e-06
  6.304791e-02    5.172138e-06
  6.334684e-02    5.199671e-06
  6.364577e-02    5.230799e-06
  6.394470e-02    5.213450e-06
  6.424363e-02    5.207316e-06
  6.454256e-02    5.241892e-06
  6.484149e-02    5.267408e-06
  6.514042e-02    5.272821e-06
  6.543935e-02    5.267323e-06
  6.573828e-02    5.291034e-06
  6.603721e-02    5.312685e-06
  6.633614e-02    5.293962e-06
  6.663507e-02    5.290739e-06
  6.693400e-02    5.279090e-06
  6.723293e-02    5.308130e-06
  6.753186e-02    5.325263e-06
  6.783080e-02    5.334463e-06
  6.812973e-02    5.348831e-06
  6.842866e-02    5.359682e-06
  6.872759e-02    5.368473e-06
  6.902652e-02    5.375095e-06
  6.932545e-02    5.379271e-06
  6.962438e-02    5.385547e-06
  6.992331e-02    5.389935e-06
  7.022224e-02    5.381392e-06
  7.052117e-02    5.407813e-06
  7.082010e-02    5.415978e-06
  7.111903e-02    5.427891e-06
  7.141796e-02    5.419879e-06
  7.171689e-02    5.442182e-06
  7.201582e-02    5.467692e-06
  7.231475e-02    5.499003e-06
  7.261368e-02    5.491729e-06
  7.291261e-02    5.469728e-06
  7.321154e-02    5.478536e-06
  7.351047e-02    5.487582e-06
  7.380940e-02    5.483690e-06
  7.410833e-02    5.477380e-06
  7.440726e-02    5.479481e-06
  7.470619e-02    5.453162e-06
  7.500512e-02    5.490002e-06
  7.530405e-02    5.499987e-06
  7.560299e-02    5.474414e-06
  7.590192e-02    5.468336e-06
  7.620085e-02    5.470005e-06
  7.649978e-02    5.481658e-06
  7.679871e-02    5.488692e-06
  7.709764e-02    5.487033e-06
  7.739657e-02    5.484371e-06
  7.769550e-02    5.484560e-06
  7.799443e-02    5.468054e-06
  7.829336e-02    5.496892e-06
  7.859229e-02    5.490412e-06
  7.889122e-02    5.478202e-06
  7.919015e-02    5.461120e-06
  7.948908e-02    5.447705e-06
  7.978801e-02    5.479631e-06
  8.008694e-02    5.483093e-06
  8.038587e-02    5.492804e-06
  8.068480e-02    5.479620e-06
  8.098373e-02    5.463738e-06
  8.128266e-02    5.440518e-06
  8.158159e-02    5.411511e-06
  8.188052e-02    5.415462e-06
  8.217945e-02    5.425591e-06
  8.247838e-02    5.423874e-06
  8.277731e-02    5.428342e-06
  8.307624e-02    5.420952e-06
  8.337518e-02    5.418156e-06
  8.367411e-02    5.425434e-06
  8.397304e-02    5.404034e-06
  8.427197e-02    5.376537e-06
  8.457090e-02    5.385530e-06
  8.486983e-02    5.388301e-06
  8.516876e-02    5.389550e-06
  8.546769e-02    5.359886e-06
  8.576662e-02    5.362338e-06
  8.606555e-02    5.353829e-06
  8.636448e-02    5.340921e-06
  8.666341e-02    5.330714e-06
  8.696234e-02    5.332245e-06
  8.726127e-02    5.301237e-06
  8.756020e-02    5.299328e-06
  8.785913e-02    5.303415e-06
  8.815806e-02    5.269179e-06
  8.845699e-02    5.281249e-06
  8.875592e-02    5.286349e-06
  8.905485e-02    5.270426e-06
  8.935378e-02    5.247669e-06
  8.965271e-02    5.230095e-06
  8.995164e-02    5.239485e-06
  9.025057e-02    5.219838e-06
  9.054950e-02    5.194315e-06
  9.084843e-02    5.193577e-06
  9.114737e-02    5.220969e-06
  9.144630e-02    5.219063e-06
  9.174523e-02    5.173153e-06
  9.204416e-02    5.178432e-06
  9.234309e-02    5.171510e-06
  9.264202e-02    5.156264e-06
  9.294095e-02    5.150012e-06
  9.323988e-02    5.136581e-06
  9.353881e-02    5.140650e-06
  9.383774e-02    5.132875e-06
  9.413667e-02    5.110408e-06
  9.443560e-02    5.094355e-06
  9.473453e-02    5.098735e-06
  9.503346e-02    5.086507e-06
  9.533239e-02    5.087658e-06
  9.563132e-02    5.094310e-06
  9.593025e-02    5.080473e-06
  9.622918e-02    5.081943e-06
  9.652811e-02    5.084477e-06
  9.682704e-02    5.089916e-06
  9.712597e-02    5.088649e-06
  9.742490e-02    5.076458e-06
  9.772383e-02    5.061157e-06
  9.802276e-02    5.028385e-06
  9.832169e-02    4.998692e-06
  9.862062e-02    4.993826e-06
  9.891956e-02    4.976738e-06
  9.921849e-02    4.953950e-06
  9.951742e-02    4.960613e-06
  9.981635e-02    4.926373e-06
  1.001153e-01    4.900484e-06
  1.004142e-01    4.913245e-06
  1.007131e-01    4.896513e-06
  1.010121e-01    4.875387e-06
  1.013110e-01    4.875977e-06
  1.016099e-01    4.865533e-06
  1.019089e-01    4.834266e-06
  1.022078e-01    4.829458e-06
  1.025067e-01    4.836593e-06
  1.028057e-01    4.851590e-06
  1.031046e-01    4.817927e-06
  1.034035e-01    4.824071e-06
  1.037024e-01    4.800576e-06
  1.040014e-01    4.787976e-06
  1.043003e-01    4.790135e-06
  1.045992e-01    4.758858e-06
  1.048982e-01    4.750324e-06
  1.051971e-01    4.763187e-06
  1.054960e-01    4.761400e-06
  1.057950e-01    4.717074e-06
  1.060939e-01    4.709566e-06
  1.063928e-01    4.730569e-06
  1.066917e-01    4.723307e-06
  1.069907e-01    4.692095e-06
  1.072896e-01    4.663441e-06
  1.075885e-01    4.687996e-06
  1.078875e-01    4.691031e-06
  1.081864e-01    4.669905e-06
  1.084853e-01    4.645120e-06
  1.087843e-01    4.651638e-06
  1.090832e-01    4.632226e-06
  1.093821e-01    4.644314e-06
  1.096810e-01    4.616693e-06
  1.099800e-01    4.571875e-06
  1.102789e-01    4.549100e-06
  1.105778e-01    4.572848e-06
  1.108768e-01    4.567694e-06
  1.111757e-01    4.543229e-06
  1.114746e-01    4.522554e-06
  1.117736e-01    4.539987e-06
  1.120725e-01    4.527108e-06
  1.123714e-01    4.491814e-06
  1.126704e-01    4.479582e-06
  1.129693e-01    4.461119e-06
  1.132682e-01    4.465670e-06
  1.135671e-01    4.450877e-06
  1.138661e-01    4.424339e-06
  1.141650e-01    4.421469e-06
  1.144639e-01    4.425303e-06
  1.147629e-01    4.425459e-06
  1.150618e-01    4.425105e-06
  1.153607e-01    4.427903e-06
  1.156597e-01    4.407877e-06
  1.159586e-01    4.388319e-06
  1.162575e-01    4.393891e-06
  1.165564e-01    4.376241e-06
  1.168554e-01    4.391555e-06
  1.171543e-01    4.424347e-06
  1.174532e-01    4.397320e-06
  1.177522e-01    4.376772e-06
  1.180511e-01    4.338413e-06
  1.183500e-01    4.362198e-06
  1.186490e-01    4.369344e-06
  1.189479e-01    4.348295e-06
  1.192468e-01    4.308934e-06
  1.195458e-01    4.295442e-06
  1.198447e-01    4.314893e-06
  1.201436e-01    4.266109e-06
  1.204425e-01    4.271643e-06
  1.207415e-01    4.124792e-06
  1.210404e-01    3.459404e-06
  1.213393e-01    0.000000e+00
  1.216383e-01    0.000000e+00
  1.219372e-01    0.000000e+00
  1.222361e-01    0.000000e+00
  1.225351e-01    0.000000e+00
  1.228340e-01    0.000000e+00
  1.231329e-01    0.000000e+00
  1.234318e-01    0.000000e+00
  1.237308e-01    0.000000e+00
  1.240297e-01    0.000000e+00
  1.243286e-01    0.000000e+00
  1.246276e-01    0.000000e+00
  1.249265e-01    0.000000e+00
  1.252254e-01    0.000000e+00
  1.255244e-01    0.000000e+00
  1.258233e-01    0.000000e+00
  1.261222e-01    0.000000e+00
  1.264212e-01    0.000000e+00
  1.267201e-01    0.000000e+00
  1.270190e-01    0.000000e+00
  1.273179e-01    0.000000e+00
  1.276169e-01    0.000000e+00
  1.279158e-01    0.000000e+00
  1.282147e-01    0.000000e+00
  1.285137e-01    0.000000e+00
  1.288126e-01    0.000000e+00
  1.291115e-01    0.000000e+00
  1.294105e-01    0.000000e+00
  1.297094e-01    0.000000e+00
  1.300083e-01    0.000000e+00
  1.303072e-01    0.000000e+00
  1.306062e-01    0.000000e+00
  1.309051e-01    0.000000e+00
  1.312040e-01    0.000000e+00
  1.315030e-01    0.000000e+00
  1.318019e-01    0.000000e+00
  1.321008e-01    0.000000e+00
  1.323998e-01    0.000000e+00
  1.326987e-01    0.000000e+00
  1.329976e-01    0.000000e+00
  1.332965e-01    0.000000e+00
  1.335955e-01    0.000000e+00
  1.338944e-01    0.000000e+00
  1.341933e-01    0.000000e+00
  1.344923e-01    0.000000e+00
  1.347912e-01    0.000000e+00
  1.350901e-01    0.000000e+00
  1.353891e-01    0.000000e+00
  1.356880e-01    0.000000e+00
  1.359869e-01    0.000000e+00
  1.362859e-01    0.000000e+00
  1.365848e-01    0.000000e+00
  1.368837e-01    0.000000e+00
  1.371826e-01    0.000000e+00
  1.374816e-01    0.000000e+00
  1.377805e-01    0.000000e+00
  1.380794e-01    0.000000e+00
  1.383784e-01    0.000000e+00
  1.386773e-01    0.000000e+00
  1.389762e-01    0.000000e+00
  1.392752e-01    0.000000e+00
  1.395741e-01    0.000000e+00
  1.398730e-01    0.000000e+00
  1.401719e-01    0.000000e+00
  1.404709e-01    0.000000e+00
  1.407698e-01    0.000000e+00
  1.410687e-01    0.000000e+00
  1.413677e-01    0.000000e+00
  1.416666e-01    0.000000e+00
  1.419655e-01    0.000000e+00
  1.422645e-01    0.000000e+00
  1.425634e-01    0.000000e+00
  1.428623e-01    0.000000e+00
  1.431613e-01    0.000000e+00
  1.434602e-01    0.000000e+00
  1.437591e-01    0.000000e+00
  1.440580e-01    0.000000e+00
  1.443570e-01    0.000000e+00
  1.446559e-01    0.000000e+00
  1.449548e-01    0.000000e+00
  1.452538e-01    0.000000e+00
  1.455527e-01    0.000000e+00
  1.458516e-01    0.000000e+00
  1.461506e-01    0.000000e+00
  1.464495e-01    0.000000e+00
  1.467484e-01    0.000000e+00
  1.470473e-01    0.000000e+00
  1.473463e-01    0.000000e+00
  1.476452e-01    0.000000e+00
  1.479441e-01    0.000000e+00
  1.482431e-01    0.000000e+00
  1.485420e-01    0.000000e+00
  1.488409e-01    0.000000e+00
  1.491399e-01    0.000000e+00
  1.494388e-01    0.000000e+00
  1.497377e-01    0.000000e+00
  1.500367e-01    0.000000e+00
  1.503356e-01    0.000000e+00
  1.506345e-01    0.000000e+00
  1.509334e-01    0.000000e+00
  1.512324e-01    0.000000e+00
  1.515313e-01    0.000000e+00
  1.518302e-01    0.000000e+00
  1.521292e-01    0.000000e+00
  1.524281e-01    0.000000e+00
  1.527270e-01    0.000000e+00
  1.530260e-01    0.000000e+00
  1.533249e-01    0.000000e+00
  1.536238e-01    0.000000e+00
