# == pyFAI calibration ==
# Distance Sample to Detector: 2.266 m
# PONI: 5.659e-02, 4.293e-02 m
# Rotations: 0.000000 0.000000 0.000000 rad
# 
# == Fit2d calibration ==
# Distance Sample-beamCenter: 2266.000 mm
# Center: x=249.594, y=329.012 pix
# Tilt: 0.000 deg  TiltPlanRot: 0.000 deg
# 
# Detector Pilatus 300k	 PixelSize= 1.720e-04, 1.720e-04 m
#    Detector has a mask: True 
#    Detector has a dark current: False 
#    detector has a flat field: False 
# 
# Wavelength: 1.27818e-10 m
# Mask applied: user provided
# Dark current applied: False
# Flat field applied: False
# Polarization factor: None
# Normalization factor: 14148931.600000001
# --> MT-F127_24.419_hexanes_21.977_NaCl_50.000mgml_r1d.csv
#        q_A^-1             I 
  4.457554e-03    1.975657e-03
  4.756484e-03    1.537392e-03
  5.055415e-03    1.088987e-03
  5.354345e-03    7.618103e-04
  5.653276e-03    5.851926e-04
  5.952206e-03    9.705165e-04
  6.251136e-03    8.842826e-04
  6.550067e-03    7.661759e-04
  6.848997e-03    6.503653e-04
  7.147927e-03    5.487711e-04
  7.446858e-03    4.672942e-04
  7.745788e-03    3.992714e-04
  8.044719e-03    3.432534e-04
  8.343649e-03    2.988091e-04
  8.642579e-03    2.609954e-04
  8.941510e-03    2.298632e-04
  9.240440e-03    2.033637e-04
  9.539371e-03    1.802646e-04
  9.838301e-03    1.604345e-04
  1.013723e-02    1.435459e-04
  1.043616e-02    1.288547e-04
  1.073509e-02    1.157870e-04
  1.103402e-02    1.048171e-04
  1.133295e-02    9.507305e-05
  1.163188e-02    8.660024e-05
  1.193081e-02    7.910871e-05
  1.222974e-02    7.254344e-05
  1.252867e-02    6.665479e-05
  1.282760e-02    6.129070e-05
  1.312654e-02    5.642093e-05
  1.342547e-02    5.236935e-05
  1.372440e-02    4.868414e-05
  1.402333e-02    4.509293e-05
  1.432226e-02    4.204885e-05
  1.462119e-02    3.901438e-05
  1.492012e-02    3.650916e-05
  1.521905e-02    3.416674e-05
  1.551798e-02    3.205103e-05
  1.581691e-02    3.010921e-05
  1.611584e-02    2.834757e-05
  1.641477e-02    2.683090e-05
  1.671370e-02    2.546546e-05
  1.701263e-02    2.414708e-05
  1.731156e-02    2.291670e-05
  1.761049e-02    2.173116e-05
  1.790942e-02    2.065687e-05
  1.820835e-02    1.971496e-05
  1.850728e-02    1.882969e-05
  1.880621e-02    1.799595e-05
  1.910514e-02    1.721502e-05
  1.940407e-02    1.651087e-05
  1.970300e-02    1.588738e-05
  2.000193e-02    1.530862e-05
  2.030086e-02    1.465191e-05
  2.059979e-02    1.410808e-05
  2.089873e-02    1.367912e-05
  2.119766e-02    1.327141e-05
  2.149659e-02    1.289948e-05
  2.179552e-02    1.250038e-05
  2.209445e-02    1.212318e-05
  2.239338e-02    1.175685e-05
  2.269231e-02    1.143869e-05
  2.299124e-02    1.114726e-05
  2.329017e-02    1.086124e-05
  2.358910e-02    1.056912e-05
  2.388803e-02    1.029390e-05
  2.418696e-02    1.010745e-05
  2.448589e-02    9.922190e-06
  2.478482e-02    9.704549e-06
  2.508375e-02    9.508491e-06
  2.538268e-02    9.312208e-06
  2.568161e-02    9.083506e-06
  2.598054e-02    8.970595e-06
  2.627947e-02    8.829109e-06
  2.657840e-02    8.662901e-06
  2.687733e-02    8.509773e-06
  2.717626e-02    8.389013e-06
  2.747519e-02    8.287147e-06
  2.777412e-02    8.196866e-06
  2.807305e-02    8.103699e-06
  2.837198e-02    7.980848e-06
  2.867092e-02    7.877787e-06
  2.896985e-02    7.745584e-06
  2.926878e-02    7.663223e-06
  2.956771e-02    7.566398e-06
  2.986664e-02    7.469730e-06
  3.016557e-02    7.392196e-06
  3.046450e-02    7.341494e-06
  3.076343e-02    7.288158e-06
  3.106236e-02    7.248957e-06
  3.136129e-02    7.211579e-06
  3.166022e-02    7.067580e-06
  3.195915e-02    6.975232e-06
  3.225808e-02    6.926416e-06
  3.255701e-02    6.879110e-06
  3.285594e-02    6.783645e-06
  3.315487e-02    6.699182e-06
  3.345380e-02    6.670933e-06
  3.375273e-02    6.641706e-06
  3.405166e-02    6.551661e-06
  3.435059e-02    6.479029e-06
  3.464952e-02    6.423417e-06
  3.494845e-02    6.398894e-06
  3.524738e-02    6.371839e-06
  3.554631e-02    6.343409e-06
  3.584524e-02    6.270040e-06
  3.614417e-02    6.208915e-06
  3.644310e-02    6.175889e-06
  3.674204e-02    6.111931e-06
  3.704097e-02    6.070567e-06
  3.733990e-02    6.016060e-06
  3.763883e-02    5.965361e-06
  3.793776e-02    5.963814e-06
  3.823669e-02    5.937197e-06
  3.853562e-02    5.871944e-06
  3.883455e-02    5.851001e-06
  3.913348e-02    5.805694e-06
  3.943241e-02    5.772114e-06
  3.973134e-02    5.730295e-06
  4.003027e-02    5.678303e-06
  4.032920e-02    5.660669e-06
  4.062813e-02    5.657670e-06
  4.092706e-02    5.645178e-06
  4.122599e-02    5.630829e-06
  4.152492e-02    5.618750e-06
  4.182385e-02    5.556707e-06
  4.212278e-02    5.530397e-06
  4.242171e-02    5.543277e-06
  4.272064e-02    5.520786e-06
  4.301957e-02    5.474851e-06
  4.331850e-02    5.457779e-06
  4.361743e-02    5.460599e-06
  4.391636e-02    5.450076e-06
  4.421529e-02    5.448920e-06
  4.451423e-02    5.409146e-06
  4.481316e-02    5.411749e-06
  4.511209e-02    5.396930e-06
  4.541102e-02    5.391497e-06
  4.570995e-02    5.379552e-06
  4.600888e-02    5.374698e-06
  4.630781e-02    5.391418e-06
  4.660674e-02    5.372596e-06
  4.690567e-02    5.363814e-06
  4.720460e-02    5.394111e-06
  4.750353e-02    5.378583e-06
  4.780246e-02    5.387409e-06
  4.810139e-02    5.345823e-06
  4.840032e-02    5.352907e-06
  4.869925e-02    5.373735e-06
  4.899818e-02    5.383115e-06
  4.929711e-02    5.383836e-06
  4.959604e-02    5.384479e-06
  4.989497e-02    5.370721e-06
  5.019390e-02    5.345615e-06
  5.049283e-02    5.375257e-06
  5.079176e-02    5.370787e-06
  5.109069e-02    5.375425e-06
  5.138962e-02    5.457270e-06
  5.168855e-02    5.537941e-06
  5.198748e-02    5.625585e-06
  5.228642e-02    5.568995e-06
  5.258535e-02    5.411301e-06
  5.288428e-02    5.368194e-06
  5.318321e-02    5.357627e-06
  5.348214e-02    5.374179e-06
  5.378107e-02    5.364412e-06
  5.408000e-02    5.360026e-06
  5.437893e-02    5.347672e-06
  5.467786e-02    5.351611e-06
  5.497679e-02    5.340402e-06
  5.527572e-02    5.338504e-06
  5.557465e-02    5.353210e-06
  5.587358e-02    5.362819e-06
  5.617251e-02    5.375768e-06
  5.647144e-02    5.379828e-06
  5.677037e-02    5.403298e-06
  5.706930e-02    5.401984e-06
  5.736823e-02    5.418127e-06
  5.766716e-02    5.413041e-06
  5.796609e-02    5.428371e-06
  5.826502e-02    5.434124e-06
  5.856395e-02    5.434592e-06
  5.886288e-02    5.435445e-06
  5.916181e-02    5.428021e-06
  5.946074e-02    5.440693e-06
  5.975967e-02    5.478641e-06
  6.005861e-02    5.489513e-06
  6.035754e-02    5.513198e-06
  6.065647e-02    5.515163e-06
  6.095540e-02    5.551262e-06
  6.125433e-02    5.600774e-06
  6.155326e-02    5.611143e-06
  6.185219e-02    5.571939e-06
  6.215112e-02    5.531081e-06
  6.245005e-02    5.538142e-06
  6.274898e-02    5.540443e-06
  6.304791e-02    5.524771e-06
  6.334684e-02    5.528448e-06
  6.364577e-02    5.535641e-06
  6.394470e-02    5.539191e-06
  6.424363e-02    5.559809e-06
  6.454256e-02    5.545020e-06
  6.484149e-02    5.566614e-06
  6.514042e-02    5.583454e-06
  6.543935e-02    5.589955e-06
  6.573828e-02    5.624085e-06
  6.603721e-02    5.641232e-06
  6.633614e-02    5.643395e-06
  6.663507e-02    5.654506e-06
  6.693400e-02    5.672787e-06
  6.723293e-02    5.654888e-06
  6.753186e-02    5.629847e-06
  6.783080e-02    5.641269e-06
  6.812973e-02    5.642476e-06
  6.842866e-02    5.662804e-06
  6.872759e-02    5.687548e-06
  6.902652e-02    5.712389e-06
  6.932545e-02    5.713176e-06
  6.962438e-02    5.732802e-06
  6.992331e-02    5.728503e-06
  7.022224e-02    5.730839e-06
  7.052117e-02    5.745339e-06
  7.082010e-02    5.722388e-06
  7.111903e-02    5.734347e-06
  7.141796e-02    5.773706e-06
  7.171689e-02    5.759076e-06
  7.201582e-02    5.758922e-06
  7.231475e-02    5.795459e-06
  7.261368e-02    5.769129e-06
  7.291261e-02    5.751651e-06
  7.321154e-02    5.765948e-06
  7.351047e-02    5.766393e-06
  7.380940e-02    5.784921e-06
  7.410833e-02    5.777333e-06
  7.440726e-02    5.756117e-06
  7.470619e-02    5.769471e-06
  7.500512e-02    5.786323e-06
  7.530405e-02    5.779576e-06
  7.560299e-02    5.783184e-06
  7.590192e-02    5.777317e-06
  7.620085e-02    5.784465e-06
  7.649978e-02    5.770439e-06
  7.679871e-02    5.775097e-06
  7.709764e-02    5.793423e-06
  7.739657e-02    5.759139e-06
  7.769550e-02    5.771268e-06
  7.799443e-02    5.752013e-06
  7.829336e-02    5.768684e-06
  7.859229e-02    5.777734e-06
  7.889122e-02    5.754042e-06
  7.919015e-02    5.740283e-06
  7.948908e-02    5.737686e-06
  7.978801e-02    5.723165e-06
  8.008694e-02    5.723484e-06
  8.038587e-02    5.743512e-06
  8.068480e-02    5.732594e-06
  8.098373e-02    5.714525e-06
  8.128266e-02    5.721642e-06
  8.158159e-02    5.719407e-06
  8.188052e-02    5.707832e-06
  8.217945e-02    5.691812e-06
  8.247838e-02    5.701538e-06
  8.277731e-02    5.694134e-06
  8.307624e-02    5.686667e-06
  8.337518e-02    5.696203e-06
  8.367411e-02    5.687291e-06
  8.397304e-02    5.668114e-06
  8.427197e-02    5.655893e-06
  8.457090e-02    5.657961e-06
  8.486983e-02    5.650169e-06
  8.516876e-02    5.664513e-06
  8.546769e-02    5.653865e-06
  8.576662e-02    5.609728e-06
  8.606555e-02    5.601355e-06
  8.636448e-02    5.604300e-06
  8.666341e-02    5.595906e-06
  8.696234e-02    5.606402e-06
  8.726127e-02    5.585371e-06
  8.756020e-02    5.574373e-06
  8.785913e-02    5.565936e-06
  8.815806e-02    5.569914e-06
  8.845699e-02    5.544756e-06
  8.875592e-02    5.543438e-06
  8.905485e-02    5.534558e-06
  8.935378e-02    5.513565e-06
  8.965271e-02    5.489741e-06
  8.995164e-02    5.457079e-06
  9.025057e-02    5.459436e-06
  9.054950e-02    5.454610e-06
  9.084843e-02    5.458561e-06
  9.114737e-02    5.470112e-06
  9.144630e-02    5.460354e-06
  9.174523e-02    5.446650e-06
  9.204416e-02    5.424263e-06
  9.234309e-02    5.390369e-06
  9.264202e-02    5.371760e-06
  9.294095e-02    5.362957e-06
  9.323988e-02    5.371669e-06
  9.353881e-02    5.376243e-06
  9.383774e-02    5.351591e-06
  9.413667e-02    5.344731e-06
  9.443560e-02    5.339650e-06
  9.473453e-02    5.320799e-06
  9.503346e-02    5.309726e-06
  9.533239e-02    5.314003e-06
  9.563132e-02    5.317486e-06
  9.593025e-02    5.292165e-06
  9.622918e-02    5.304345e-06
  9.652811e-02    5.301346e-06
  9.682704e-02    5.294160e-06
  9.712597e-02    5.304715e-06
  9.742490e-02    5.301803e-06
  9.772383e-02    5.281686e-06
  9.802276e-02    5.261758e-06
  9.832169e-02    5.213060e-06
  9.862062e-02    5.208242e-06
  9.891956e-02    5.189639e-06
  9.921849e-02    5.161968e-06
  9.951742e-02    5.166029e-06
  9.981635e-02    5.157720e-06
  1.001153e-01    5.143178e-06
  1.004142e-01    5.122371e-06
  1.007131e-01    5.121507e-06
  1.010121e-01    5.095807e-06
  1.013110e-01    5.090109e-06
  1.016099e-01    5.101397e-06
  1.019089e-01    5.087858e-06
  1.022078e-01    5.086699e-06
  1.025067e-01    5.066328e-06
  1.028057e-01    5.048751e-06
  1.031046e-01    5.039428e-06
  1.034035e-01    5.037683e-06
  1.037024e-01    5.013301e-06
  1.040014e-01    5.013796e-06
  1.043003e-01    5.003622e-06
  1.045992e-01    5.003557e-06
  1.048982e-01    5.013451e-06
  1.051971e-01    4.989578e-06
  1.054960e-01    4.960437e-06
  1.057950e-01    4.955788e-06
  1.060939e-01    4.943467e-06
  1.063928e-01    4.957581e-06
  1.066917e-01    4.938977e-06
  1.069907e-01    4.930775e-06
  1.072896e-01    4.912217e-06
  1.075885e-01    4.917068e-06
  1.078875e-01    4.929864e-06
  1.081864e-01    4.919233e-06
  1.084853e-01    4.907483e-06
  1.087843e-01    4.896123e-06
  1.090832e-01    4.890137e-06
  1.093821e-01    4.870261e-06
  1.096810e-01    4.837446e-06
  1.099800e-01    4.818271e-06
  1.102789e-01    4.813563e-06
  1.105778e-01    4.790077e-06
  1.108768e-01    4.781362e-06
  1.111757e-01    4.797407e-06
  1.114746e-01    4.787293e-06
  1.117736e-01    4.783569e-06
  1.120725e-01    4.761079e-06
  1.123714e-01    4.743845e-06
  1.126704e-01    4.735408e-06
  1.129693e-01    4.698029e-06
  1.132682e-01    4.678431e-06
  1.135671e-01    4.657092e-06
  1.138661e-01    4.646365e-06
  1.141650e-01    4.645153e-06
  1.144639e-01    4.652673e-06
  1.147629e-01    4.643513e-06
  1.150618e-01    4.628661e-06
  1.153607e-01    4.615037e-06
  1.156597e-01    4.590897e-06
  1.159586e-01    4.581187e-06
  1.162575e-01    4.606993e-06
  1.165564e-01    4.609226e-06
  1.168554e-01    4.601212e-06
  1.171543e-01    4.612193e-06
  1.174532e-01    4.580810e-06
  1.177522e-01    4.517599e-06
  1.180511e-01    4.570357e-06
  1.183500e-01    4.557648e-06
  1.186490e-01    4.554163e-06
  1.189479e-01    4.595434e-06
  1.192468e-01    4.588528e-06
  1.195458e-01    4.530863e-06
  1.198447e-01    4.520854e-06
  1.201436e-01    4.512405e-06
  1.204425e-01    4.342609e-06
  1.207415e-01    4.172832e-06
  1.210404e-01    4.244444e-06
  1.213393e-01    0.000000e+00
  1.216383e-01    0.000000e+00
  1.219372e-01    0.000000e+00
  1.222361e-01    0.000000e+00
  1.225351e-01    0.000000e+00
  1.228340e-01    0.000000e+00
  1.231329e-01    0.000000e+00
  1.234318e-01    0.000000e+00
  1.237308e-01    0.000000e+00
  1.240297e-01    0.000000e+00
  1.243286e-01    0.000000e+00
  1.246276e-01    0.000000e+00
  1.249265e-01    0.000000e+00
  1.252254e-01    0.000000e+00
  1.255244e-01    0.000000e+00
  1.258233e-01    0.000000e+00
  1.261222e-01    0.000000e+00
  1.264212e-01    0.000000e+00
  1.267201e-01    0.000000e+00
  1.270190e-01    0.000000e+00
  1.273179e-01    0.000000e+00
  1.276169e-01    0.000000e+00
  1.279158e-01    0.000000e+00
  1.282147e-01    0.000000e+00
  1.285137e-01    0.000000e+00
  1.288126e-01    0.000000e+00
  1.291115e-01    0.000000e+00
  1.294105e-01    0.000000e+00
  1.297094e-01    0.000000e+00
  1.300083e-01    0.000000e+00
  1.303072e-01    0.000000e+00
  1.306062e-01    0.000000e+00
  1.309051e-01    0.000000e+00
  1.312040e-01    0.000000e+00
  1.315030e-01    0.000000e+00
  1.318019e-01    0.000000e+00
  1.321008e-01    0.000000e+00
  1.323998e-01    0.000000e+00
  1.326987e-01    0.000000e+00
  1.329976e-01    0.000000e+00
  1.332965e-01    0.000000e+00
  1.335955e-01    0.000000e+00
  1.338944e-01    0.000000e+00
  1.341933e-01    0.000000e+00
  1.344923e-01    0.000000e+00
  1.347912e-01    0.000000e+00
  1.350901e-01    0.000000e+00
  1.353891e-01    0.000000e+00
  1.356880e-01    0.000000e+00
  1.359869e-01    0.000000e+00
  1.362859e-01    0.000000e+00
  1.365848e-01    0.000000e+00
  1.368837e-01    0.000000e+00
  1.371826e-01    0.000000e+00
  1.374816e-01    0.000000e+00
  1.377805e-01    0.000000e+00
  1.380794e-01    0.000000e+00
  1.383784e-01    0.000000e+00
  1.386773e-01    0.000000e+00
  1.389762e-01    0.000000e+00
  1.392752e-01    0.000000e+00
  1.395741e-01    0.000000e+00
  1.398730e-01    0.000000e+00
  1.401719e-01    0.000000e+00
  1.404709e-01    0.000000e+00
  1.407698e-01    0.000000e+00
  1.410687e-01    0.000000e+00
  1.413677e-01    0.000000e+00
  1.416666e-01    0.000000e+00
  1.419655e-01    0.000000e+00
  1.422645e-01    0.000000e+00
  1.425634e-01    0.000000e+00
  1.428623e-01    0.000000e+00
  1.431613e-01    0.000000e+00
  1.434602e-01    0.000000e+00
  1.437591e-01    0.000000e+00
  1.440580e-01    0.000000e+00
  1.443570e-01    0.000000e+00
  1.446559e-01    0.000000e+00
  1.449548e-01    0.000000e+00
  1.452538e-01    0.000000e+00
  1.455527e-01    0.000000e+00
  1.458516e-01    0.000000e+00
  1.461506e-01    0.000000e+00
  1.464495e-01    0.000000e+00
  1.467484e-01    0.000000e+00
  1.470473e-01    0.000000e+00
  1.473463e-01    0.000000e+00
  1.476452e-01    0.000000e+00
  1.479441e-01    0.000000e+00
  1.482431e-01    0.000000e+00
  1.485420e-01    0.000000e+00
  1.488409e-01    0.000000e+00
  1.491399e-01    0.000000e+00
  1.494388e-01    0.000000e+00
  1.497377e-01    0.000000e+00
  1.500367e-01    0.000000e+00
  1.503356e-01    0.000000e+00
  1.506345e-01    0.000000e+00
  1.509334e-01    0.000000e+00
  1.512324e-01    0.000000e+00
  1.515313e-01    0.000000e+00
  1.518302e-01    0.000000e+00
  1.521292e-01    0.000000e+00
  1.524281e-01    0.000000e+00
  1.527270e-01    0.000000e+00
  1.530260e-01    0.000000e+00
  1.533249e-01    0.000000e+00
  1.536238e-01    0.000000e+00
