# == pyFAI calibration ==
# Distance Sample to Detector: 2.266 m
# PONI: 5.659e-02, 4.293e-02 m
# Rotations: 0.000000 0.000000 0.000000 rad
# 
# == Fit2d calibration ==
# Distance Sample-beamCenter: 2266.000 mm
# Center: x=249.594, y=329.012 pix
# Tilt: 0.000 deg  TiltPlanRot: 0.000 deg
# 
# Detector Pilatus 300k	 PixelSize= 1.720e-04, 1.720e-04 m
#    Detector has a mask: True 
#    Detector has a dark current: False 
#    detector has a flat field: False 
# 
# Wavelength: 1.27818e-10 m
# Mask applied: user provided
# Dark current applied: False
# Flat field applied: False
# Polarization factor: None
# Normalization factor: 22637039.2
# --> MT-F127_34.540_hexanes_58.718_EtOH_0.000_NaCl_100.273mgml_2_r1d.csv
#        q_A^-1             I 
  4.457554e-03    1.980717e-03
  4.756484e-03    1.594436e-03
  5.055415e-03    1.176727e-03
  5.354345e-03    8.638020e-04
  5.653276e-03    6.910544e-04
  5.952206e-03    1.113671e-03
  6.251136e-03    1.013882e-03
  6.550067e-03    8.762503e-04
  6.848997e-03    7.428242e-04
  7.147927e-03    6.282068e-04
  7.446858e-03    5.380767e-04
  7.745788e-03    4.627460e-04
  8.044719e-03    3.993856e-04
  8.343649e-03    3.489089e-04
  8.642579e-03    3.066682e-04
  8.941510e-03    2.702853e-04
  9.240440e-03    2.393008e-04
  9.539371e-03    2.124924e-04
  9.838301e-03    1.892514e-04
  1.013723e-02    1.697423e-04
  1.043616e-02    1.527677e-04
  1.073509e-02    1.373025e-04
  1.103402e-02    1.243169e-04
  1.133295e-02    1.126527e-04
  1.163188e-02    1.024541e-04
  1.193081e-02    9.368845e-05
  1.222974e-02    8.555943e-05
  1.252867e-02    7.845653e-05
  1.282760e-02    7.201320e-05
  1.312654e-02    6.625051e-05
  1.342547e-02    6.117341e-05
  1.372440e-02    5.652097e-05
  1.402333e-02    5.257515e-05
  1.432226e-02    4.880858e-05
  1.462119e-02    4.533736e-05
  1.492012e-02    4.241285e-05
  1.521905e-02    3.966055e-05
  1.551798e-02    3.712534e-05
  1.581691e-02    3.479425e-05
  1.611584e-02    3.265476e-05
  1.641477e-02    3.079971e-05
  1.671370e-02    2.906536e-05
  1.701263e-02    2.739803e-05
  1.731156e-02    2.588840e-05
  1.761049e-02    2.448281e-05
  1.790942e-02    2.324471e-05
  1.820835e-02    2.215432e-05
  1.850728e-02    2.107453e-05
  1.880621e-02    2.002662e-05
  1.910514e-02    1.913592e-05
  1.940407e-02    1.838386e-05
  1.970300e-02    1.761810e-05
  2.000193e-02    1.693108e-05
  2.030086e-02    1.619382e-05
  2.059979e-02    1.556284e-05
  2.089873e-02    1.502354e-05
  2.119766e-02    1.439414e-05
  2.149659e-02    1.391163e-05
  2.179552e-02    1.350016e-05
  2.209445e-02    1.299899e-05
  2.239338e-02    1.257103e-05
  2.269231e-02    1.222695e-05
  2.299124e-02    1.183484e-05
  2.329017e-02    1.149542e-05
  2.358910e-02    1.122414e-05
  2.388803e-02    1.095089e-05
  2.418696e-02    1.066087e-05
  2.448589e-02    1.036466e-05
  2.478482e-02    1.012764e-05
  2.508375e-02    9.908156e-06
  2.538268e-02    9.706424e-06
  2.568161e-02    9.502854e-06
  2.598054e-02    9.323066e-06
  2.627947e-02    9.146351e-06
  2.657840e-02    8.980640e-06
  2.687733e-02    8.788317e-06
  2.717626e-02    8.635805e-06
  2.747519e-02    8.520800e-06
  2.777412e-02    8.394383e-06
  2.807305e-02    8.265465e-06
  2.837198e-02    8.133499e-06
  2.867092e-02    8.007659e-06
  2.896985e-02    7.908716e-06
  2.926878e-02    7.765187e-06
  2.956771e-02    7.671321e-06
  2.986664e-02    7.576725e-06
  3.016557e-02    7.451488e-06
  3.046450e-02    7.362290e-06
  3.076343e-02    7.299032e-06
  3.106236e-02    7.241605e-06
  3.136129e-02    7.173665e-06
  3.166022e-02    7.093864e-06
  3.195915e-02    7.009187e-06
  3.225808e-02    6.912743e-06
  3.255701e-02    6.837804e-06
  3.285594e-02    6.792212e-06
  3.315487e-02    6.731429e-06
  3.345380e-02    6.635444e-06
  3.375273e-02    6.552968e-06
  3.405166e-02    6.491984e-06
  3.435059e-02    6.449008e-06
  3.464952e-02    6.381613e-06
  3.494845e-02    6.367917e-06
  3.524738e-02    6.318714e-06
  3.554631e-02    6.243903e-06
  3.584524e-02    6.177869e-06
  3.614417e-02    6.128084e-06
  3.644310e-02    6.087909e-06
  3.674204e-02    6.031904e-06
  3.704097e-02    5.999140e-06
  3.733990e-02    5.962662e-06
  3.763883e-02    5.909890e-06
  3.793776e-02    5.856137e-06
  3.823669e-02    5.837561e-06
  3.853562e-02    5.793686e-06
  3.883455e-02    5.740298e-06
  3.913348e-02    5.705562e-06
  3.943241e-02    5.666889e-06
  3.973134e-02    5.661028e-06
  4.003027e-02    5.645901e-06
  4.032920e-02    5.591593e-06
  4.062813e-02    5.572454e-06
  4.092706e-02    5.547352e-06
  4.122599e-02    5.527306e-06
  4.152492e-02    5.498117e-06
  4.182385e-02    5.480897e-06
  4.212278e-02    5.464308e-06
  4.242171e-02    5.427807e-06
  4.272064e-02    5.406629e-06
  4.301957e-02    5.382997e-06
  4.331850e-02    5.357233e-06
  4.361743e-02    5.352270e-06
  4.391636e-02    5.351787e-06
  4.421529e-02    5.331560e-06
  4.451423e-02    5.342979e-06
  4.481316e-02    5.329238e-06
  4.511209e-02    5.304170e-06
  4.541102e-02    5.310431e-06
  4.570995e-02    5.310065e-06
  4.600888e-02    5.273769e-06
  4.630781e-02    5.239032e-06
  4.660674e-02    5.249030e-06
  4.690567e-02    5.254672e-06
  4.720460e-02    5.243492e-06
  4.750353e-02    5.235479e-06
  4.780246e-02    5.218520e-06
  4.810139e-02    5.235026e-06
  4.840032e-02    5.248267e-06
  4.869925e-02    5.212395e-06
  4.899818e-02    5.201303e-06
  4.929711e-02    5.234209e-06
  4.959604e-02    5.237268e-06
  4.989497e-02    5.205490e-06
  5.019390e-02    5.226394e-06
  5.049283e-02    5.199765e-06
  5.079176e-02    5.212176e-06
  5.109069e-02    5.236740e-06
  5.138962e-02    5.260923e-06
  5.168855e-02    5.324152e-06
  5.198748e-02    5.389830e-06
  5.228642e-02    5.363894e-06
  5.258535e-02    5.239313e-06
  5.288428e-02    5.183867e-06
  5.318321e-02    5.192875e-06
  5.348214e-02    5.210979e-06
  5.378107e-02    5.218065e-06
  5.408000e-02    5.209549e-06
  5.437893e-02    5.194575e-06
  5.467786e-02    5.184033e-06
  5.497679e-02    5.214913e-06
  5.527572e-02    5.245889e-06
  5.557465e-02    5.239404e-06
  5.587358e-02    5.219728e-06
  5.617251e-02    5.238353e-06
  5.647144e-02    5.251388e-06
  5.677037e-02    5.254918e-06
  5.706930e-02    5.262769e-06
  5.736823e-02    5.255173e-06
  5.766716e-02    5.244433e-06
  5.796609e-02    5.247501e-06
  5.826502e-02    5.265861e-06
  5.856395e-02    5.269071e-06
  5.886288e-02    5.285575e-06
  5.916181e-02    5.289318e-06
  5.946074e-02    5.300582e-06
  5.975967e-02    5.318264e-06
  6.005861e-02    5.342446e-06
  6.035754e-02    5.358864e-06
  6.065647e-02    5.361268e-06
  6.095540e-02    5.383181e-06
  6.125433e-02    5.421501e-06
  6.155326e-02    5.465855e-06
  6.185219e-02    5.432347e-06
  6.215112e-02    5.388022e-06
  6.245005e-02    5.378767e-06
  6.274898e-02    5.385503e-06
  6.304791e-02    5.399311e-06
  6.334684e-02    5.407647e-06
  6.364577e-02    5.414295e-06
  6.394470e-02    5.430928e-06
  6.424363e-02    5.441094e-06
  6.454256e-02    5.433275e-06
  6.484149e-02    5.459077e-06
  6.514042e-02    5.466450e-06
  6.543935e-02    5.496554e-06
  6.573828e-02    5.513126e-06
  6.603721e-02    5.509344e-06
  6.633614e-02    5.512466e-06
  6.663507e-02    5.504178e-06
  6.693400e-02    5.514005e-06
  6.723293e-02    5.530464e-06
  6.753186e-02    5.537434e-06
  6.783080e-02    5.546821e-06
  6.812973e-02    5.555728e-06
  6.842866e-02    5.572339e-06
  6.872759e-02    5.576235e-06
  6.902652e-02    5.569071e-06
  6.932545e-02    5.570507e-06
  6.962438e-02    5.614929e-06
  6.992331e-02    5.622552e-06
  7.022224e-02    5.601762e-06
  7.052117e-02    5.579693e-06
  7.082010e-02    5.595867e-06
  7.111903e-02    5.636554e-06
  7.141796e-02    5.642343e-06
  7.171689e-02    5.643697e-06
  7.201582e-02    5.659815e-06
  7.231475e-02    5.651286e-06
  7.261368e-02    5.646493e-06
  7.291261e-02    5.674378e-06
  7.321154e-02    5.688224e-06
  7.351047e-02    5.682254e-06
  7.380940e-02    5.657682e-06
  7.410833e-02    5.680788e-06
  7.440726e-02    5.664178e-06
  7.470619e-02    5.682181e-06
  7.500512e-02    5.699263e-06
  7.530405e-02    5.685474e-06
  7.560299e-02    5.688429e-06
  7.590192e-02    5.689255e-06
  7.620085e-02    5.692809e-06
  7.649978e-02    5.706036e-06
  7.679871e-02    5.692261e-06
  7.709764e-02    5.689064e-06
  7.739657e-02    5.672154e-06
  7.769550e-02    5.677823e-06
  7.799443e-02    5.693115e-06
  7.829336e-02    5.709017e-06
  7.859229e-02    5.710115e-06
  7.889122e-02    5.685222e-06
  7.919015e-02    5.697880e-06
  7.948908e-02    5.700939e-06
  7.978801e-02    5.678222e-06
  8.008694e-02    5.672006e-06
  8.038587e-02    5.665119e-06
  8.068480e-02    5.657121e-06
  8.098373e-02    5.658356e-06
  8.128266e-02    5.666864e-06
  8.158159e-02    5.660898e-06
  8.188052e-02    5.657340e-06
  8.217945e-02    5.636690e-06
  8.247838e-02    5.627098e-06
  8.277731e-02    5.625086e-06
  8.307624e-02    5.627806e-06
  8.337518e-02    5.618083e-06
  8.367411e-02    5.622271e-06
  8.397304e-02    5.630908e-06
  8.427197e-02    5.615366e-06
  8.457090e-02    5.594784e-06
  8.486983e-02    5.576072e-06
  8.516876e-02    5.582557e-06
  8.546769e-02    5.577755e-06
  8.576662e-02    5.574569e-06
  8.606555e-02    5.568366e-06
  8.636448e-02    5.554383e-06
  8.666341e-02    5.533399e-06
  8.696234e-02    5.531207e-06
  8.726127e-02    5.516344e-06
  8.756020e-02    5.524353e-06
  8.785913e-02    5.521121e-06
  8.815806e-02    5.506917e-06
  8.845699e-02    5.485751e-06
  8.875592e-02    5.479182e-06
  8.905485e-02    5.468050e-06
  8.935378e-02    5.464754e-06
  8.965271e-02    5.464516e-06
  8.995164e-02    5.444977e-06
  9.025057e-02    5.431931e-06
  9.054950e-02    5.410182e-06
  9.084843e-02    5.424519e-06
  9.114737e-02    5.411689e-06
  9.144630e-02    5.393169e-06
  9.174523e-02    5.406690e-06
  9.204416e-02    5.405640e-06
  9.234309e-02    5.394486e-06
  9.264202e-02    5.359637e-06
  9.294095e-02    5.339803e-06
  9.323988e-02    5.319877e-06
  9.353881e-02    5.318556e-06
  9.383774e-02    5.334760e-06
  9.413667e-02    5.310291e-06
  9.443560e-02    5.294449e-06
  9.473453e-02    5.299351e-06
  9.503346e-02    5.313671e-06
  9.533239e-02    5.296140e-06
  9.563132e-02    5.276906e-06
  9.593025e-02    5.260988e-06
  9.622918e-02    5.266098e-06
  9.652811e-02    5.266688e-06
  9.682704e-02    5.279417e-06
  9.712597e-02    5.288386e-06
  9.742490e-02    5.261147e-06
  9.772383e-02    5.252159e-06
  9.802276e-02    5.213095e-06
  9.832169e-02    5.165003e-06
  9.862062e-02    5.167445e-06
  9.891956e-02    5.162814e-06
  9.921849e-02    5.159715e-06
  9.951742e-02    5.135101e-06
  9.981635e-02    5.123773e-06
  1.001153e-01    5.113558e-06
  1.004142e-01    5.110800e-06
  1.007131e-01    5.098166e-06
  1.010121e-01    5.090887e-06
  1.013110e-01    5.108776e-06
  1.016099e-01    5.109673e-06
  1.019089e-01    5.080142e-06
  1.022078e-01    5.059069e-06
  1.025067e-01    5.017056e-06
  1.028057e-01    5.013141e-06
  1.031046e-01    5.020378e-06
  1.034035e-01    4.996149e-06
  1.037024e-01    4.998942e-06
  1.040014e-01    4.983429e-06
  1.043003e-01    4.972718e-06
  1.045992e-01    4.984769e-06
  1.048982e-01    4.979868e-06
  1.051971e-01    4.939654e-06
  1.054960e-01    4.911696e-06
  1.057950e-01    4.915903e-06
  1.060939e-01    4.913046e-06
  1.063928e-01    4.911652e-06
  1.066917e-01    4.894660e-06
  1.069907e-01    4.882912e-06
  1.072896e-01    4.866025e-06
  1.075885e-01    4.866416e-06
  1.078875e-01    4.856469e-06
  1.081864e-01    4.845300e-06
  1.084853e-01    4.842236e-06
  1.087843e-01    4.844169e-06
  1.090832e-01    4.835445e-06
  1.093821e-01    4.824923e-06
  1.096810e-01    4.793012e-06
  1.099800e-01    4.799482e-06
  1.102789e-01    4.780858e-06
  1.105778e-01    4.740461e-06
  1.108768e-01    4.723358e-06
  1.111757e-01    4.727791e-06
  1.114746e-01    4.733305e-06
  1.117736e-01    4.706427e-06
  1.120725e-01    4.683415e-06
  1.123714e-01    4.690379e-06
  1.126704e-01    4.662840e-06
  1.129693e-01    4.642863e-06
  1.132682e-01    4.653951e-06
  1.135671e-01    4.617558e-06
  1.138661e-01    4.614654e-06
  1.141650e-01    4.618038e-06
  1.144639e-01    4.614595e-06
  1.147629e-01    4.617309e-06
  1.150618e-01    4.619467e-06
  1.153607e-01    4.646237e-06
  1.156597e-01    4.592725e-06
  1.159586e-01    4.579799e-06
  1.162575e-01    4.590569e-06
  1.165564e-01    4.548582e-06
  1.168554e-01    4.540871e-06
  1.171543e-01    4.586540e-06
  1.174532e-01    4.587658e-06
  1.177522e-01    4.574211e-06
  1.180511e-01    4.576735e-06
  1.183500e-01    4.526131e-06
  1.186490e-01    4.507369e-06
  1.189479e-01    4.506031e-06
  1.192468e-01    4.511625e-06
  1.195458e-01    4.530196e-06
  1.198447e-01    4.457088e-06
  1.201436e-01    4.385082e-06
  1.204425e-01    4.450826e-06
  1.207415e-01    4.478673e-06
  1.210404e-01    4.775264e-06
  1.213393e-01    0.000000e+00
  1.216383e-01    0.000000e+00
  1.219372e-01    0.000000e+00
  1.222361e-01    0.000000e+00
  1.225351e-01    0.000000e+00
  1.228340e-01    0.000000e+00
  1.231329e-01    0.000000e+00
  1.234318e-01    0.000000e+00
  1.237308e-01    0.000000e+00
  1.240297e-01    0.000000e+00
  1.243286e-01    0.000000e+00
  1.246276e-01    0.000000e+00
  1.249265e-01    0.000000e+00
  1.252254e-01    0.000000e+00
  1.255244e-01    0.000000e+00
  1.258233e-01    0.000000e+00
  1.261222e-01    0.000000e+00
  1.264212e-01    0.000000e+00
  1.267201e-01    0.000000e+00
  1.270190e-01    0.000000e+00
  1.273179e-01    0.000000e+00
  1.276169e-01    0.000000e+00
  1.279158e-01    0.000000e+00
  1.282147e-01    0.000000e+00
  1.285137e-01    0.000000e+00
  1.288126e-01    0.000000e+00
  1.291115e-01    0.000000e+00
  1.294105e-01    0.000000e+00
  1.297094e-01    0.000000e+00
  1.300083e-01    0.000000e+00
  1.303072e-01    0.000000e+00
  1.306062e-01    0.000000e+00
  1.309051e-01    0.000000e+00
  1.312040e-01    0.000000e+00
  1.315030e-01    0.000000e+00
  1.318019e-01    0.000000e+00
  1.321008e-01    0.000000e+00
  1.323998e-01    0.000000e+00
  1.326987e-01    0.000000e+00
  1.329976e-01    0.000000e+00
  1.332965e-01    0.000000e+00
  1.335955e-01    0.000000e+00
  1.338944e-01    0.000000e+00
  1.341933e-01    0.000000e+00
  1.344923e-01    0.000000e+00
  1.347912e-01    0.000000e+00
  1.350901e-01    0.000000e+00
  1.353891e-01    0.000000e+00
  1.356880e-01    0.000000e+00
  1.359869e-01    0.000000e+00
  1.362859e-01    0.000000e+00
  1.365848e-01    0.000000e+00
  1.368837e-01    0.000000e+00
  1.371826e-01    0.000000e+00
  1.374816e-01    0.000000e+00
  1.377805e-01    0.000000e+00
  1.380794e-01    0.000000e+00
  1.383784e-01    0.000000e+00
  1.386773e-01    0.000000e+00
  1.389762e-01    0.000000e+00
  1.392752e-01    0.000000e+00
  1.395741e-01    0.000000e+00
  1.398730e-01    0.000000e+00
  1.401719e-01    0.000000e+00
  1.404709e-01    0.000000e+00
  1.407698e-01    0.000000e+00
  1.410687e-01    0.000000e+00
  1.413677e-01    0.000000e+00
  1.416666e-01    0.000000e+00
  1.419655e-01    0.000000e+00
  1.422645e-01    0.000000e+00
  1.425634e-01    0.000000e+00
  1.428623e-01    0.000000e+00
  1.431613e-01    0.000000e+00
  1.434602e-01    0.000000e+00
  1.437591e-01    0.000000e+00
  1.440580e-01    0.000000e+00
  1.443570e-01    0.000000e+00
  1.446559e-01    0.000000e+00
  1.449548e-01    0.000000e+00
  1.452538e-01    0.000000e+00
  1.455527e-01    0.000000e+00
  1.458516e-01    0.000000e+00
  1.461506e-01    0.000000e+00
  1.464495e-01    0.000000e+00
  1.467484e-01    0.000000e+00
  1.470473e-01    0.000000e+00
  1.473463e-01    0.000000e+00
  1.476452e-01    0.000000e+00
  1.479441e-01    0.000000e+00
  1.482431e-01    0.000000e+00
  1.485420e-01    0.000000e+00
  1.488409e-01    0.000000e+00
  1.491399e-01    0.000000e+00
  1.494388e-01    0.000000e+00
  1.497377e-01    0.000000e+00
  1.500367e-01    0.000000e+00
  1.503356e-01    0.000000e+00
  1.506345e-01    0.000000e+00
  1.509334e-01    0.000000e+00
  1.512324e-01    0.000000e+00
  1.515313e-01    0.000000e+00
  1.518302e-01    0.000000e+00
  1.521292e-01    0.000000e+00
  1.524281e-01    0.000000e+00
  1.527270e-01    0.000000e+00
  1.530260e-01    0.000000e+00
  1.533249e-01    0.000000e+00
  1.536238e-01    0.000000e+00
