# == pyFAI calibration ==
# Distance Sample to Detector: 2.266 m
# PONI: 5.659e-02, 4.293e-02 m
# Rotations: 0.000000 0.000000 0.000000 rad
# 
# == Fit2d calibration ==
# Distance Sample-beamCenter: 2266.000 mm
# Center: x=249.594, y=329.012 pix
# Tilt: 0.000 deg  TiltPlanRot: 0.000 deg
# 
# Detector Pilatus 300k	 PixelSize= 1.720e-04, 1.720e-04 m
#    Detector has a mask: True 
#    Detector has a dark current: False 
#    detector has a flat field: False 
# 
# Wavelength: 1.27818e-10 m
# Mask applied: user provided
# Dark current applied: False
# Flat field applied: False
# Polarization factor: None
# Normalization factor: 954067.1999999998
# --> MT-F127_144.943_NaCl_72.471_limonene_144.943mgml_2_r1d.csv
#        q_A^-1             I 
  4.457554e-03    2.638893e-03
  4.756484e-03    2.080987e-03
  5.055415e-03    1.484007e-03
  5.354345e-03    1.074985e-03
  5.653276e-03    8.666947e-04
  5.952206e-03    1.252160e-03
  6.251136e-03    1.149739e-03
  6.550067e-03    1.007845e-03
  6.848997e-03    8.595884e-04
  7.147927e-03    7.312168e-04
  7.446858e-03    6.315232e-04
  7.745788e-03    5.472085e-04
  8.044719e-03    4.753546e-04
  8.343649e-03    4.191336e-04
  8.642579e-03    3.686165e-04
  8.941510e-03    3.266913e-04
  9.240440e-03    2.913774e-04
  9.539371e-03    2.606095e-04
  9.838301e-03    2.325309e-04
  1.013723e-02    2.071013e-04
  1.043616e-02    1.850684e-04
  1.073509e-02    1.672722e-04
  1.103402e-02    1.520180e-04
  1.133295e-02    1.374179e-04
  1.163188e-02    1.246818e-04
  1.193081e-02    1.133062e-04
  1.222974e-02    1.032672e-04
  1.252867e-02    9.480332e-05
  1.282760e-02    8.649647e-05
  1.312654e-02    7.876286e-05
  1.342547e-02    7.286009e-05
  1.372440e-02    6.751162e-05
  1.402333e-02    6.278443e-05
  1.432226e-02    5.796718e-05
  1.462119e-02    5.355177e-05
  1.492012e-02    4.980630e-05
  1.521905e-02    4.644063e-05
  1.551798e-02    4.369283e-05
  1.581691e-02    4.040738e-05
  1.611584e-02    3.818116e-05
  1.641477e-02    3.559016e-05
  1.671370e-02    3.320336e-05
  1.701263e-02    3.133804e-05
  1.731156e-02    3.005830e-05
  1.761049e-02    2.850863e-05
  1.790942e-02    2.647878e-05
  1.820835e-02    2.512942e-05
  1.850728e-02    2.385786e-05
  1.880621e-02    2.249143e-05
  1.910514e-02    2.167534e-05
  1.940407e-02    2.069962e-05
  1.970300e-02    1.978920e-05
  2.000193e-02    1.887452e-05
  2.030086e-02    1.761665e-05
  2.059979e-02    1.714519e-05
  2.089873e-02    1.679739e-05
  2.119766e-02    1.635154e-05
  2.149659e-02    1.567964e-05
  2.179552e-02    1.479700e-05
  2.209445e-02    1.429988e-05
  2.239338e-02    1.392661e-05
  2.269231e-02    1.354777e-05
  2.299124e-02    1.311079e-05
  2.329017e-02    1.262152e-05
  2.358910e-02    1.227874e-05
  2.388803e-02    1.206035e-05
  2.418696e-02    1.176389e-05
  2.448589e-02    1.124780e-05
  2.478482e-02    1.078734e-05
  2.508375e-02    1.065627e-05
  2.538268e-02    1.052455e-05
  2.568161e-02    1.043993e-05
  2.598054e-02    1.030775e-05
  2.627947e-02    1.000150e-05
  2.657840e-02    9.588807e-06
  2.687733e-02    9.634298e-06
  2.717626e-02    9.655215e-06
  2.747519e-02    9.364967e-06
  2.777412e-02    9.061792e-06
  2.807305e-02    9.025995e-06
  2.837198e-02    8.963955e-06
  2.867092e-02    8.782305e-06
  2.896985e-02    8.532273e-06
  2.926878e-02    8.319370e-06
  2.956771e-02    8.325318e-06
  2.986664e-02    8.180918e-06
  3.016557e-02    8.138999e-06
  3.046450e-02    8.102378e-06
  3.076343e-02    8.102732e-06
  3.106236e-02    7.878509e-06
  3.136129e-02    7.700835e-06
  3.166022e-02    7.575606e-06
  3.195915e-02    7.386403e-06
  3.225808e-02    7.386871e-06
  3.255701e-02    7.338993e-06
  3.285594e-02    7.357492e-06
  3.315487e-02    7.269785e-06
  3.345380e-02    7.077920e-06
  3.375273e-02    7.084997e-06
  3.405166e-02    7.017491e-06
  3.435059e-02    6.752347e-06
  3.464952e-02    6.629868e-06
  3.494845e-02    6.649491e-06
  3.524738e-02    6.488106e-06
  3.554631e-02    6.468958e-06
  3.584524e-02    6.439379e-06
  3.614417e-02    6.423941e-06
  3.644310e-02    6.303832e-06
  3.674204e-02    6.148851e-06
  3.704097e-02    6.221655e-06
  3.733990e-02    6.145181e-06
  3.763883e-02    5.962864e-06
  3.793776e-02    5.789613e-06
  3.823669e-02    5.700231e-06
  3.853562e-02    5.707981e-06
  3.883455e-02    5.688850e-06
  3.913348e-02    5.811203e-06
  3.943241e-02    5.664622e-06
  3.973134e-02    5.601811e-06
  4.003027e-02    5.439239e-06
  4.032920e-02    5.397863e-06
  4.062813e-02    5.477971e-06
  4.092706e-02    5.386486e-06
  4.122599e-02    5.514336e-06
  4.152492e-02    5.347727e-06
  4.182385e-02    5.308013e-06
  4.212278e-02    5.278312e-06
  4.242171e-02    5.220717e-06
  4.272064e-02    5.243006e-06
  4.301957e-02    5.265345e-06
  4.331850e-02    5.211195e-06
  4.361743e-02    5.049892e-06
  4.391636e-02    5.047491e-06
  4.421529e-02    5.123015e-06
  4.451423e-02    5.112668e-06
  4.481316e-02    5.148589e-06
  4.511209e-02    5.165052e-06
  4.541102e-02    5.070572e-06
  4.570995e-02    4.934221e-06
  4.600888e-02    4.969154e-06
  4.630781e-02    5.043908e-06
  4.660674e-02    5.187789e-06
  4.690567e-02    5.104653e-06
  4.720460e-02    5.002861e-06
  4.750353e-02    4.874621e-06
  4.780246e-02    4.819217e-06
  4.810139e-02    4.908636e-06
  4.840032e-02    4.941942e-06
  4.869925e-02    4.925261e-06
  4.899818e-02    5.045126e-06
  4.929711e-02    5.040190e-06
  4.959604e-02    4.924573e-06
  4.989497e-02    4.890049e-06
  5.019390e-02    4.941263e-06
  5.049283e-02    4.876103e-06
  5.079176e-02    4.770695e-06
  5.109069e-02    4.822047e-06
  5.138962e-02    4.953868e-06
  5.168855e-02    5.236001e-06
  5.198748e-02    5.367809e-06
  5.228642e-02    5.215886e-06
  5.258535e-02    4.857039e-06
  5.288428e-02    4.852477e-06
  5.318321e-02    4.889505e-06
  5.348214e-02    4.732697e-06
  5.378107e-02    4.728073e-06
  5.408000e-02    4.767423e-06
  5.437893e-02    4.761147e-06
  5.467786e-02    4.826348e-06
  5.497679e-02    4.773593e-06
  5.527572e-02    4.797264e-06
  5.557465e-02    4.804437e-06
  5.587358e-02    4.831319e-06
  5.617251e-02    4.780028e-06
  5.647144e-02    4.702129e-06
  5.677037e-02    4.612310e-06
  5.706930e-02    4.700841e-06
  5.736823e-02    4.660869e-06
  5.766716e-02    4.711590e-06
  5.796609e-02    4.837647e-06
  5.826502e-02    4.797028e-06
  5.856395e-02    4.850006e-06
  5.886288e-02    4.802146e-06
  5.916181e-02    4.718725e-06
  5.946074e-02    4.644869e-06
  5.975967e-02    4.670303e-06
  6.005861e-02    4.800053e-06
  6.035754e-02    4.781957e-06
  6.065647e-02    4.795395e-06
  6.095540e-02    4.812930e-06
  6.125433e-02    4.947990e-06
  6.155326e-02    5.046331e-06
  6.185219e-02    4.896403e-06
  6.215112e-02    4.816079e-06
  6.245005e-02    4.863634e-06
  6.274898e-02    4.782939e-06
  6.304791e-02    4.777003e-06
  6.334684e-02    4.778929e-06
  6.364577e-02    4.828255e-06
  6.394470e-02    4.835382e-06
  6.424363e-02    4.871300e-06
  6.454256e-02    4.910462e-06
  6.484149e-02    4.756247e-06
  6.514042e-02    4.727713e-06
  6.543935e-02    4.799434e-06
  6.573828e-02    4.854105e-06
  6.603721e-02    4.900340e-06
  6.633614e-02    4.867739e-06
  6.663507e-02    4.859806e-06
  6.693400e-02    4.899484e-06
  6.723293e-02    5.002883e-06
  6.753186e-02    4.934126e-06
  6.783080e-02    4.918841e-06
  6.812973e-02    4.890222e-06
  6.842866e-02    4.907193e-06
  6.872759e-02    4.969208e-06
  6.902652e-02    4.844228e-06
  6.932545e-02    4.828099e-06
  6.962438e-02    4.997522e-06
  6.992331e-02    5.022046e-06
  7.022224e-02    5.015239e-06
  7.052117e-02    4.912052e-06
  7.082010e-02    4.995643e-06
  7.111903e-02    5.032138e-06
  7.141796e-02    5.027804e-06
  7.171689e-02    5.016992e-06
  7.201582e-02    4.937920e-06
  7.231475e-02    4.937347e-06
  7.261368e-02    4.982589e-06
  7.291261e-02    5.007405e-06
  7.321154e-02    4.991846e-06
  7.351047e-02    5.006140e-06
  7.380940e-02    5.035850e-06
  7.410833e-02    5.056356e-06
  7.440726e-02    5.018579e-06
  7.470619e-02    4.988140e-06
  7.500512e-02    4.933534e-06
  7.530405e-02    4.935906e-06
  7.560299e-02    4.982411e-06
  7.590192e-02    5.014378e-06
  7.620085e-02    5.048862e-06
  7.649978e-02    5.089114e-06
  7.679871e-02    5.096826e-06
  7.709764e-02    5.034231e-06
  7.739657e-02    5.069428e-06
  7.769550e-02    5.077752e-06
  7.799443e-02    4.996984e-06
  7.829336e-02    4.963069e-06
  7.859229e-02    4.926742e-06
  7.889122e-02    4.900076e-06
  7.919015e-02    4.950093e-06
  7.948908e-02    4.973489e-06
  7.978801e-02    4.985304e-06
  8.008694e-02    4.874674e-06
  8.038587e-02    4.896941e-06
  8.068480e-02    4.941295e-06
  8.098373e-02    4.960971e-06
  8.128266e-02    4.960200e-06
  8.158159e-02    4.944472e-06
  8.188052e-02    4.981407e-06
  8.217945e-02    4.970727e-06
  8.247838e-02    4.861945e-06
  8.277731e-02    4.784596e-06
  8.307624e-02    4.790072e-06
  8.337518e-02    4.832515e-06
  8.367411e-02    4.896742e-06
  8.397304e-02    4.837413e-06
  8.427197e-02    4.749037e-06
  8.457090e-02    4.869507e-06
  8.486983e-02    4.905099e-06
  8.516876e-02    4.887511e-06
  8.546769e-02    4.826464e-06
  8.576662e-02    4.787872e-06
  8.606555e-02    4.830933e-06
  8.636448e-02    4.766528e-06
  8.666341e-02    4.757412e-06
  8.696234e-02    4.821868e-06
  8.726127e-02    4.784373e-06
  8.756020e-02    4.672473e-06
  8.785913e-02    4.717358e-06
  8.815806e-02    4.694006e-06
  8.845699e-02    4.727921e-06
  8.875592e-02    4.666176e-06
  8.905485e-02    4.614678e-06
  8.935378e-02    4.611618e-06
  8.965271e-02    4.694373e-06
  8.995164e-02    4.685916e-06
  9.025057e-02    4.692994e-06
  9.054950e-02    4.651144e-06
  9.084843e-02    4.661442e-06
  9.114737e-02    4.579460e-06
  9.144630e-02    4.569181e-06
  9.174523e-02    4.520473e-06
  9.204416e-02    4.524083e-06
  9.234309e-02    4.607341e-06
  9.264202e-02    4.607517e-06
  9.294095e-02    4.597578e-06
  9.323988e-02    4.530711e-06
  9.353881e-02    4.537388e-06
  9.383774e-02    4.487916e-06
  9.413667e-02    4.527110e-06
  9.443560e-02    4.524221e-06
  9.473453e-02    4.467803e-06
  9.503346e-02    4.485315e-06
  9.533239e-02    4.447402e-06
  9.563132e-02    4.438886e-06
  9.593025e-02    4.493023e-06
  9.622918e-02    4.545322e-06
  9.652811e-02    4.526247e-06
  9.682704e-02    4.532768e-06
  9.712597e-02    4.584141e-06
  9.742490e-02    4.571501e-06
  9.772383e-02    4.518826e-06
  9.802276e-02    4.471116e-06
  9.832169e-02    4.398464e-06
  9.862062e-02    4.410689e-06
  9.891956e-02    4.426143e-06
  9.921849e-02    4.362009e-06
  9.951742e-02    4.423105e-06
  9.981635e-02    4.351498e-06
  1.001153e-01    4.294340e-06
  1.004142e-01    4.329549e-06
  1.007131e-01    4.239678e-06
  1.010121e-01    4.224589e-06
  1.013110e-01    4.256521e-06
  1.016099e-01    4.332712e-06
  1.019089e-01    4.307019e-06
  1.022078e-01    4.266145e-06
  1.025067e-01    4.293446e-06
  1.028057e-01    4.292903e-06
  1.031046e-01    4.300430e-06
  1.034035e-01    4.336099e-06
  1.037024e-01    4.290347e-06
  1.040014e-01    4.205701e-06
  1.043003e-01    4.171412e-06
  1.045992e-01    4.185073e-06
  1.048982e-01    4.213670e-06
  1.051971e-01    4.281550e-06
  1.054960e-01    4.304810e-06
  1.057950e-01    4.324874e-06
  1.060939e-01    4.389866e-06
  1.063928e-01    4.391688e-06
  1.066917e-01    4.300043e-06
  1.069907e-01    4.233677e-06
  1.072896e-01    4.204491e-06
  1.075885e-01    4.149441e-06
  1.078875e-01    4.126869e-06
  1.081864e-01    4.121061e-06
  1.084853e-01    4.076645e-06
  1.087843e-01    4.098987e-06
  1.090832e-01    4.092522e-06
  1.093821e-01    4.026037e-06
  1.096810e-01    3.958035e-06
  1.099800e-01    3.995293e-06
  1.102789e-01    4.015108e-06
  1.105778e-01    4.025120e-06
  1.108768e-01    3.964311e-06
  1.111757e-01    3.952908e-06
  1.114746e-01    4.023457e-06
  1.117736e-01    4.068511e-06
  1.120725e-01    4.048366e-06
  1.123714e-01    3.974092e-06
  1.126704e-01    4.033350e-06
  1.129693e-01    3.987655e-06
  1.132682e-01    3.881161e-06
  1.135671e-01    3.945170e-06
  1.138661e-01    3.913499e-06
  1.141650e-01    3.758037e-06
  1.144639e-01    3.775716e-06
  1.147629e-01    3.942554e-06
  1.150618e-01    3.983372e-06
  1.153607e-01    3.986332e-06
  1.156597e-01    3.986514e-06
  1.159586e-01    3.842115e-06
  1.162575e-01    3.717759e-06
  1.165564e-01    3.759825e-06
  1.168554e-01    3.803049e-06
  1.171543e-01    3.990298e-06
  1.174532e-01    3.986798e-06
  1.177522e-01    3.925087e-06
  1.180511e-01    3.861433e-06
  1.183500e-01    3.970558e-06
  1.186490e-01    4.084220e-06
  1.189479e-01    4.099206e-06
  1.192468e-01    3.893501e-06
  1.195458e-01    3.743187e-06
  1.198447e-01    3.672449e-06
  1.201436e-01    3.721790e-06
  1.204425e-01    3.546170e-06
  1.207415e-01    3.539505e-06
  1.210404e-01    5.245468e-06
  1.213393e-01    0.000000e+00
  1.216383e-01    0.000000e+00
  1.219372e-01    0.000000e+00
  1.222361e-01    0.000000e+00
  1.225351e-01    0.000000e+00
  1.228340e-01    0.000000e+00
  1.231329e-01    0.000000e+00
  1.234318e-01    0.000000e+00
  1.237308e-01    0.000000e+00
  1.240297e-01    0.000000e+00
  1.243286e-01    0.000000e+00
  1.246276e-01    0.000000e+00
  1.249265e-01    0.000000e+00
  1.252254e-01    0.000000e+00
  1.255244e-01    0.000000e+00
  1.258233e-01    0.000000e+00
  1.261222e-01    0.000000e+00
  1.264212e-01    0.000000e+00
  1.267201e-01    0.000000e+00
  1.270190e-01    0.000000e+00
  1.273179e-01    0.000000e+00
  1.276169e-01    0.000000e+00
  1.279158e-01    0.000000e+00
  1.282147e-01    0.000000e+00
  1.285137e-01    0.000000e+00
  1.288126e-01    0.000000e+00
  1.291115e-01    0.000000e+00
  1.294105e-01    0.000000e+00
  1.297094e-01    0.000000e+00
  1.300083e-01    0.000000e+00
  1.303072e-01    0.000000e+00
  1.306062e-01    0.000000e+00
  1.309051e-01    0.000000e+00
  1.312040e-01    0.000000e+00
  1.315030e-01    0.000000e+00
  1.318019e-01    0.000000e+00
  1.321008e-01    0.000000e+00
  1.323998e-01    0.000000e+00
  1.326987e-01    0.000000e+00
  1.329976e-01    0.000000e+00
  1.332965e-01    0.000000e+00
  1.335955e-01    0.000000e+00
  1.338944e-01    0.000000e+00
  1.341933e-01    0.000000e+00
  1.344923e-01    0.000000e+00
  1.347912e-01    0.000000e+00
  1.350901e-01    0.000000e+00
  1.353891e-01    0.000000e+00
  1.356880e-01    0.000000e+00
  1.359869e-01    0.000000e+00
  1.362859e-01    0.000000e+00
  1.365848e-01    0.000000e+00
  1.368837e-01    0.000000e+00
  1.371826e-01    0.000000e+00
  1.374816e-01    0.000000e+00
  1.377805e-01    0.000000e+00
  1.380794e-01    0.000000e+00
  1.383784e-01    0.000000e+00
  1.386773e-01    0.000000e+00
  1.389762e-01    0.000000e+00
  1.392752e-01    0.000000e+00
  1.395741e-01    0.000000e+00
  1.398730e-01    0.000000e+00
  1.401719e-01    0.000000e+00
  1.404709e-01    0.000000e+00
  1.407698e-01    0.000000e+00
  1.410687e-01    0.000000e+00
  1.413677e-01    0.000000e+00
  1.416666e-01    0.000000e+00
  1.419655e-01    0.000000e+00
  1.422645e-01    0.000000e+00
  1.425634e-01    0.000000e+00
  1.428623e-01    0.000000e+00
  1.431613e-01    0.000000e+00
  1.434602e-01    0.000000e+00
  1.437591e-01    0.000000e+00
  1.440580e-01    0.000000e+00
  1.443570e-01    0.000000e+00
  1.446559e-01    0.000000e+00
  1.449548e-01    0.000000e+00
  1.452538e-01    0.000000e+00
  1.455527e-01    0.000000e+00
  1.458516e-01    0.000000e+00
  1.461506e-01    0.000000e+00
  1.464495e-01    0.000000e+00
  1.467484e-01    0.000000e+00
  1.470473e-01    0.000000e+00
  1.473463e-01    0.000000e+00
  1.476452e-01    0.000000e+00
  1.479441e-01    0.000000e+00
  1.482431e-01    0.000000e+00
  1.485420e-01    0.000000e+00
  1.488409e-01    0.000000e+00
  1.491399e-01    0.000000e+00
  1.494388e-01    0.000000e+00
  1.497377e-01    0.000000e+00
  1.500367e-01    0.000000e+00
  1.503356e-01    0.000000e+00
  1.506345e-01    0.000000e+00
  1.509334e-01    0.000000e+00
  1.512324e-01    0.000000e+00
  1.515313e-01    0.000000e+00
  1.518302e-01    0.000000e+00
  1.521292e-01    0.000000e+00
  1.524281e-01    0.000000e+00
  1.527270e-01    0.000000e+00
  1.530260e-01    0.000000e+00
  1.533249e-01    0.000000e+00
  1.536238e-01    0.000000e+00
