# == pyFAI calibration ==
# Distance Sample to Detector: 2.266 m
# PONI: 5.659e-02, 4.293e-02 m
# Rotations: 0.000000 0.000000 0.000000 rad
# 
# == Fit2d calibration ==
# Distance Sample-beamCenter: 2266.000 mm
# Center: x=249.594, y=329.012 pix
# Tilt: 0.000 deg  TiltPlanRot: 0.000 deg
# 
# Detector Pilatus 300k	 PixelSize= 1.720e-04, 1.720e-04 m
#    Detector has a mask: True 
#    Detector has a dark current: False 
#    detector has a flat field: False 
# 
# Wavelength: 1.27818e-10 m
# Mask applied: user provided
# Dark current applied: False
# Flat field applied: False
# Polarization factor: None
# Normalization factor: 17355683.8
# --> MT-F127_111.437_hexanes_51.666_EtOH_94.757_NaCl_100.000mgml_0_r1d.csv
#        q_A^-1             I 
  4.457554e-03    2.763236e-04
  4.756484e-03    2.180129e-04
  5.055415e-03    1.552548e-04
  5.354345e-03    1.097408e-04
  5.653276e-03    8.618846e-05
  5.952206e-03    1.339125e-04
  6.251136e-03    1.231079e-04
  6.550067e-03    1.076824e-04
  6.848997e-03    9.199206e-05
  7.147927e-03    7.809262e-05
  7.446858e-03    6.675100e-05
  7.745788e-03    5.734675e-05
  8.044719e-03    4.968267e-05
  8.343649e-03    4.356665e-05
  8.642579e-03    3.815585e-05
  8.941510e-03    3.345235e-05
  9.240440e-03    2.992336e-05
  9.539371e-03    2.675345e-05
  9.838301e-03    2.374795e-05
  1.013723e-02    2.131408e-05
  1.043616e-02    1.916098e-05
  1.073509e-02    1.715848e-05
  1.103402e-02    1.557125e-05
  1.133295e-02    1.407292e-05
  1.163188e-02    1.277140e-05
  1.193081e-02    1.169409e-05
  1.222974e-02    1.074004e-05
  1.252867e-02    9.811220e-06
  1.282760e-02    8.939870e-06
  1.312654e-02    8.267371e-06
  1.342547e-02    7.688092e-06
  1.372440e-02    7.092476e-06
  1.402333e-02    6.533582e-06
  1.432226e-02    6.050910e-06
  1.462119e-02    5.609816e-06
  1.492012e-02    5.241455e-06
  1.521905e-02    4.895380e-06
  1.551798e-02    4.585437e-06
  1.581691e-02    4.341358e-06
  1.611584e-02    4.097810e-06
  1.641477e-02    3.825456e-06
  1.671370e-02    3.579961e-06
  1.701263e-02    3.384404e-06
  1.731156e-02    3.201872e-06
  1.761049e-02    3.030601e-06
  1.790942e-02    2.879681e-06
  1.820835e-02    2.716410e-06
  1.850728e-02    2.587843e-06
  1.880621e-02    2.477002e-06
  1.910514e-02    2.357763e-06
  1.940407e-02    2.259784e-06
  1.970300e-02    2.181575e-06
  2.000193e-02    2.076075e-06
  2.030086e-02    1.999872e-06
  2.059979e-02    1.935719e-06
  2.089873e-02    1.850768e-06
  2.119766e-02    1.797601e-06
  2.149659e-02    1.746910e-06
  2.179552e-02    1.695023e-06
  2.209445e-02    1.631400e-06
  2.239338e-02    1.581434e-06
  2.269231e-02    1.541050e-06
  2.299124e-02    1.492270e-06
  2.329017e-02    1.454467e-06
  2.358910e-02    1.407979e-06
  2.388803e-02    1.358438e-06
  2.418696e-02    1.324141e-06
  2.448589e-02    1.308479e-06
  2.478482e-02    1.284057e-06
  2.508375e-02    1.257847e-06
  2.538268e-02    1.254160e-06
  2.568161e-02    1.205982e-06
  2.598054e-02    1.175662e-06
  2.627947e-02    1.156606e-06
  2.657840e-02    1.127535e-06
  2.687733e-02    1.104556e-06
  2.717626e-02    1.090683e-06
  2.747519e-02    1.078140e-06
  2.777412e-02    1.074446e-06
  2.807305e-02    1.043553e-06
  2.837198e-02    1.025680e-06
  2.867092e-02    1.021275e-06
  2.896985e-02    1.008127e-06
  2.926878e-02    9.913048e-07
  2.956771e-02    9.737456e-07
  2.986664e-02    9.705269e-07
  3.016557e-02    9.638525e-07
  3.046450e-02    9.506599e-07
  3.076343e-02    9.367430e-07
  3.106236e-02    9.220785e-07
  3.136129e-02    9.185972e-07
  3.166022e-02    9.084389e-07
  3.195915e-02    8.991344e-07
  3.225808e-02    8.851706e-07
  3.255701e-02    8.746367e-07
  3.285594e-02    8.675459e-07
  3.315487e-02    8.509310e-07
  3.345380e-02    8.315050e-07
  3.375273e-02    8.195396e-07
  3.405166e-02    8.231690e-07
  3.435059e-02    8.268500e-07
  3.464952e-02    8.106127e-07
  3.494845e-02    8.038474e-07
  3.524738e-02    8.010337e-07
  3.554631e-02    7.801750e-07
  3.584524e-02    7.693041e-07
  3.614417e-02    7.650048e-07
  3.644310e-02    7.521016e-07
  3.674204e-02    7.453135e-07
  3.704097e-02    7.415912e-07
  3.733990e-02    7.378269e-07
  3.763883e-02    7.322382e-07
  3.793776e-02    7.207098e-07
  3.823669e-02    7.090223e-07
  3.853562e-02    7.117166e-07
  3.883455e-02    7.083182e-07
  3.913348e-02    6.995484e-07
  3.943241e-02    6.895920e-07
  3.973134e-02    6.894697e-07
  4.003027e-02    6.917143e-07
  4.032920e-02    6.861158e-07
  4.062813e-02    6.778479e-07
  4.092706e-02    6.667389e-07
  4.122599e-02    6.619397e-07
  4.152492e-02    6.673359e-07
  4.182385e-02    6.587533e-07
  4.212278e-02    6.502113e-07
  4.242171e-02    6.440524e-07
  4.272064e-02    6.434466e-07
  4.301957e-02    6.440576e-07
  4.331850e-02    6.403867e-07
  4.361743e-02    6.486534e-07
  4.391636e-02    6.502067e-07
  4.421529e-02    6.490898e-07
  4.451423e-02    6.458802e-07
  4.481316e-02    6.208240e-07
  4.511209e-02    6.226802e-07
  4.541102e-02    6.223036e-07
  4.570995e-02    6.179218e-07
  4.600888e-02    6.097969e-07
  4.630781e-02    6.215041e-07
  4.660674e-02    6.164598e-07
  4.690567e-02    6.068078e-07
  4.720460e-02    6.128307e-07
  4.750353e-02    6.238107e-07
  4.780246e-02    6.114115e-07
  4.810139e-02    5.984132e-07
  4.840032e-02    5.997322e-07
  4.869925e-02    6.075753e-07
  4.899818e-02    6.113179e-07
  4.929711e-02    6.129076e-07
  4.959604e-02    6.150955e-07
  4.989497e-02    6.150835e-07
  5.019390e-02    6.108590e-07
  5.049283e-02    6.124966e-07
  5.079176e-02    6.090848e-07
  5.109069e-02    6.082233e-07
  5.138962e-02    6.166888e-07
  5.168855e-02    6.342972e-07
  5.198748e-02    6.581259e-07
  5.228642e-02    6.403250e-07
  5.258535e-02    6.046356e-07
  5.288428e-02    5.983844e-07
  5.318321e-02    6.011912e-07
  5.348214e-02    6.048578e-07
  5.378107e-02    6.053768e-07
  5.408000e-02    6.106323e-07
  5.437893e-02    6.033904e-07
  5.467786e-02    5.936316e-07
  5.497679e-02    5.913465e-07
  5.527572e-02    5.954285e-07
  5.557465e-02    5.999925e-07
  5.587358e-02    5.944029e-07
  5.617251e-02    5.943367e-07
  5.647144e-02    5.988624e-07
  5.677037e-02    5.980782e-07
  5.706930e-02    5.970330e-07
  5.736823e-02    5.942626e-07
  5.766716e-02    5.928281e-07
  5.796609e-02    5.943787e-07
  5.826502e-02    5.919762e-07
  5.856395e-02    5.887632e-07
  5.886288e-02    5.906313e-07
  5.916181e-02    5.935742e-07
  5.946074e-02    6.009358e-07
  5.975967e-02    6.006564e-07
  6.005861e-02    6.014351e-07
  6.035754e-02    6.015341e-07
  6.065647e-02    6.051653e-07
  6.095540e-02    6.140577e-07
  6.125433e-02    6.209539e-07
  6.155326e-02    6.263602e-07
  6.185219e-02    6.230100e-07
  6.215112e-02    6.057227e-07
  6.245005e-02    5.983005e-07
  6.274898e-02    6.064625e-07
  6.304791e-02    6.027295e-07
  6.334684e-02    6.074665e-07
  6.364577e-02    6.053579e-07
  6.394470e-02    6.012768e-07
  6.424363e-02    6.024899e-07
  6.454256e-02    6.064740e-07
  6.484149e-02    6.099460e-07
  6.514042e-02    6.077761e-07
  6.543935e-02    6.087226e-07
  6.573828e-02    6.051536e-07
  6.603721e-02    6.077200e-07
  6.633614e-02    6.160645e-07
  6.663507e-02    6.194819e-07
  6.693400e-02    6.167475e-07
  6.723293e-02    6.182798e-07
  6.753186e-02    6.149587e-07
  6.783080e-02    6.139252e-07
  6.812973e-02    6.157424e-07
  6.842866e-02    6.152711e-07
  6.872759e-02    6.141001e-07
  6.902652e-02    6.208697e-07
  6.932545e-02    6.192573e-07
  6.962438e-02    6.150884e-07
  6.992331e-02    6.168233e-07
  7.022224e-02    6.198730e-07
  7.052117e-02    6.162102e-07
  7.082010e-02    6.164547e-07
  7.111903e-02    6.190623e-07
  7.141796e-02    6.111742e-07
  7.171689e-02    6.186456e-07
  7.201582e-02    6.209647e-07
  7.231475e-02    6.226708e-07
  7.261368e-02    6.319956e-07
  7.291261e-02    6.281372e-07
  7.321154e-02    6.259615e-07
  7.351047e-02    6.244609e-07
  7.380940e-02    6.266960e-07
  7.410833e-02    6.218141e-07
  7.440726e-02    6.233459e-07
  7.470619e-02    6.256813e-07
  7.500512e-02    6.217981e-07
  7.530405e-02    6.156200e-07
  7.560299e-02    6.188916e-07
  7.590192e-02    6.192009e-07
  7.620085e-02    6.152758e-07
  7.649978e-02    6.249346e-07
  7.679871e-02    6.281318e-07
  7.709764e-02    6.268230e-07
  7.739657e-02    6.268260e-07
  7.769550e-02    6.177846e-07
  7.799443e-02    6.235674e-07
  7.829336e-02    6.173520e-07
  7.859229e-02    6.151142e-07
  7.889122e-02    6.132680e-07
  7.919015e-02    6.128108e-07
  7.948908e-02    6.180420e-07
  7.978801e-02    6.176735e-07
  8.008694e-02    6.096999e-07
  8.038587e-02    6.162333e-07
  8.068480e-02    6.227397e-07
  8.098373e-02    6.212578e-07
  8.128266e-02    6.191553e-07
  8.158159e-02    6.142332e-07
  8.188052e-02    6.149808e-07
  8.217945e-02    6.138735e-07
  8.247838e-02    6.150561e-07
  8.277731e-02    6.008085e-07
  8.307624e-02    5.920485e-07
  8.337518e-02    5.976810e-07
  8.367411e-02    5.973844e-07
  8.397304e-02    6.010540e-07
  8.427197e-02    6.006158e-07
  8.457090e-02    5.958192e-07
  8.486983e-02    5.909765e-07
  8.516876e-02    5.983226e-07
  8.546769e-02    6.007149e-07
  8.576662e-02    5.956947e-07
  8.606555e-02    5.948294e-07
  8.636448e-02    5.964326e-07
  8.666341e-02    5.957169e-07
  8.696234e-02    5.937337e-07
  8.726127e-02    5.909051e-07
  8.756020e-02    5.891604e-07
  8.785913e-02    5.820634e-07
  8.815806e-02    5.792807e-07
  8.845699e-02    5.842413e-07
  8.875592e-02    5.917457e-07
  8.905485e-02    5.882807e-07
  8.935378e-02    5.873919e-07
  8.965271e-02    5.817811e-07
  8.995164e-02    5.885504e-07
  9.025057e-02    5.833480e-07
  9.054950e-02    5.757992e-07
  9.084843e-02    5.789998e-07
  9.114737e-02    5.737045e-07
  9.144630e-02    5.756357e-07
  9.174523e-02    5.739867e-07
  9.204416e-02    5.728057e-07
  9.234309e-02    5.706768e-07
  9.264202e-02    5.710818e-07
  9.294095e-02    5.697441e-07
  9.323988e-02    5.694983e-07
  9.353881e-02    5.694093e-07
  9.383774e-02    5.647515e-07
  9.413667e-02    5.678879e-07
  9.443560e-02    5.683282e-07
  9.473453e-02    5.631714e-07
  9.503346e-02    5.630781e-07
  9.533239e-02    5.664941e-07
  9.563132e-02    5.603121e-07
  9.593025e-02    5.625494e-07
  9.622918e-02    5.714168e-07
  9.652811e-02    5.731414e-07
  9.682704e-02    5.708663e-07
  9.712597e-02    5.737367e-07
  9.742490e-02    5.712216e-07
  9.772383e-02    5.611864e-07
  9.802276e-02    5.597143e-07
  9.832169e-02    5.625404e-07
  9.862062e-02    5.559221e-07
  9.891956e-02    5.463456e-07
  9.921849e-02    5.393002e-07
  9.951742e-02    5.476417e-07
  9.981635e-02    5.490162e-07
  1.001153e-01    5.467479e-07
  1.004142e-01    5.432921e-07
  1.007131e-01    5.416239e-07
  1.010121e-01    5.420962e-07
  1.013110e-01    5.431348e-07
  1.016099e-01    5.359265e-07
  1.019089e-01    5.326902e-07
  1.022078e-01    5.381279e-07
  1.025067e-01    5.329317e-07
  1.028057e-01    5.390682e-07
  1.031046e-01    5.409582e-07
  1.034035e-01    5.375969e-07
  1.037024e-01    5.331730e-07
  1.040014e-01    5.309983e-07
  1.043003e-01    5.326947e-07
  1.045992e-01    5.310766e-07
  1.048982e-01    5.275601e-07
  1.051971e-01    5.307001e-07
  1.054960e-01    5.317515e-07
  1.057950e-01    5.240854e-07
  1.060939e-01    5.205002e-07
  1.063928e-01    5.258626e-07
  1.066917e-01    5.232923e-07
  1.069907e-01    5.145444e-07
  1.072896e-01    5.112842e-07
  1.075885e-01    5.148340e-07
  1.078875e-01    5.182653e-07
  1.081864e-01    5.181282e-07
  1.084853e-01    5.209333e-07
  1.087843e-01    5.211566e-07
  1.090832e-01    5.304851e-07
  1.093821e-01    5.204182e-07
  1.096810e-01    5.138054e-07
  1.099800e-01    5.169136e-07
  1.102789e-01    5.177932e-07
  1.105778e-01    5.150314e-07
  1.108768e-01    5.125705e-07
  1.111757e-01    5.084059e-07
  1.114746e-01    5.112687e-07
  1.117736e-01    5.160482e-07
  1.120725e-01    5.065930e-07
  1.123714e-01    5.039886e-07
  1.126704e-01    5.054215e-07
  1.129693e-01    5.014643e-07
  1.132682e-01    5.029738e-07
  1.135671e-01    4.967633e-07
  1.138661e-01    5.009846e-07
  1.141650e-01    5.004085e-07
  1.144639e-01    4.979072e-07
  1.147629e-01    4.927577e-07
  1.150618e-01    4.920792e-07
  1.153607e-01    5.036215e-07
  1.156597e-01    5.025955e-07
  1.159586e-01    4.890110e-07
  1.162575e-01    4.965306e-07
  1.165564e-01    4.952643e-07
  1.168554e-01    4.947580e-07
  1.171543e-01    4.891278e-07
  1.174532e-01    4.839135e-07
  1.177522e-01    4.879009e-07
  1.180511e-01    4.888645e-07
  1.183500e-01    4.754685e-07
  1.186490e-01    4.816991e-07
  1.189479e-01    5.006245e-07
  1.192468e-01    4.944695e-07
  1.195458e-01    4.840350e-07
  1.198447e-01    4.936350e-07
  1.201436e-01    4.847760e-07
  1.204425e-01    4.760258e-07
  1.207415e-01    4.479304e-07
  1.210404e-01    4.036914e-07
  1.213393e-01    0.000000e+00
  1.216383e-01    0.000000e+00
  1.219372e-01    0.000000e+00
  1.222361e-01    0.000000e+00
  1.225351e-01    0.000000e+00
  1.228340e-01    0.000000e+00
  1.231329e-01    0.000000e+00
  1.234318e-01    0.000000e+00
  1.237308e-01    0.000000e+00
  1.240297e-01    0.000000e+00
  1.243286e-01    0.000000e+00
  1.246276e-01    0.000000e+00
  1.249265e-01    0.000000e+00
  1.252254e-01    0.000000e+00
  1.255244e-01    0.000000e+00
  1.258233e-01    0.000000e+00
  1.261222e-01    0.000000e+00
  1.264212e-01    0.000000e+00
  1.267201e-01    0.000000e+00
  1.270190e-01    0.000000e+00
  1.273179e-01    0.000000e+00
  1.276169e-01    0.000000e+00
  1.279158e-01    0.000000e+00
  1.282147e-01    0.000000e+00
  1.285137e-01    0.000000e+00
  1.288126e-01    0.000000e+00
  1.291115e-01    0.000000e+00
  1.294105e-01    0.000000e+00
  1.297094e-01    0.000000e+00
  1.300083e-01    0.000000e+00
  1.303072e-01    0.000000e+00
  1.306062e-01    0.000000e+00
  1.309051e-01    0.000000e+00
  1.312040e-01    0.000000e+00
  1.315030e-01    0.000000e+00
  1.318019e-01    0.000000e+00
  1.321008e-01    0.000000e+00
  1.323998e-01    0.000000e+00
  1.326987e-01    0.000000e+00
  1.329976e-01    0.000000e+00
  1.332965e-01    0.000000e+00
  1.335955e-01    0.000000e+00
  1.338944e-01    0.000000e+00
  1.341933e-01    0.000000e+00
  1.344923e-01    0.000000e+00
  1.347912e-01    0.000000e+00
  1.350901e-01    0.000000e+00
  1.353891e-01    0.000000e+00
  1.356880e-01    0.000000e+00
  1.359869e-01    0.000000e+00
  1.362859e-01    0.000000e+00
  1.365848e-01    0.000000e+00
  1.368837e-01    0.000000e+00
  1.371826e-01    0.000000e+00
  1.374816e-01    0.000000e+00
  1.377805e-01    0.000000e+00
  1.380794e-01    0.000000e+00
  1.383784e-01    0.000000e+00
  1.386773e-01    0.000000e+00
  1.389762e-01    0.000000e+00
  1.392752e-01    0.000000e+00
  1.395741e-01    0.000000e+00
  1.398730e-01    0.000000e+00
  1.401719e-01    0.000000e+00
  1.404709e-01    0.000000e+00
  1.407698e-01    0.000000e+00
  1.410687e-01    0.000000e+00
  1.413677e-01    0.000000e+00
  1.416666e-01    0.000000e+00
  1.419655e-01    0.000000e+00
  1.422645e-01    0.000000e+00
  1.425634e-01    0.000000e+00
  1.428623e-01    0.000000e+00
  1.431613e-01    0.000000e+00
  1.434602e-01    0.000000e+00
  1.437591e-01    0.000000e+00
  1.440580e-01    0.000000e+00
  1.443570e-01    0.000000e+00
  1.446559e-01    0.000000e+00
  1.449548e-01    0.000000e+00
  1.452538e-01    0.000000e+00
  1.455527e-01    0.000000e+00
  1.458516e-01    0.000000e+00
  1.461506e-01    0.000000e+00
  1.464495e-01    0.000000e+00
  1.467484e-01    0.000000e+00
  1.470473e-01    0.000000e+00
  1.473463e-01    0.000000e+00
  1.476452e-01    0.000000e+00
  1.479441e-01    0.000000e+00
  1.482431e-01    0.000000e+00
  1.485420e-01    0.000000e+00
  1.488409e-01    0.000000e+00
  1.491399e-01    0.000000e+00
  1.494388e-01    0.000000e+00
  1.497377e-01    0.000000e+00
  1.500367e-01    0.000000e+00
  1.503356e-01    0.000000e+00
  1.506345e-01    0.000000e+00
  1.509334e-01    0.000000e+00
  1.512324e-01    0.000000e+00
  1.515313e-01    0.000000e+00
  1.518302e-01    0.000000e+00
  1.521292e-01    0.000000e+00
  1.524281e-01    0.000000e+00
  1.527270e-01    0.000000e+00
  1.530260e-01    0.000000e+00
  1.533249e-01    0.000000e+00
  1.536238e-01    0.000000e+00
