# == pyFAI calibration ==
# Distance Sample to Detector: 2.266 m
# PONI: 5.659e-02, 4.293e-02 m
# Rotations: 0.000000 0.000000 0.000000 rad
# 
# == Fit2d calibration ==
# Distance Sample-beamCenter: 2266.000 mm
# Center: x=249.594, y=329.012 pix
# Tilt: 0.000 deg  TiltPlanRot: 0.000 deg
# 
# Detector Pilatus 300k	 PixelSize= 1.720e-04, 1.720e-04 m
#    Detector has a mask: True 
#    Detector has a dark current: False 
#    detector has a flat field: False 
# 
# Wavelength: 1.27818e-10 m
# Mask applied: user provided
# Dark current applied: False
# Flat field applied: False
# Polarization factor: None
# Normalization factor: 17235588.0
# --> MT-F127_90.899_hexanes_154.529_EtOH_224.803_NaCl_100.000mgml_0_r1d.csv
#        q_A^-1             I 
  4.457554e-03    4.099052e-04
  4.756484e-03    3.204185e-04
  5.055415e-03    2.282164e-04
  5.354345e-03    1.591765e-04
  5.653276e-03    1.219815e-04
  5.952206e-03    1.945242e-04
  6.251136e-03    1.787086e-04
  6.550067e-03    1.558778e-04
  6.848997e-03    1.329129e-04
  7.147927e-03    1.128099e-04
  7.446858e-03    9.648427e-05
  7.745788e-03    8.283360e-05
  8.044719e-03    7.158703e-05
  8.343649e-03    6.230107e-05
  8.642579e-03    5.472010e-05
  8.941510e-03    4.832911e-05
  9.240440e-03    4.280589e-05
  9.539371e-03    3.806733e-05
  9.838301e-03    3.380875e-05
  1.013723e-02    3.028930e-05
  1.043616e-02    2.730665e-05
  1.073509e-02    2.444211e-05
  1.103402e-02    2.205135e-05
  1.133295e-02    2.010130e-05
  1.163188e-02    1.821880e-05
  1.193081e-02    1.657924e-05
  1.222974e-02    1.519501e-05
  1.252867e-02    1.400385e-05
  1.282760e-02    1.286488e-05
  1.312654e-02    1.187239e-05
  1.342547e-02    1.096481e-05
  1.372440e-02    1.013520e-05
  1.402333e-02    9.460656e-06
  1.432226e-02    8.802897e-06
  1.462119e-02    8.184589e-06
  1.492012e-02    7.617748e-06
  1.521905e-02    7.123760e-06
  1.551798e-02    6.653900e-06
  1.581691e-02    6.249645e-06
  1.611584e-02    5.911443e-06
  1.641477e-02    5.542609e-06
  1.671370e-02    5.207702e-06
  1.701263e-02    4.923759e-06
  1.731156e-02    4.677855e-06
  1.761049e-02    4.456207e-06
  1.790942e-02    4.225401e-06
  1.820835e-02    3.974894e-06
  1.850728e-02    3.784172e-06
  1.880621e-02    3.643890e-06
  1.910514e-02    3.475463e-06
  1.940407e-02    3.310245e-06
  1.970300e-02    3.192893e-06
  2.000193e-02    3.073696e-06
  2.030086e-02    2.965888e-06
  2.059979e-02    2.889437e-06
  2.089873e-02    2.773246e-06
  2.119766e-02    2.640454e-06
  2.149659e-02    2.562260e-06
  2.179552e-02    2.493958e-06
  2.209445e-02    2.378593e-06
  2.239338e-02    2.323075e-06
  2.269231e-02    2.286655e-06
  2.299124e-02    2.197634e-06
  2.329017e-02    2.145964e-06
  2.358910e-02    2.095642e-06
  2.388803e-02    2.024848e-06
  2.418696e-02    1.978868e-06
  2.448589e-02    1.942372e-06
  2.478482e-02    1.902332e-06
  2.508375e-02    1.864608e-06
  2.538268e-02    1.833840e-06
  2.568161e-02    1.802085e-06
  2.598054e-02    1.770426e-06
  2.627947e-02    1.738691e-06
  2.657840e-02    1.706243e-06
  2.687733e-02    1.682987e-06
  2.717626e-02    1.660422e-06
  2.747519e-02    1.605145e-06
  2.777412e-02    1.577557e-06
  2.807305e-02    1.546548e-06
  2.837198e-02    1.531410e-06
  2.867092e-02    1.505171e-06
  2.896985e-02    1.478349e-06
  2.926878e-02    1.482412e-06
  2.956771e-02    1.492193e-06
  2.986664e-02    1.456667e-06
  3.016557e-02    1.428523e-06
  3.046450e-02    1.411573e-06
  3.076343e-02    1.403584e-06
  3.106236e-02    1.381640e-06
  3.136129e-02    1.387359e-06
  3.166022e-02    1.371065e-06
  3.195915e-02    1.353167e-06
  3.225808e-02    1.341308e-06
  3.255701e-02    1.312534e-06
  3.285594e-02    1.314648e-06
  3.315487e-02    1.307035e-06
  3.345380e-02    1.284472e-06
  3.375273e-02    1.257962e-06
  3.405166e-02    1.259897e-06
  3.435059e-02    1.236826e-06
  3.464952e-02    1.214786e-06
  3.494845e-02    1.219563e-06
  3.524738e-02    1.204864e-06
  3.554631e-02    1.191476e-06
  3.584524e-02    1.177946e-06
  3.614417e-02    1.147611e-06
  3.644310e-02    1.153550e-06
  3.674204e-02    1.146828e-06
  3.704097e-02    1.143964e-06
  3.733990e-02    1.132638e-06
  3.763883e-02    1.121747e-06
  3.793776e-02    1.090459e-06
  3.823669e-02    1.086740e-06
  3.853562e-02    1.087256e-06
  3.883455e-02    1.082615e-06
  3.913348e-02    1.055132e-06
  3.943241e-02    1.051396e-06
  3.973134e-02    1.052484e-06
  4.003027e-02    1.050367e-06
  4.032920e-02    1.051694e-06
  4.062813e-02    1.036379e-06
  4.092706e-02    1.019638e-06
  4.122599e-02    1.018497e-06
  4.152492e-02    1.013981e-06
  4.182385e-02    1.014869e-06
  4.212278e-02    1.006155e-06
  4.242171e-02    1.002058e-06
  4.272064e-02    1.000188e-06
  4.301957e-02    9.933761e-07
  4.331850e-02    9.945956e-07
  4.361743e-02    9.837880e-07
  4.391636e-02    9.816486e-07
  4.421529e-02    9.751931e-07
  4.451423e-02    9.696651e-07
  4.481316e-02    9.661773e-07
  4.511209e-02    9.677816e-07
  4.541102e-02    9.760929e-07
  4.570995e-02    9.686701e-07
  4.600888e-02    9.584121e-07
  4.630781e-02    9.615734e-07
  4.660674e-02    9.557922e-07
  4.690567e-02    9.514702e-07
  4.720460e-02    9.642577e-07
  4.750353e-02    9.617257e-07
  4.780246e-02    9.496483e-07
  4.810139e-02    9.542223e-07
  4.840032e-02    9.595955e-07
  4.869925e-02    9.538330e-07
  4.899818e-02    9.604114e-07
  4.929711e-02    9.523634e-07
  4.959604e-02    9.599112e-07
  4.989497e-02    9.518462e-07
  5.019390e-02    9.422563e-07
  5.049283e-02    9.469185e-07
  5.079176e-02    9.493996e-07
  5.109069e-02    9.418631e-07
  5.138962e-02    9.610088e-07
  5.168855e-02    9.968551e-07
  5.198748e-02    1.013131e-06
  5.228642e-02    1.000325e-06
  5.258535e-02    9.599687e-07
  5.288428e-02    9.456459e-07
  5.318321e-02    9.378049e-07
  5.348214e-02    9.301439e-07
  5.378107e-02    9.377836e-07
  5.408000e-02    9.317266e-07
  5.437893e-02    9.190747e-07
  5.467786e-02    9.164318e-07
  5.497679e-02    9.222463e-07
  5.527572e-02    9.263448e-07
  5.557465e-02    9.204318e-07
  5.587358e-02    9.289444e-07
  5.617251e-02    9.274177e-07
  5.647144e-02    9.295297e-07
  5.677037e-02    9.304018e-07
  5.706930e-02    9.330186e-07
  5.736823e-02    9.232135e-07
  5.766716e-02    9.144580e-07
  5.796609e-02    9.328517e-07
  5.826502e-02    9.361429e-07
  5.856395e-02    9.313634e-07
  5.886288e-02    9.395177e-07
  5.916181e-02    9.344220e-07
  5.946074e-02    9.407019e-07
  5.975967e-02    9.374438e-07
  6.005861e-02    9.374484e-07
  6.035754e-02    9.460100e-07
  6.065647e-02    9.531336e-07
  6.095540e-02    9.664534e-07
  6.125433e-02    9.673339e-07
  6.155326e-02    9.706947e-07
  6.185219e-02    9.628043e-07
  6.215112e-02    9.467792e-07
  6.245005e-02    9.387878e-07
  6.274898e-02    9.459771e-07
  6.304791e-02    9.455447e-07
  6.334684e-02    9.474804e-07
  6.364577e-02    9.553296e-07
  6.394470e-02    9.520609e-07
  6.424363e-02    9.427507e-07
  6.454256e-02    9.336728e-07
  6.484149e-02    9.389067e-07
  6.514042e-02    9.493900e-07
  6.543935e-02    9.491790e-07
  6.573828e-02    9.442679e-07
  6.603721e-02    9.499692e-07
  6.633614e-02    9.494330e-07
  6.663507e-02    9.477063e-07
  6.693400e-02    9.470855e-07
  6.723293e-02    9.511073e-07
  6.753186e-02    9.526634e-07
  6.783080e-02    9.599462e-07
  6.812973e-02    9.609072e-07
  6.842866e-02    9.624785e-07
  6.872759e-02    9.555250e-07
  6.902652e-02    9.642679e-07
  6.932545e-02    9.683797e-07
  6.962438e-02    9.673612e-07
  6.992331e-02    9.630631e-07
  7.022224e-02    9.657432e-07
  7.052117e-02    9.712807e-07
  7.082010e-02    9.735564e-07
  7.111903e-02    9.757204e-07
  7.141796e-02    9.729400e-07
  7.171689e-02    9.734398e-07
  7.201582e-02    9.811235e-07
  7.231475e-02    9.750855e-07
  7.261368e-02    9.615754e-07
  7.291261e-02    9.688716e-07
  7.321154e-02    9.726467e-07
  7.351047e-02    9.775122e-07
  7.380940e-02    9.666597e-07
  7.410833e-02    9.664611e-07
  7.440726e-02    9.731895e-07
  7.470619e-02    9.765334e-07
  7.500512e-02    9.713307e-07
  7.530405e-02    9.598484e-07
  7.560299e-02    9.706296e-07
  7.590192e-02    9.742757e-07
  7.620085e-02    9.694870e-07
  7.649978e-02    9.669343e-07
  7.679871e-02    9.732173e-07
  7.709764e-02    9.745995e-07
  7.739657e-02    9.696261e-07
  7.769550e-02    9.732647e-07
  7.799443e-02    9.793831e-07
  7.829336e-02    9.681447e-07
  7.859229e-02    9.562150e-07
  7.889122e-02    9.609685e-07
  7.919015e-02    9.708978e-07
  7.948908e-02    9.599207e-07
  7.978801e-02    9.512481e-07
  8.008694e-02    9.536022e-07
  8.038587e-02    9.588800e-07
  8.068480e-02    9.561395e-07
  8.098373e-02    9.555413e-07
  8.128266e-02    9.572634e-07
  8.158159e-02    9.644546e-07
  8.188052e-02    9.564455e-07
  8.217945e-02    9.533539e-07
  8.247838e-02    9.584652e-07
  8.277731e-02    9.568224e-07
  8.307624e-02    9.445774e-07
  8.337518e-02    9.482073e-07
  8.367411e-02    9.546382e-07
  8.397304e-02    9.560333e-07
  8.427197e-02    9.473275e-07
  8.457090e-02    9.418335e-07
  8.486983e-02    9.461231e-07
  8.516876e-02    9.443187e-07
  8.546769e-02    9.368580e-07
  8.576662e-02    9.312456e-07
  8.606555e-02    9.329443e-07
  8.636448e-02    9.328901e-07
  8.666341e-02    9.340502e-07
  8.696234e-02    9.311418e-07
  8.726127e-02    9.222133e-07
  8.756020e-02    9.266450e-07
  8.785913e-02    9.313242e-07
  8.815806e-02    9.264353e-07
  8.845699e-02    9.182206e-07
  8.875592e-02    9.112010e-07
  8.905485e-02    9.125844e-07
  8.935378e-02    9.176794e-07
  8.965271e-02    9.129729e-07
  8.995164e-02    9.162812e-07
  9.025057e-02    9.207263e-07
  9.054950e-02    9.042139e-07
  9.084843e-02    9.056680e-07
  9.114737e-02    9.124234e-07
  9.144630e-02    9.137211e-07
  9.174523e-02    9.107152e-07
  9.204416e-02    9.018383e-07
  9.234309e-02    8.985281e-07
  9.264202e-02    8.983157e-07
  9.294095e-02    9.008393e-07
  9.323988e-02    8.953089e-07
  9.353881e-02    8.876959e-07
  9.383774e-02    8.861676e-07
  9.413667e-02    8.893051e-07
  9.443560e-02    8.865986e-07
  9.473453e-02    8.842622e-07
  9.503346e-02    8.860682e-07
  9.533239e-02    8.831366e-07
  9.563132e-02    8.842645e-07
  9.593025e-02    8.853539e-07
  9.622918e-02    8.843347e-07
  9.652811e-02    8.864533e-07
  9.682704e-02    8.939284e-07
  9.712597e-02    8.920770e-07
  9.742490e-02    9.004685e-07
  9.772383e-02    9.029590e-07
  9.802276e-02    8.819287e-07
  9.832169e-02    8.674211e-07
  9.862062e-02    8.702083e-07
  9.891956e-02    8.697109e-07
  9.921849e-02    8.614642e-07
  9.951742e-02    8.521640e-07
  9.981635e-02    8.577115e-07
  1.001153e-01    8.678400e-07
  1.004142e-01    8.560806e-07
  1.007131e-01    8.523181e-07
  1.010121e-01    8.448748e-07
  1.013110e-01    8.460800e-07
  1.016099e-01    8.510203e-07
  1.019089e-01    8.454725e-07
  1.022078e-01    8.449028e-07
  1.025067e-01    8.490896e-07
  1.028057e-01    8.479974e-07
  1.031046e-01    8.427645e-07
  1.034035e-01    8.405807e-07
  1.037024e-01    8.419245e-07
  1.040014e-01    8.374818e-07
  1.043003e-01    8.373491e-07
  1.045992e-01    8.352033e-07
  1.048982e-01    8.319786e-07
  1.051971e-01    8.340242e-07
  1.054960e-01    8.356220e-07
  1.057950e-01    8.299265e-07
  1.060939e-01    8.340561e-07
  1.063928e-01    8.372795e-07
  1.066917e-01    8.292424e-07
  1.069907e-01    8.181075e-07
  1.072896e-01    8.199057e-07
  1.075885e-01    8.151785e-07
  1.078875e-01    8.204003e-07
  1.081864e-01    8.241968e-07
  1.084853e-01    8.181505e-07
  1.087843e-01    8.140192e-07
  1.090832e-01    8.192225e-07
  1.093821e-01    8.182217e-07
  1.096810e-01    8.130263e-07
  1.099800e-01    8.097500e-07
  1.102789e-01    8.075341e-07
  1.105778e-01    8.098755e-07
  1.108768e-01    8.113914e-07
  1.111757e-01    8.029067e-07
  1.114746e-01    8.011645e-07
  1.117736e-01    7.977451e-07
  1.120725e-01    7.921374e-07
  1.123714e-01    7.850124e-07
  1.126704e-01    7.838988e-07
  1.129693e-01    7.799457e-07
  1.132682e-01    7.693116e-07
  1.135671e-01    7.760453e-07
  1.138661e-01    7.832312e-07
  1.141650e-01    7.838195e-07
  1.144639e-01    7.864591e-07
  1.147629e-01    7.793352e-07
  1.150618e-01    7.722124e-07
  1.153607e-01    7.798762e-07
  1.156597e-01    7.629974e-07
  1.159586e-01    7.538634e-07
  1.162575e-01    7.681621e-07
  1.165564e-01    7.606049e-07
  1.168554e-01    7.577758e-07
  1.171543e-01    7.597474e-07
  1.174532e-01    7.779731e-07
  1.177522e-01    7.913648e-07
  1.180511e-01    7.932503e-07
  1.183500e-01    7.973445e-07
  1.186490e-01    7.895247e-07
  1.189479e-01    7.631986e-07
  1.192468e-01    7.311049e-07
  1.195458e-01    7.741136e-07
  1.198447e-01    8.065483e-07
  1.201436e-01    7.723654e-07
  1.204425e-01    7.813209e-07
  1.207415e-01    7.755885e-07
  1.210404e-01    5.807204e-07
  1.213393e-01    0.000000e+00
  1.216383e-01    0.000000e+00
  1.219372e-01    0.000000e+00
  1.222361e-01    0.000000e+00
  1.225351e-01    0.000000e+00
  1.228340e-01    0.000000e+00
  1.231329e-01    0.000000e+00
  1.234318e-01    0.000000e+00
  1.237308e-01    0.000000e+00
  1.240297e-01    0.000000e+00
  1.243286e-01    0.000000e+00
  1.246276e-01    0.000000e+00
  1.249265e-01    0.000000e+00
  1.252254e-01    0.000000e+00
  1.255244e-01    0.000000e+00
  1.258233e-01    0.000000e+00
  1.261222e-01    0.000000e+00
  1.264212e-01    0.000000e+00
  1.267201e-01    0.000000e+00
  1.270190e-01    0.000000e+00
  1.273179e-01    0.000000e+00
  1.276169e-01    0.000000e+00
  1.279158e-01    0.000000e+00
  1.282147e-01    0.000000e+00
  1.285137e-01    0.000000e+00
  1.288126e-01    0.000000e+00
  1.291115e-01    0.000000e+00
  1.294105e-01    0.000000e+00
  1.297094e-01    0.000000e+00
  1.300083e-01    0.000000e+00
  1.303072e-01    0.000000e+00
  1.306062e-01    0.000000e+00
  1.309051e-01    0.000000e+00
  1.312040e-01    0.000000e+00
  1.315030e-01    0.000000e+00
  1.318019e-01    0.000000e+00
  1.321008e-01    0.000000e+00
  1.323998e-01    0.000000e+00
  1.326987e-01    0.000000e+00
  1.329976e-01    0.000000e+00
  1.332965e-01    0.000000e+00
  1.335955e-01    0.000000e+00
  1.338944e-01    0.000000e+00
  1.341933e-01    0.000000e+00
  1.344923e-01    0.000000e+00
  1.347912e-01    0.000000e+00
  1.350901e-01    0.000000e+00
  1.353891e-01    0.000000e+00
  1.356880e-01    0.000000e+00
  1.359869e-01    0.000000e+00
  1.362859e-01    0.000000e+00
  1.365848e-01    0.000000e+00
  1.368837e-01    0.000000e+00
  1.371826e-01    0.000000e+00
  1.374816e-01    0.000000e+00
  1.377805e-01    0.000000e+00
  1.380794e-01    0.000000e+00
  1.383784e-01    0.000000e+00
  1.386773e-01    0.000000e+00
  1.389762e-01    0.000000e+00
  1.392752e-01    0.000000e+00
  1.395741e-01    0.000000e+00
  1.398730e-01    0.000000e+00
  1.401719e-01    0.000000e+00
  1.404709e-01    0.000000e+00
  1.407698e-01    0.000000e+00
  1.410687e-01    0.000000e+00
  1.413677e-01    0.000000e+00
  1.416666e-01    0.000000e+00
  1.419655e-01    0.000000e+00
  1.422645e-01    0.000000e+00
  1.425634e-01    0.000000e+00
  1.428623e-01    0.000000e+00
  1.431613e-01    0.000000e+00
  1.434602e-01    0.000000e+00
  1.437591e-01    0.000000e+00
  1.440580e-01    0.000000e+00
  1.443570e-01    0.000000e+00
  1.446559e-01    0.000000e+00
  1.449548e-01    0.000000e+00
  1.452538e-01    0.000000e+00
  1.455527e-01    0.000000e+00
  1.458516e-01    0.000000e+00
  1.461506e-01    0.000000e+00
  1.464495e-01    0.000000e+00
  1.467484e-01    0.000000e+00
  1.470473e-01    0.000000e+00
  1.473463e-01    0.000000e+00
  1.476452e-01    0.000000e+00
  1.479441e-01    0.000000e+00
  1.482431e-01    0.000000e+00
  1.485420e-01    0.000000e+00
  1.488409e-01    0.000000e+00
  1.491399e-01    0.000000e+00
  1.494388e-01    0.000000e+00
  1.497377e-01    0.000000e+00
  1.500367e-01    0.000000e+00
  1.503356e-01    0.000000e+00
  1.506345e-01    0.000000e+00
  1.509334e-01    0.000000e+00
  1.512324e-01    0.000000e+00
  1.515313e-01    0.000000e+00
  1.518302e-01    0.000000e+00
  1.521292e-01    0.000000e+00
  1.524281e-01    0.000000e+00
  1.527270e-01    0.000000e+00
  1.530260e-01    0.000000e+00
  1.533249e-01    0.000000e+00
  1.536238e-01    0.000000e+00
