# == pyFAI calibration ==
# Distance Sample to Detector: 2.266 m
# PONI: 5.659e-02, 4.293e-02 m
# Rotations: 0.000000 0.000000 0.000000 rad
# 
# == Fit2d calibration ==
# Distance Sample-beamCenter: 2266.000 mm
# Center: x=249.594, y=329.012 pix
# Tilt: 0.000 deg  TiltPlanRot: 0.000 deg
# 
# Detector Pilatus 300k	 PixelSize= 1.720e-04, 1.720e-04 m
#    Detector has a mask: True 
#    Detector has a dark current: False 
#    detector has a flat field: False 
# 
# Wavelength: 1.27818e-10 m
# Mask applied: user provided
# Dark current applied: False
# Flat field applied: False
# Polarization factor: None
# Normalization factor: 20929406.800000004
# --> MT-F127_91.073_hexanes_127.502_EtOH_256.637_NaCl_100.000mgml_2_r1d.csv
#        q_A^-1             I 
  4.457554e-03    1.817154e-03
  4.756484e-03    1.440490e-03
  5.055415e-03    1.033227e-03
  5.354345e-03    7.343563e-04
  5.653276e-03    5.810821e-04
  5.952206e-03    9.793297e-04
  6.251136e-03    8.890303e-04
  6.550067e-03    7.667193e-04
  6.848997e-03    6.471539e-04
  7.147927e-03    5.448706e-04
  7.446858e-03    4.650243e-04
  7.745788e-03    3.980519e-04
  8.044719e-03    3.426883e-04
  8.343649e-03    2.987563e-04
  8.642579e-03    2.614144e-04
  8.941510e-03    2.299727e-04
  9.240440e-03    2.036916e-04
  9.539371e-03    1.806145e-04
  9.838301e-03    1.606405e-04
  1.013723e-02    1.440022e-04
  1.043616e-02    1.294476e-04
  1.073509e-02    1.163077e-04
  1.103402e-02    1.053920e-04
  1.133295e-02    9.569056e-05
  1.163188e-02    8.715689e-05
  1.193081e-02    7.981734e-05
  1.222974e-02    7.314820e-05
  1.252867e-02    6.714158e-05
  1.282760e-02    6.161229e-05
  1.312654e-02    5.671098e-05
  1.342547e-02    5.261487e-05
  1.372440e-02    4.878676e-05
  1.402333e-02    4.534985e-05
  1.432226e-02    4.224771e-05
  1.462119e-02    3.941415e-05
  1.492012e-02    3.686099e-05
  1.521905e-02    3.440012e-05
  1.551798e-02    3.231651e-05
  1.581691e-02    3.038652e-05
  1.611584e-02    2.864030e-05
  1.641477e-02    2.695618e-05
  1.671370e-02    2.552549e-05
  1.701263e-02    2.420388e-05
  1.731156e-02    2.293291e-05
  1.761049e-02    2.177046e-05
  1.790942e-02    2.069978e-05
  1.820835e-02    1.980904e-05
  1.850728e-02    1.885999e-05
  1.880621e-02    1.804047e-05
  1.910514e-02    1.724700e-05
  1.940407e-02    1.651654e-05
  1.970300e-02    1.583621e-05
  2.000193e-02    1.525070e-05
  2.030086e-02    1.465450e-05
  2.059979e-02    1.415038e-05
  2.089873e-02    1.361250e-05
  2.119766e-02    1.311741e-05
  2.149659e-02    1.270056e-05
  2.179552e-02    1.232815e-05
  2.209445e-02    1.198780e-05
  2.239338e-02    1.159800e-05
  2.269231e-02    1.123405e-05
  2.299124e-02    1.091524e-05
  2.329017e-02    1.066655e-05
  2.358910e-02    1.037638e-05
  2.388803e-02    1.008820e-05
  2.418696e-02    9.907783e-06
  2.448589e-02    9.682811e-06
  2.478482e-02    9.482758e-06
  2.508375e-02    9.299293e-06
  2.538268e-02    9.111729e-06
  2.568161e-02    8.910872e-06
  2.598054e-02    8.766387e-06
  2.627947e-02    8.634952e-06
  2.657840e-02    8.533419e-06
  2.687733e-02    8.342518e-06
  2.717626e-02    8.190541e-06
  2.747519e-02    8.085637e-06
  2.777412e-02    7.967144e-06
  2.807305e-02    7.854414e-06
  2.837198e-02    7.779752e-06
  2.867092e-02    7.658247e-06
  2.896985e-02    7.545867e-06
  2.926878e-02    7.432038e-06
  2.956771e-02    7.340489e-06
  2.986664e-02    7.246887e-06
  3.016557e-02    7.161723e-06
  3.046450e-02    7.077305e-06
  3.076343e-02    6.990394e-06
  3.106236e-02    6.962216e-06
  3.136129e-02    6.885140e-06
  3.166022e-02    6.792400e-06
  3.195915e-02    6.737246e-06
  3.225808e-02    6.691268e-06
  3.255701e-02    6.637253e-06
  3.285594e-02    6.532618e-06
  3.315487e-02    6.462828e-06
  3.345380e-02    6.409944e-06
  3.375273e-02    6.386267e-06
  3.405166e-02    6.335164e-06
  3.435059e-02    6.276634e-06
  3.464952e-02    6.179191e-06
  3.494845e-02    6.140003e-06
  3.524738e-02    6.113054e-06
  3.554631e-02    6.078049e-06
  3.584524e-02    6.028446e-06
  3.614417e-02    5.997830e-06
  3.644310e-02    5.953666e-06
  3.674204e-02    5.932079e-06
  3.704097e-02    5.807322e-06
  3.733990e-02    5.762392e-06
  3.763883e-02    5.741800e-06
  3.793776e-02    5.719603e-06
  3.823669e-02    5.694057e-06
  3.853562e-02    5.663303e-06
  3.883455e-02    5.610898e-06
  3.913348e-02    5.585011e-06
  3.943241e-02    5.550083e-06
  3.973134e-02    5.528792e-06
  4.003027e-02    5.507114e-06
  4.032920e-02    5.491130e-06
  4.062813e-02    5.464163e-06
  4.092706e-02    5.438390e-06
  4.122599e-02    5.424443e-06
  4.152492e-02    5.391512e-06
  4.182385e-02    5.390187e-06
  4.212278e-02    5.342856e-06
  4.242171e-02    5.303883e-06
  4.272064e-02    5.325003e-06
  4.301957e-02    5.326337e-06
  4.331850e-02    5.278880e-06
  4.361743e-02    5.248030e-06
  4.391636e-02    5.260249e-06
  4.421529e-02    5.254655e-06
  4.451423e-02    5.258220e-06
  4.481316e-02    5.248065e-06
  4.511209e-02    5.229637e-06
  4.541102e-02    5.228808e-06
  4.570995e-02    5.208462e-06
  4.600888e-02    5.180204e-06
  4.630781e-02    5.182481e-06
  4.660674e-02    5.173598e-06
  4.690567e-02    5.194943e-06
  4.720460e-02    5.195139e-06
  4.750353e-02    5.182574e-06
  4.780246e-02    5.182317e-06
  4.810139e-02    5.178017e-06
  4.840032e-02    5.177213e-06
  4.869925e-02    5.182866e-06
  4.899818e-02    5.174466e-06
  4.929711e-02    5.173120e-06
  4.959604e-02    5.188023e-06
  4.989497e-02    5.174099e-06
  5.019390e-02    5.166514e-06
  5.049283e-02    5.162781e-06
  5.079176e-02    5.170300e-06
  5.109069e-02    5.188308e-06
  5.138962e-02    5.226381e-06
  5.168855e-02    5.297287e-06
  5.198748e-02    5.372279e-06
  5.228642e-02    5.327214e-06
  5.258535e-02    5.192594e-06
  5.288428e-02    5.172375e-06
  5.318321e-02    5.195291e-06
  5.348214e-02    5.171808e-06
  5.378107e-02    5.186558e-06
  5.408000e-02    5.181517e-06
  5.437893e-02    5.187397e-06
  5.467786e-02    5.174991e-06
  5.497679e-02    5.155370e-06
  5.527572e-02    5.175631e-06
  5.557465e-02    5.190008e-06
  5.587358e-02    5.183754e-06
  5.617251e-02    5.199178e-06
  5.647144e-02    5.219721e-06
  5.677037e-02    5.222632e-06
  5.706930e-02    5.214273e-06
  5.736823e-02    5.221274e-06
  5.766716e-02    5.240684e-06
  5.796609e-02    5.228199e-06
  5.826502e-02    5.217320e-06
  5.856395e-02    5.234975e-06
  5.886288e-02    5.235944e-06
  5.916181e-02    5.252085e-06
  5.946074e-02    5.283788e-06
  5.975967e-02    5.284565e-06
  6.005861e-02    5.294206e-06
  6.035754e-02    5.327979e-06
  6.065647e-02    5.341245e-06
  6.095540e-02    5.385177e-06
  6.125433e-02    5.426159e-06
  6.155326e-02    5.416895e-06
  6.185219e-02    5.402108e-06
  6.215112e-02    5.391502e-06
  6.245005e-02    5.367995e-06
  6.274898e-02    5.361062e-06
  6.304791e-02    5.347912e-06
  6.334684e-02    5.371120e-06
  6.364577e-02    5.392436e-06
  6.394470e-02    5.378895e-06
  6.424363e-02    5.382297e-06
  6.454256e-02    5.393954e-06
  6.484149e-02    5.422635e-06
  6.514042e-02    5.448253e-06
  6.543935e-02    5.444075e-06
  6.573828e-02    5.470759e-06
  6.603721e-02    5.476573e-06
  6.633614e-02    5.476274e-06
  6.663507e-02    5.482043e-06
  6.693400e-02    5.480788e-06
  6.723293e-02    5.503538e-06
  6.753186e-02    5.506215e-06
  6.783080e-02    5.520722e-06
  6.812973e-02    5.521265e-06
  6.842866e-02    5.516911e-06
  6.872759e-02    5.534660e-06
  6.902652e-02    5.543756e-06
  6.932545e-02    5.552160e-06
  6.962438e-02    5.562783e-06
  6.992331e-02    5.557034e-06
  7.022224e-02    5.558950e-06
  7.052117e-02    5.598100e-06
  7.082010e-02    5.597929e-06
  7.111903e-02    5.600764e-06
  7.141796e-02    5.611499e-06
  7.171689e-02    5.611970e-06
  7.201582e-02    5.626741e-06
  7.231475e-02    5.637255e-06
  7.261368e-02    5.656240e-06
  7.291261e-02    5.673785e-06
  7.321154e-02    5.651448e-06
  7.351047e-02    5.645513e-06
  7.380940e-02    5.636949e-06
  7.410833e-02    5.653229e-06
  7.440726e-02    5.653772e-06
  7.470619e-02    5.656425e-06
  7.500512e-02    5.664256e-06
  7.530405e-02    5.667722e-06
  7.560299e-02    5.668617e-06
  7.590192e-02    5.670706e-06
  7.620085e-02    5.680123e-06
  7.649978e-02    5.685725e-06
  7.679871e-02    5.689265e-06
  7.709764e-02    5.687753e-06
  7.739657e-02    5.679695e-06
  7.769550e-02    5.689204e-06
  7.799443e-02    5.673755e-06
  7.829336e-02    5.668557e-06
  7.859229e-02    5.674640e-06
  7.889122e-02    5.663727e-06
  7.919015e-02    5.668301e-06
  7.948908e-02    5.692872e-06
  7.978801e-02    5.688008e-06
  8.008694e-02    5.654047e-06
  8.038587e-02    5.637173e-06
  8.068480e-02    5.640899e-06
  8.098373e-02    5.635538e-06
  8.128266e-02    5.643236e-06
  8.158159e-02    5.658355e-06
  8.188052e-02    5.668611e-06
  8.217945e-02    5.640370e-06
  8.247838e-02    5.643355e-06
  8.277731e-02    5.640909e-06
  8.307624e-02    5.644579e-06
  8.337518e-02    5.628443e-06
  8.367411e-02    5.617261e-06
  8.397304e-02    5.589361e-06
  8.427197e-02    5.566332e-06
  8.457090e-02    5.578260e-06
  8.486983e-02    5.581112e-06
  8.516876e-02    5.573273e-06
  8.546769e-02    5.585863e-06
  8.576662e-02    5.573195e-06
  8.606555e-02    5.546287e-06
  8.636448e-02    5.526484e-06
  8.666341e-02    5.523336e-06
  8.696234e-02    5.529623e-06
  8.726127e-02    5.515607e-06
  8.756020e-02    5.517881e-06
  8.785913e-02    5.531083e-06
  8.815806e-02    5.511860e-06
  8.845699e-02    5.479147e-06
  8.875592e-02    5.473595e-06
  8.905485e-02    5.490691e-06
  8.935378e-02    5.479732e-06
  8.965271e-02    5.427563e-06
  8.995164e-02    5.440984e-06
  9.025057e-02    5.457431e-06
  9.054950e-02    5.429908e-06
  9.084843e-02    5.406980e-06
  9.114737e-02    5.403037e-06
  9.144630e-02    5.387068e-06
  9.174523e-02    5.369187e-06
  9.204416e-02    5.367189e-06
  9.234309e-02    5.352756e-06
  9.264202e-02    5.349381e-06
  9.294095e-02    5.341567e-06
  9.323988e-02    5.340094e-06
  9.353881e-02    5.343973e-06
  9.383774e-02    5.337433e-06
  9.413667e-02    5.320835e-06
  9.443560e-02    5.298366e-06
  9.473453e-02    5.300551e-06
  9.503346e-02    5.302670e-06
  9.533239e-02    5.288877e-06
  9.563132e-02    5.285071e-06
  9.593025e-02    5.250559e-06
  9.622918e-02    5.280853e-06
  9.652811e-02    5.297149e-06
  9.682704e-02    5.281162e-06
  9.712597e-02    5.262835e-06
  9.742490e-02    5.246643e-06
  9.772383e-02    5.250946e-06
  9.802276e-02    5.221169e-06
  9.832169e-02    5.184363e-06
  9.862062e-02    5.169035e-06
  9.891956e-02    5.163954e-06
  9.921849e-02    5.170099e-06
  9.951742e-02    5.138651e-06
  9.981635e-02    5.096380e-06
  1.001153e-01    5.087735e-06
  1.004142e-01    5.088757e-06
  1.007131e-01    5.098343e-06
  1.010121e-01    5.092146e-06
  1.013110e-01    5.087380e-06
  1.016099e-01    5.079908e-06
  1.019089e-01    5.065279e-06
  1.022078e-01    5.056466e-06
  1.025067e-01    5.041548e-06
  1.028057e-01    5.032760e-06
  1.031046e-01    5.021540e-06
  1.034035e-01    4.998449e-06
  1.037024e-01    5.002781e-06
  1.040014e-01    4.992056e-06
  1.043003e-01    4.969058e-06
  1.045992e-01    4.971056e-06
  1.048982e-01    4.971071e-06
  1.051971e-01    4.943235e-06
  1.054960e-01    4.911423e-06
  1.057950e-01    4.922379e-06
  1.060939e-01    4.939830e-06
  1.063928e-01    4.920469e-06
  1.066917e-01    4.889515e-06
  1.069907e-01    4.894328e-06
  1.072896e-01    4.898367e-06
  1.075885e-01    4.879884e-06
  1.078875e-01    4.869480e-06
  1.081864e-01    4.865262e-06
  1.084853e-01    4.837072e-06
  1.087843e-01    4.843065e-06
  1.090832e-01    4.850646e-06
  1.093821e-01    4.823802e-06
  1.096810e-01    4.797018e-06
  1.099800e-01    4.786540e-06
  1.102789e-01    4.763501e-06
  1.105778e-01    4.739073e-06
  1.108768e-01    4.715271e-06
  1.111757e-01    4.695641e-06
  1.114746e-01    4.691243e-06
  1.117736e-01    4.691290e-06
  1.120725e-01    4.687623e-06
  1.123714e-01    4.692785e-06
  1.126704e-01    4.686800e-06
  1.129693e-01    4.643248e-06
  1.132682e-01    4.592395e-06
  1.135671e-01    4.600351e-06
  1.138661e-01    4.619342e-06
  1.141650e-01    4.589583e-06
  1.144639e-01    4.594611e-06
  1.147629e-01    4.597571e-06
  1.150618e-01    4.601581e-06
  1.153607e-01    4.583208e-06
  1.156597e-01    4.587742e-06
  1.159586e-01    4.606171e-06
  1.162575e-01    4.559085e-06
  1.165564e-01    4.522841e-06
  1.168554e-01    4.519462e-06
  1.171543e-01    4.519101e-06
  1.174532e-01    4.542652e-06
  1.177522e-01    4.573581e-06
  1.180511e-01    4.551112e-06
  1.183500e-01    4.555564e-06
  1.186490e-01    4.557166e-06
  1.189479e-01    4.529016e-06
  1.192468e-01    4.544858e-06
  1.195458e-01    4.520343e-06
  1.198447e-01    4.510138e-06
  1.201436e-01    4.551102e-06
  1.204425e-01    4.578217e-06
  1.207415e-01    4.449941e-06
  1.210404e-01    4.112773e-06
  1.213393e-01    0.000000e+00
  1.216383e-01    0.000000e+00
  1.219372e-01    0.000000e+00
  1.222361e-01    0.000000e+00
  1.225351e-01    0.000000e+00
  1.228340e-01    0.000000e+00
  1.231329e-01    0.000000e+00
  1.234318e-01    0.000000e+00
  1.237308e-01    0.000000e+00
  1.240297e-01    0.000000e+00
  1.243286e-01    0.000000e+00
  1.246276e-01    0.000000e+00
  1.249265e-01    0.000000e+00
  1.252254e-01    0.000000e+00
  1.255244e-01    0.000000e+00
  1.258233e-01    0.000000e+00
  1.261222e-01    0.000000e+00
  1.264212e-01    0.000000e+00
  1.267201e-01    0.000000e+00
  1.270190e-01    0.000000e+00
  1.273179e-01    0.000000e+00
  1.276169e-01    0.000000e+00
  1.279158e-01    0.000000e+00
  1.282147e-01    0.000000e+00
  1.285137e-01    0.000000e+00
  1.288126e-01    0.000000e+00
  1.291115e-01    0.000000e+00
  1.294105e-01    0.000000e+00
  1.297094e-01    0.000000e+00
  1.300083e-01    0.000000e+00
  1.303072e-01    0.000000e+00
  1.306062e-01    0.000000e+00
  1.309051e-01    0.000000e+00
  1.312040e-01    0.000000e+00
  1.315030e-01    0.000000e+00
  1.318019e-01    0.000000e+00
  1.321008e-01    0.000000e+00
  1.323998e-01    0.000000e+00
  1.326987e-01    0.000000e+00
  1.329976e-01    0.000000e+00
  1.332965e-01    0.000000e+00
  1.335955e-01    0.000000e+00
  1.338944e-01    0.000000e+00
  1.341933e-01    0.000000e+00
  1.344923e-01    0.000000e+00
  1.347912e-01    0.000000e+00
  1.350901e-01    0.000000e+00
  1.353891e-01    0.000000e+00
  1.356880e-01    0.000000e+00
  1.359869e-01    0.000000e+00
  1.362859e-01    0.000000e+00
  1.365848e-01    0.000000e+00
  1.368837e-01    0.000000e+00
  1.371826e-01    0.000000e+00
  1.374816e-01    0.000000e+00
  1.377805e-01    0.000000e+00
  1.380794e-01    0.000000e+00
  1.383784e-01    0.000000e+00
  1.386773e-01    0.000000e+00
  1.389762e-01    0.000000e+00
  1.392752e-01    0.000000e+00
  1.395741e-01    0.000000e+00
  1.398730e-01    0.000000e+00
  1.401719e-01    0.000000e+00
  1.404709e-01    0.000000e+00
  1.407698e-01    0.000000e+00
  1.410687e-01    0.000000e+00
  1.413677e-01    0.000000e+00
  1.416666e-01    0.000000e+00
  1.419655e-01    0.000000e+00
  1.422645e-01    0.000000e+00
  1.425634e-01    0.000000e+00
  1.428623e-01    0.000000e+00
  1.431613e-01    0.000000e+00
  1.434602e-01    0.000000e+00
  1.437591e-01    0.000000e+00
  1.440580e-01    0.000000e+00
  1.443570e-01    0.000000e+00
  1.446559e-01    0.000000e+00
  1.449548e-01    0.000000e+00
  1.452538e-01    0.000000e+00
  1.455527e-01    0.000000e+00
  1.458516e-01    0.000000e+00
  1.461506e-01    0.000000e+00
  1.464495e-01    0.000000e+00
  1.467484e-01    0.000000e+00
  1.470473e-01    0.000000e+00
  1.473463e-01    0.000000e+00
  1.476452e-01    0.000000e+00
  1.479441e-01    0.000000e+00
  1.482431e-01    0.000000e+00
  1.485420e-01    0.000000e+00
  1.488409e-01    0.000000e+00
  1.491399e-01    0.000000e+00
  1.494388e-01    0.000000e+00
  1.497377e-01    0.000000e+00
  1.500367e-01    0.000000e+00
  1.503356e-01    0.000000e+00
  1.506345e-01    0.000000e+00
  1.509334e-01    0.000000e+00
  1.512324e-01    0.000000e+00
  1.515313e-01    0.000000e+00
  1.518302e-01    0.000000e+00
  1.521292e-01    0.000000e+00
  1.524281e-01    0.000000e+00
  1.527270e-01    0.000000e+00
  1.530260e-01    0.000000e+00
  1.533249e-01    0.000000e+00
  1.536238e-01    0.000000e+00
