# == pyFAI calibration ==
# Distance Sample to Detector: 2.266 m
# PONI: 5.659e-02, 4.293e-02 m
# Rotations: 0.000000 0.000000 0.000000 rad
# 
# == Fit2d calibration ==
# Distance Sample-beamCenter: 2266.000 mm
# Center: x=249.594, y=329.012 pix
# Tilt: 0.000 deg  TiltPlanRot: 0.000 deg
# 
# Detector Pilatus 300k	 PixelSize= 1.720e-04, 1.720e-04 m
#    Detector has a mask: True 
#    Detector has a dark current: False 
#    detector has a flat field: False 
# 
# Wavelength: 1.27818e-10 m
# Mask applied: user provided
# Dark current applied: False
# Flat field applied: False
# Polarization factor: None
# Normalization factor: 21940812.2
# --> MT-F127_96.849_NaCl_48.424_limonene_96.849mgml_2_r1d.csv
#        q_A^-1             I 
  4.457554e-03    1.844284e-03
  4.756484e-03    1.459468e-03
  5.055415e-03    1.051143e-03
  5.354345e-03    7.507390e-04
  5.653276e-03    5.846340e-04
  5.952206e-03    9.424121e-04
  6.251136e-03    8.585072e-04
  6.550067e-03    7.419462e-04
  6.848997e-03    6.285910e-04
  7.147927e-03    5.314845e-04
  7.446858e-03    4.536031e-04
  7.745788e-03    3.886833e-04
  8.044719e-03    3.353808e-04
  8.343649e-03    2.931064e-04
  8.642579e-03    2.566167e-04
  8.941510e-03    2.259439e-04
  9.240440e-03    2.002039e-04
  9.539371e-03    1.775955e-04
  9.838301e-03    1.578145e-04
  1.013723e-02    1.414125e-04
  1.043616e-02    1.271971e-04
  1.073509e-02    1.139825e-04
  1.103402e-02    1.030938e-04
  1.133295e-02    9.360298e-05
  1.163188e-02    8.508490e-05
  1.193081e-02    7.772206e-05
  1.222974e-02    7.118045e-05
  1.252867e-02    6.535259e-05
  1.282760e-02    6.018758e-05
  1.312654e-02    5.547302e-05
  1.342547e-02    5.119562e-05
  1.372440e-02    4.754036e-05
  1.402333e-02    4.426568e-05
  1.432226e-02    4.106651e-05
  1.462119e-02    3.821241e-05
  1.492012e-02    3.576832e-05
  1.521905e-02    3.335236e-05
  1.551798e-02    3.135863e-05
  1.581691e-02    2.952095e-05
  1.611584e-02    2.768118e-05
  1.641477e-02    2.609423e-05
  1.671370e-02    2.461390e-05
  1.701263e-02    2.332297e-05
  1.731156e-02    2.218326e-05
  1.761049e-02    2.098458e-05
  1.790942e-02    2.001472e-05
  1.820835e-02    1.902320e-05
  1.850728e-02    1.810684e-05
  1.880621e-02    1.734436e-05
  1.910514e-02    1.661141e-05
  1.940407e-02    1.587536e-05
  1.970300e-02    1.520295e-05
  2.000193e-02    1.463424e-05
  2.030086e-02    1.407161e-05
  2.059979e-02    1.359493e-05
  2.089873e-02    1.312555e-05
  2.119766e-02    1.269561e-05
  2.149659e-02    1.223104e-05
  2.179552e-02    1.180085e-05
  2.209445e-02    1.140606e-05
  2.239338e-02    1.107756e-05
  2.269231e-02    1.078225e-05
  2.299124e-02    1.049593e-05
  2.329017e-02    1.020028e-05
  2.358910e-02    9.937709e-06
  2.388803e-02    9.697971e-06
  2.418696e-02    9.443700e-06
  2.448589e-02    9.231913e-06
  2.478482e-02    9.061336e-06
  2.508375e-02    8.873235e-06
  2.538268e-02    8.674402e-06
  2.568161e-02    8.470088e-06
  2.598054e-02    8.315536e-06
  2.627947e-02    8.174818e-06
  2.657840e-02    8.059332e-06
  2.687733e-02    7.931134e-06
  2.717626e-02    7.838820e-06
  2.747519e-02    7.701914e-06
  2.777412e-02    7.583450e-06
  2.807305e-02    7.476345e-06
  2.837198e-02    7.385601e-06
  2.867092e-02    7.279147e-06
  2.896985e-02    7.193024e-06
  2.926878e-02    7.083740e-06
  2.956771e-02    7.004575e-06
  2.986664e-02    6.918971e-06
  3.016557e-02    6.833148e-06
  3.046450e-02    6.784523e-06
  3.076343e-02    6.686296e-06
  3.106236e-02    6.619524e-06
  3.136129e-02    6.549289e-06
  3.166022e-02    6.455621e-06
  3.195915e-02    6.410828e-06
  3.225808e-02    6.350762e-06
  3.255701e-02    6.291341e-06
  3.285594e-02    6.237557e-06
  3.315487e-02    6.147612e-06
  3.345380e-02    6.073361e-06
  3.375273e-02    6.040919e-06
  3.405166e-02    6.022663e-06
  3.435059e-02    5.963187e-06
  3.464952e-02    5.885469e-06
  3.494845e-02    5.846077e-06
  3.524738e-02    5.805362e-06
  3.554631e-02    5.774276e-06
  3.584524e-02    5.698249e-06
  3.614417e-02    5.661296e-06
  3.644310e-02    5.630069e-06
  3.674204e-02    5.613162e-06
  3.704097e-02    5.571388e-06
  3.733990e-02    5.502547e-06
  3.763883e-02    5.476443e-06
  3.793776e-02    5.438452e-06
  3.823669e-02    5.397660e-06
  3.853562e-02    5.361276e-06
  3.883455e-02    5.358149e-06
  3.913348e-02    5.298081e-06
  3.943241e-02    5.262517e-06
  3.973134e-02    5.251717e-06
  4.003027e-02    5.210502e-06
  4.032920e-02    5.162279e-06
  4.062813e-02    5.173516e-06
  4.092706e-02    5.144923e-06
  4.122599e-02    5.143852e-06
  4.152492e-02    5.108569e-06
  4.182385e-02    5.075480e-06
  4.212278e-02    5.071776e-06
  4.242171e-02    5.048846e-06
  4.272064e-02    5.042690e-06
  4.301957e-02    5.017710e-06
  4.331850e-02    5.000193e-06
  4.361743e-02    4.995137e-06
  4.391636e-02    4.982306e-06
  4.421529e-02    4.984104e-06
  4.451423e-02    4.983063e-06
  4.481316e-02    4.950405e-06
  4.511209e-02    4.961796e-06
  4.541102e-02    4.962858e-06
  4.570995e-02    4.942336e-06
  4.600888e-02    4.943734e-06
  4.630781e-02    4.959486e-06
  4.660674e-02    4.930237e-06
  4.690567e-02    4.918798e-06
  4.720460e-02    4.925106e-06
  4.750353e-02    4.921621e-06
  4.780246e-02    4.918053e-06
  4.810139e-02    4.904377e-06
  4.840032e-02    4.902889e-06
  4.869925e-02    4.891388e-06
  4.899818e-02    4.899047e-06
  4.929711e-02    4.905140e-06
  4.959604e-02    4.919375e-06
  4.989497e-02    4.903699e-06
  5.019390e-02    4.894255e-06
  5.049283e-02    4.900006e-06
  5.079176e-02    4.899559e-06
  5.109069e-02    4.896867e-06
  5.138962e-02    4.949347e-06
  5.168855e-02    5.004827e-06
  5.198748e-02    5.056365e-06
  5.228642e-02    5.033624e-06
  5.258535e-02    4.949407e-06
  5.288428e-02    4.910729e-06
  5.318321e-02    4.914425e-06
  5.348214e-02    4.890516e-06
  5.378107e-02    4.897829e-06
  5.408000e-02    4.904280e-06
  5.437893e-02    4.900061e-06
  5.467786e-02    4.890156e-06
  5.497679e-02    4.892300e-06
  5.527572e-02    4.891115e-06
  5.557465e-02    4.902396e-06
  5.587358e-02    4.899526e-06
  5.617251e-02    4.912967e-06
  5.647144e-02    4.918669e-06
  5.677037e-02    4.938448e-06
  5.706930e-02    4.931922e-06
  5.736823e-02    4.925613e-06
  5.766716e-02    4.934722e-06
  5.796609e-02    4.931900e-06
  5.826502e-02    4.956468e-06
  5.856395e-02    4.967936e-06
  5.886288e-02    4.978342e-06
  5.916181e-02    5.006047e-06
  5.946074e-02    4.990884e-06
  5.975967e-02    4.978142e-06
  6.005861e-02    5.003864e-06
  6.035754e-02    5.041195e-06
  6.065647e-02    5.035867e-06
  6.095540e-02    5.047215e-06
  6.125433e-02    5.108398e-06
  6.155326e-02    5.147172e-06
  6.185219e-02    5.120829e-06
  6.215112e-02    5.080872e-06
  6.245005e-02    5.064110e-06
  6.274898e-02    5.059132e-06
  6.304791e-02    5.058270e-06
  6.334684e-02    5.084177e-06
  6.364577e-02    5.071996e-06
  6.394470e-02    5.090153e-06
  6.424363e-02    5.118452e-06
  6.454256e-02    5.130781e-06
  6.484149e-02    5.110052e-06
  6.514042e-02    5.124632e-06
  6.543935e-02    5.138034e-06
  6.573828e-02    5.146783e-06
  6.603721e-02    5.168310e-06
  6.633614e-02    5.158111e-06
  6.663507e-02    5.169777e-06
  6.693400e-02    5.196217e-06
  6.723293e-02    5.194234e-06
  6.753186e-02    5.202308e-06
  6.783080e-02    5.232220e-06
  6.812973e-02    5.232660e-06
  6.842866e-02    5.246897e-06
  6.872759e-02    5.247663e-06
  6.902652e-02    5.264565e-06
  6.932545e-02    5.280418e-06
  6.962438e-02    5.271552e-06
  6.992331e-02    5.267419e-06
  7.022224e-02    5.261741e-06
  7.052117e-02    5.273179e-06
  7.082010e-02    5.267315e-06
  7.111903e-02    5.268048e-06
  7.141796e-02    5.295481e-06
  7.171689e-02    5.322497e-06
  7.201582e-02    5.330012e-06
  7.231475e-02    5.332190e-06
  7.261368e-02    5.335928e-06
  7.291261e-02    5.330325e-06
  7.321154e-02    5.341595e-06
  7.351047e-02    5.328898e-06
  7.380940e-02    5.324931e-06
  7.410833e-02    5.343800e-06
  7.440726e-02    5.324988e-06
  7.470619e-02    5.329886e-06
  7.500512e-02    5.369362e-06
  7.530405e-02    5.355430e-06
  7.560299e-02    5.342219e-06
  7.590192e-02    5.362930e-06
  7.620085e-02    5.382336e-06
  7.649978e-02    5.372868e-06
  7.679871e-02    5.350783e-06
  7.709764e-02    5.359166e-06
  7.739657e-02    5.368565e-06
  7.769550e-02    5.361037e-06
  7.799443e-02    5.341648e-06
  7.829336e-02    5.340297e-06
  7.859229e-02    5.344102e-06
  7.889122e-02    5.360276e-06
  7.919015e-02    5.356473e-06
  7.948908e-02    5.359593e-06
  7.978801e-02    5.360109e-06
  8.008694e-02    5.353741e-06
  8.038587e-02    5.355554e-06
  8.068480e-02    5.345818e-06
  8.098373e-02    5.340487e-06
  8.128266e-02    5.322041e-06
  8.158159e-02    5.315214e-06
  8.188052e-02    5.332742e-06
  8.217945e-02    5.330099e-06
  8.247838e-02    5.331921e-06
  8.277731e-02    5.304668e-06
  8.307624e-02    5.298817e-06
  8.337518e-02    5.311865e-06
  8.367411e-02    5.284369e-06
  8.397304e-02    5.293889e-06
  8.427197e-02    5.309128e-06
  8.457090e-02    5.274541e-06
  8.486983e-02    5.253398e-06
  8.516876e-02    5.268977e-06
  8.546769e-02    5.266926e-06
  8.576662e-02    5.246493e-06
  8.606555e-02    5.247184e-06
  8.636448e-02    5.239095e-06
  8.666341e-02    5.228639e-06
  8.696234e-02    5.223202e-06
  8.726127e-02    5.206532e-06
  8.756020e-02    5.187530e-06
  8.785913e-02    5.184587e-06
  8.815806e-02    5.182958e-06
  8.845699e-02    5.167642e-06
  8.875592e-02    5.158517e-06
  8.905485e-02    5.147448e-06
  8.935378e-02    5.132805e-06
  8.965271e-02    5.139866e-06
  8.995164e-02    5.137080e-06
  9.025057e-02    5.114461e-06
  9.054950e-02    5.104358e-06
  9.084843e-02    5.097836e-06
  9.114737e-02    5.092142e-06
  9.144630e-02    5.078436e-06
  9.174523e-02    5.066703e-06
  9.204416e-02    5.060131e-06
  9.234309e-02    5.037171e-06
  9.264202e-02    5.021125e-06
  9.294095e-02    5.019120e-06
  9.323988e-02    5.015912e-06
  9.353881e-02    5.023103e-06
  9.383774e-02    5.021051e-06
  9.413667e-02    5.025330e-06
  9.443560e-02    5.015900e-06
  9.473453e-02    5.007500e-06
  9.503346e-02    4.974339e-06
  9.533239e-02    4.931637e-06
  9.563132e-02    4.943148e-06
  9.593025e-02    4.959458e-06
  9.622918e-02    4.967893e-06
  9.652811e-02    4.967321e-06
  9.682704e-02    4.976182e-06
  9.712597e-02    4.955464e-06
  9.742490e-02    4.941415e-06
  9.772383e-02    4.940916e-06
  9.802276e-02    4.900913e-06
  9.832169e-02    4.890369e-06
  9.862062e-02    4.877876e-06
  9.891956e-02    4.861591e-06
  9.921849e-02    4.848847e-06
  9.951742e-02    4.837465e-06
  9.981635e-02    4.812210e-06
  1.001153e-01    4.808911e-06
  1.004142e-01    4.800979e-06
  1.007131e-01    4.780513e-06
  1.010121e-01    4.762649e-06
  1.013110e-01    4.773382e-06
  1.016099e-01    4.777072e-06
  1.019089e-01    4.765171e-06
  1.022078e-01    4.747072e-06
  1.025067e-01    4.753228e-06
  1.028057e-01    4.756428e-06
  1.031046e-01    4.724867e-06
  1.034035e-01    4.708237e-06
  1.037024e-01    4.699092e-06
  1.040014e-01    4.686465e-06
  1.043003e-01    4.682508e-06
  1.045992e-01    4.690959e-06
  1.048982e-01    4.681459e-06
  1.051971e-01    4.654558e-06
  1.054960e-01    4.637151e-06
  1.057950e-01    4.626315e-06
  1.060939e-01    4.633511e-06
  1.063928e-01    4.631920e-06
  1.066917e-01    4.612625e-06
  1.069907e-01    4.598587e-06
  1.072896e-01    4.592738e-06
  1.075885e-01    4.576926e-06
  1.078875e-01    4.564689e-06
  1.081864e-01    4.557041e-06
  1.084853e-01    4.576016e-06
  1.087843e-01    4.588926e-06
  1.090832e-01    4.566309e-06
  1.093821e-01    4.527208e-06
  1.096810e-01    4.522997e-06
  1.099800e-01    4.498068e-06
  1.102789e-01    4.470204e-06
  1.105778e-01    4.453334e-06
  1.108768e-01    4.440925e-06
  1.111757e-01    4.437236e-06
  1.114746e-01    4.427762e-06
  1.117736e-01    4.418764e-06
  1.120725e-01    4.388637e-06
  1.123714e-01    4.384634e-06
  1.126704e-01    4.396567e-06
  1.129693e-01    4.384014e-06
  1.132682e-01    4.380598e-06
  1.135671e-01    4.343442e-06
  1.138661e-01    4.316604e-06
  1.141650e-01    4.314405e-06
  1.144639e-01    4.325992e-06
  1.147629e-01    4.318581e-06
  1.150618e-01    4.304383e-06
  1.153607e-01    4.315131e-06
  1.156597e-01    4.318679e-06
  1.159586e-01    4.305050e-06
  1.162575e-01    4.273673e-06
  1.165564e-01    4.296369e-06
  1.168554e-01    4.318134e-06
  1.171543e-01    4.266232e-06
  1.174532e-01    4.281515e-06
  1.177522e-01    4.276330e-06
  1.180511e-01    4.267702e-06
  1.183500e-01    4.274654e-06
  1.186490e-01    4.235133e-06
  1.189479e-01    4.233243e-06
  1.192468e-01    4.212080e-06
  1.195458e-01    4.162749e-06
  1.198447e-01    4.164823e-06
  1.201436e-01    4.210477e-06
  1.204425e-01    4.224206e-06
  1.207415e-01    4.147065e-06
  1.210404e-01    3.923187e-06
  1.213393e-01    0.000000e+00
  1.216383e-01    0.000000e+00
  1.219372e-01    0.000000e+00
  1.222361e-01    0.000000e+00
  1.225351e-01    0.000000e+00
  1.228340e-01    0.000000e+00
  1.231329e-01    0.000000e+00
  1.234318e-01    0.000000e+00
  1.237308e-01    0.000000e+00
  1.240297e-01    0.000000e+00
  1.243286e-01    0.000000e+00
  1.246276e-01    0.000000e+00
  1.249265e-01    0.000000e+00
  1.252254e-01    0.000000e+00
  1.255244e-01    0.000000e+00
  1.258233e-01    0.000000e+00
  1.261222e-01    0.000000e+00
  1.264212e-01    0.000000e+00
  1.267201e-01    0.000000e+00
  1.270190e-01    0.000000e+00
  1.273179e-01    0.000000e+00
  1.276169e-01    0.000000e+00
  1.279158e-01    0.000000e+00
  1.282147e-01    0.000000e+00
  1.285137e-01    0.000000e+00
  1.288126e-01    0.000000e+00
  1.291115e-01    0.000000e+00
  1.294105e-01    0.000000e+00
  1.297094e-01    0.000000e+00
  1.300083e-01    0.000000e+00
  1.303072e-01    0.000000e+00
  1.306062e-01    0.000000e+00
  1.309051e-01    0.000000e+00
  1.312040e-01    0.000000e+00
  1.315030e-01    0.000000e+00
  1.318019e-01    0.000000e+00
  1.321008e-01    0.000000e+00
  1.323998e-01    0.000000e+00
  1.326987e-01    0.000000e+00
  1.329976e-01    0.000000e+00
  1.332965e-01    0.000000e+00
  1.335955e-01    0.000000e+00
  1.338944e-01    0.000000e+00
  1.341933e-01    0.000000e+00
  1.344923e-01    0.000000e+00
  1.347912e-01    0.000000e+00
  1.350901e-01    0.000000e+00
  1.353891e-01    0.000000e+00
  1.356880e-01    0.000000e+00
  1.359869e-01    0.000000e+00
  1.362859e-01    0.000000e+00
  1.365848e-01    0.000000e+00
  1.368837e-01    0.000000e+00
  1.371826e-01    0.000000e+00
  1.374816e-01    0.000000e+00
  1.377805e-01    0.000000e+00
  1.380794e-01    0.000000e+00
  1.383784e-01    0.000000e+00
  1.386773e-01    0.000000e+00
  1.389762e-01    0.000000e+00
  1.392752e-01    0.000000e+00
  1.395741e-01    0.000000e+00
  1.398730e-01    0.000000e+00
  1.401719e-01    0.000000e+00
  1.404709e-01    0.000000e+00
  1.407698e-01    0.000000e+00
  1.410687e-01    0.000000e+00
  1.413677e-01    0.000000e+00
  1.416666e-01    0.000000e+00
  1.419655e-01    0.000000e+00
  1.422645e-01    0.000000e+00
  1.425634e-01    0.000000e+00
  1.428623e-01    0.000000e+00
  1.431613e-01    0.000000e+00
  1.434602e-01    0.000000e+00
  1.437591e-01    0.000000e+00
  1.440580e-01    0.000000e+00
  1.443570e-01    0.000000e+00
  1.446559e-01    0.000000e+00
  1.449548e-01    0.000000e+00
  1.452538e-01    0.000000e+00
  1.455527e-01    0.000000e+00
  1.458516e-01    0.000000e+00
  1.461506e-01    0.000000e+00
  1.464495e-01    0.000000e+00
  1.467484e-01    0.000000e+00
  1.470473e-01    0.000000e+00
  1.473463e-01    0.000000e+00
  1.476452e-01    0.000000e+00
  1.479441e-01    0.000000e+00
  1.482431e-01    0.000000e+00
  1.485420e-01    0.000000e+00
  1.488409e-01    0.000000e+00
  1.491399e-01    0.000000e+00
  1.494388e-01    0.000000e+00
  1.497377e-01    0.000000e+00
  1.500367e-01    0.000000e+00
  1.503356e-01    0.000000e+00
  1.506345e-01    0.000000e+00
  1.509334e-01    0.000000e+00
  1.512324e-01    0.000000e+00
  1.515313e-01    0.000000e+00
  1.518302e-01    0.000000e+00
  1.521292e-01    0.000000e+00
  1.524281e-01    0.000000e+00
  1.527270e-01    0.000000e+00
  1.530260e-01    0.000000e+00
  1.533249e-01    0.000000e+00
  1.536238e-01    0.000000e+00
