# == pyFAI calibration ==
# Distance Sample to Detector: 2.266 m
# PONI: 5.659e-02, 4.293e-02 m
# Rotations: 0.000000 0.000000 0.000000 rad
# 
# == Fit2d calibration ==
# Distance Sample-beamCenter: 2266.000 mm
# Center: x=249.594, y=329.012 pix
# Tilt: 0.000 deg  TiltPlanRot: 0.000 deg
# 
# Detector Pilatus 300k	 PixelSize= 1.720e-04, 1.720e-04 m
#    Detector has a mask: True 
#    Detector has a dark current: False 
#    detector has a flat field: False 
# 
# Wavelength: 1.27818e-10 m
# Mask applied: user provided
# Dark current applied: False
# Flat field applied: False
# Polarization factor: None
# Normalization factor: 6904189.200000002
# --> MT-F127_80.845_NaCl_0.000_limonene_0.000mgml_2_r1d.csv
#        q_A^-1             I 
  4.457554e-03    2.204082e-03
  4.756484e-03    1.744328e-03
  5.055415e-03    1.248082e-03
  5.354345e-03    8.797189e-04
  5.653276e-03    6.685475e-04
  5.952206e-03    1.034081e-03
  6.251136e-03    9.490729e-04
  6.550067e-03    8.268193e-04
  6.848997e-03    7.065810e-04
  7.147927e-03    5.974355e-04
  7.446858e-03    5.104099e-04
  7.745788e-03    4.385095e-04
  8.044719e-03    3.778573e-04
  8.343649e-03    3.296040e-04
  8.642579e-03    2.887775e-04
  8.941510e-03    2.547863e-04
  9.240440e-03    2.256214e-04
  9.539371e-03    2.001184e-04
  9.838301e-03    1.775730e-04
  1.013723e-02    1.588164e-04
  1.043616e-02    1.434222e-04
  1.073509e-02    1.283341e-04
  1.103402e-02    1.158668e-04
  1.133295e-02    1.053248e-04
  1.163188e-02    9.565733e-05
  1.193081e-02    8.744055e-05
  1.222974e-02    7.975836e-05
  1.252867e-02    7.304485e-05
  1.282760e-02    6.710683e-05
  1.312654e-02    6.183442e-05
  1.342547e-02    5.698938e-05
  1.372440e-02    5.286860e-05
  1.402333e-02    4.890890e-05
  1.432226e-02    4.546278e-05
  1.462119e-02    4.222721e-05
  1.492012e-02    3.930393e-05
  1.521905e-02    3.681965e-05
  1.551798e-02    3.460265e-05
  1.581691e-02    3.236647e-05
  1.611584e-02    3.045386e-05
  1.641477e-02    2.860939e-05
  1.671370e-02    2.692176e-05
  1.701263e-02    2.551692e-05
  1.731156e-02    2.418159e-05
  1.761049e-02    2.294054e-05
  1.790942e-02    2.190647e-05
  1.820835e-02    2.069245e-05
  1.850728e-02    1.972225e-05
  1.880621e-02    1.889250e-05
  1.910514e-02    1.816738e-05
  1.940407e-02    1.738752e-05
  1.970300e-02    1.661587e-05
  2.000193e-02    1.602985e-05
  2.030086e-02    1.529310e-05
  2.059979e-02    1.474179e-05
  2.089873e-02    1.429301e-05
  2.119766e-02    1.381955e-05
  2.149659e-02    1.332552e-05
  2.179552e-02    1.285273e-05
  2.209445e-02    1.234859e-05
  2.239338e-02    1.201519e-05
  2.269231e-02    1.175830e-05
  2.299124e-02    1.131899e-05
  2.329017e-02    1.092376e-05
  2.358910e-02    1.068258e-05
  2.388803e-02    1.046502e-05
  2.418696e-02    1.023016e-05
  2.448589e-02    1.000417e-05
  2.478482e-02    9.700949e-06
  2.508375e-02    9.574660e-06
  2.538268e-02    9.342898e-06
  2.568161e-02    9.154070e-06
  2.598054e-02    9.067804e-06
  2.627947e-02    8.883267e-06
  2.657840e-02    8.697360e-06
  2.687733e-02    8.600029e-06
  2.717626e-02    8.548232e-06
  2.747519e-02    8.358968e-06
  2.777412e-02    8.231337e-06
  2.807305e-02    8.124651e-06
  2.837198e-02    7.942574e-06
  2.867092e-02    7.899026e-06
  2.896985e-02    7.826301e-06
  2.926878e-02    7.688146e-06
  2.956771e-02    7.567429e-06
  2.986664e-02    7.480832e-06
  3.016557e-02    7.448351e-06
  3.046450e-02    7.379490e-06
  3.076343e-02    7.228240e-06
  3.106236e-02    7.102064e-06
  3.136129e-02    7.067621e-06
  3.166022e-02    6.984401e-06
  3.195915e-02    6.946262e-06
  3.225808e-02    6.882144e-06
  3.255701e-02    6.808511e-06
  3.285594e-02    6.753048e-06
  3.315487e-02    6.672093e-06
  3.345380e-02    6.590850e-06
  3.375273e-02    6.510589e-06
  3.405166e-02    6.448294e-06
  3.435059e-02    6.374684e-06
  3.464952e-02    6.378199e-06
  3.494845e-02    6.260852e-06
  3.524738e-02    6.215565e-06
  3.554631e-02    6.206074e-06
  3.584524e-02    6.143026e-06
  3.614417e-02    6.035337e-06
  3.644310e-02    6.015263e-06
  3.674204e-02    5.966166e-06
  3.704097e-02    5.843982e-06
  3.733990e-02    5.818677e-06
  3.763883e-02    5.797124e-06
  3.793776e-02    5.717406e-06
  3.823669e-02    5.698549e-06
  3.853562e-02    5.663179e-06
  3.883455e-02    5.612527e-06
  3.913348e-02    5.577852e-06
  3.943241e-02    5.507059e-06
  3.973134e-02    5.496792e-06
  4.003027e-02    5.547280e-06
  4.032920e-02    5.495396e-06
  4.062813e-02    5.408830e-06
  4.092706e-02    5.379760e-06
  4.122599e-02    5.363663e-06
  4.152492e-02    5.311875e-06
  4.182385e-02    5.331671e-06
  4.212278e-02    5.286484e-06
  4.242171e-02    5.240160e-06
  4.272064e-02    5.212719e-06
  4.301957e-02    5.204459e-06
  4.331850e-02    5.188072e-06
  4.361743e-02    5.176274e-06
  4.391636e-02    5.178614e-06
  4.421529e-02    5.190992e-06
  4.451423e-02    5.130880e-06
  4.481316e-02    5.072608e-06
  4.511209e-02    5.059945e-06
  4.541102e-02    5.107200e-06
  4.570995e-02    5.111519e-06
  4.600888e-02    5.089957e-06
  4.630781e-02    5.043677e-06
  4.660674e-02    5.051770e-06
  4.690567e-02    5.054618e-06
  4.720460e-02    5.074622e-06
  4.750353e-02    5.053178e-06
  4.780246e-02    5.013534e-06
  4.810139e-02    5.018511e-06
  4.840032e-02    5.011437e-06
  4.869925e-02    5.045870e-06
  4.899818e-02    5.047288e-06
  4.929711e-02    5.040824e-06
  4.959604e-02    5.034118e-06
  4.989497e-02    5.043857e-06
  5.019390e-02    5.034317e-06
  5.049283e-02    5.030860e-06
  5.079176e-02    5.038451e-06
  5.109069e-02    5.068571e-06
  5.138962e-02    5.138630e-06
  5.168855e-02    5.210090e-06
  5.198748e-02    5.287382e-06
  5.228642e-02    5.206712e-06
  5.258535e-02    5.013728e-06
  5.288428e-02    4.995510e-06
  5.318321e-02    5.044658e-06
  5.348214e-02    5.010799e-06
  5.378107e-02    5.007669e-06
  5.408000e-02    4.976353e-06
  5.437893e-02    4.950120e-06
  5.467786e-02    4.953598e-06
  5.497679e-02    4.970491e-06
  5.527572e-02    5.011816e-06
  5.557465e-02    5.014104e-06
  5.587358e-02    4.980481e-06
  5.617251e-02    4.965530e-06
  5.647144e-02    4.972414e-06
  5.677037e-02    5.001668e-06
  5.706930e-02    5.015234e-06
  5.736823e-02    5.015548e-06
  5.766716e-02    5.005223e-06
  5.796609e-02    4.995136e-06
  5.826502e-02    5.004057e-06
  5.856395e-02    5.015424e-06
  5.886288e-02    5.048072e-06
  5.916181e-02    5.079252e-06
  5.946074e-02    5.038508e-06
  5.975967e-02    5.031594e-06
  6.005861e-02    5.054049e-06
  6.035754e-02    5.058129e-06
  6.065647e-02    5.080330e-06
  6.095540e-02    5.140806e-06
  6.125433e-02    5.235547e-06
  6.155326e-02    5.248088e-06
  6.185219e-02    5.142781e-06
  6.215112e-02    5.128851e-06
  6.245005e-02    5.117109e-06
  6.274898e-02    5.094505e-06
  6.304791e-02    5.099185e-06
  6.334684e-02    5.136202e-06
  6.364577e-02    5.181256e-06
  6.394470e-02    5.194093e-06
  6.424363e-02    5.159084e-06
  6.454256e-02    5.167364e-06
  6.484149e-02    5.177309e-06
  6.514042e-02    5.160124e-06
  6.543935e-02    5.179179e-06
  6.573828e-02    5.194525e-06
  6.603721e-02    5.204745e-06
  6.633614e-02    5.219731e-06
  6.663507e-02    5.221011e-06
  6.693400e-02    5.250956e-06
  6.723293e-02    5.230580e-06
  6.753186e-02    5.222338e-06
  6.783080e-02    5.254864e-06
  6.812973e-02    5.265228e-06
  6.842866e-02    5.276869e-06
  6.872759e-02    5.253682e-06
  6.902652e-02    5.249908e-06
  6.932545e-02    5.299528e-06
  6.962438e-02    5.313052e-06
  6.992331e-02    5.335066e-06
  7.022224e-02    5.331268e-06
  7.052117e-02    5.308782e-06
  7.082010e-02    5.307495e-06
  7.111903e-02    5.333580e-06
  7.141796e-02    5.358381e-06
  7.171689e-02    5.357999e-06
  7.201582e-02    5.375727e-06
  7.231475e-02    5.378133e-06
  7.261368e-02    5.397560e-06
  7.291261e-02    5.388727e-06
  7.321154e-02    5.370455e-06
  7.351047e-02    5.406782e-06
  7.380940e-02    5.391264e-06
  7.410833e-02    5.367554e-06
  7.440726e-02    5.363044e-06
  7.470619e-02    5.355451e-06
  7.500512e-02    5.362087e-06
  7.530405e-02    5.384462e-06
  7.560299e-02    5.399700e-06
  7.590192e-02    5.391914e-06
  7.620085e-02    5.417891e-06
  7.649978e-02    5.427056e-06
  7.679871e-02    5.430497e-06
  7.709764e-02    5.402134e-06
  7.739657e-02    5.394140e-06
  7.769550e-02    5.385103e-06
  7.799443e-02    5.391831e-06
  7.829336e-02    5.407587e-06
  7.859229e-02    5.384718e-06
  7.889122e-02    5.369381e-06
  7.919015e-02    5.348343e-06
  7.948908e-02    5.335621e-06
  7.978801e-02    5.344149e-06
  8.008694e-02    5.328205e-06
  8.038587e-02    5.346210e-06
  8.068480e-02    5.317336e-06
  8.098373e-02    5.312207e-06
  8.128266e-02    5.303726e-06
  8.158159e-02    5.325421e-06
  8.188052e-02    5.360220e-06
  8.217945e-02    5.338845e-06
  8.247838e-02    5.301025e-06
  8.277731e-02    5.280584e-06
  8.307624e-02    5.273305e-06
  8.337518e-02    5.306641e-06
  8.367411e-02    5.295715e-06
  8.397304e-02    5.275843e-06
  8.427197e-02    5.263616e-06
  8.457090e-02    5.257482e-06
  8.486983e-02    5.268125e-06
  8.516876e-02    5.276810e-06
  8.546769e-02    5.223062e-06
  8.576662e-02    5.230439e-06
  8.606555e-02    5.240943e-06
  8.636448e-02    5.205358e-06
  8.666341e-02    5.182099e-06
  8.696234e-02    5.225027e-06
  8.726127e-02    5.225527e-06
  8.756020e-02    5.187781e-06
  8.785913e-02    5.157466e-06
  8.815806e-02    5.144622e-06
  8.845699e-02    5.151764e-06
  8.875592e-02    5.122640e-06
  8.905485e-02    5.124560e-06
  8.935378e-02    5.084938e-06
  8.965271e-02    5.076406e-06
  8.995164e-02    5.096203e-06
  9.025057e-02    5.090122e-06
  9.054950e-02    5.076193e-06
  9.084843e-02    5.041444e-06
  9.114737e-02    5.027918e-06
  9.144630e-02    5.013427e-06
  9.174523e-02    5.013407e-06
  9.204416e-02    5.000950e-06
  9.234309e-02    4.988149e-06
  9.264202e-02    4.988136e-06
  9.294095e-02    4.972618e-06
  9.323988e-02    4.978509e-06
  9.353881e-02    4.998436e-06
  9.383774e-02    5.003783e-06
  9.413667e-02    4.984263e-06
  9.443560e-02    4.962464e-06
  9.473453e-02    4.954561e-06
  9.503346e-02    4.950193e-06
  9.533239e-02    4.953008e-06
  9.563132e-02    4.958974e-06
  9.593025e-02    4.945883e-06
  9.622918e-02    4.949772e-06
  9.652811e-02    4.929072e-06
  9.682704e-02    4.941313e-06
  9.712597e-02    4.978956e-06
  9.742490e-02    4.977534e-06
  9.772383e-02    4.918270e-06
  9.802276e-02    4.882979e-06
  9.832169e-02    4.847639e-06
  9.862062e-02    4.818266e-06
  9.891956e-02    4.853388e-06
  9.921849e-02    4.826802e-06
  9.951742e-02    4.774764e-06
  9.981635e-02    4.762100e-06
  1.001153e-01    4.772182e-06
  1.004142e-01    4.786124e-06
  1.007131e-01    4.749224e-06
  1.010121e-01    4.764561e-06
  1.013110e-01    4.782838e-06
  1.016099e-01    4.729841e-06
  1.019089e-01    4.695236e-06
  1.022078e-01    4.677101e-06
  1.025067e-01    4.682966e-06
  1.028057e-01    4.678720e-06
  1.031046e-01    4.671414e-06
  1.034035e-01    4.635020e-06
  1.037024e-01    4.620332e-06
  1.040014e-01    4.644796e-06
  1.043003e-01    4.671530e-06
  1.045992e-01    4.646227e-06
  1.048982e-01    4.641104e-06
  1.051971e-01    4.597435e-06
  1.054960e-01    4.606139e-06
  1.057950e-01    4.593282e-06
  1.060939e-01    4.555389e-06
  1.063928e-01    4.567558e-06
  1.066917e-01    4.573767e-06
  1.069907e-01    4.571944e-06
  1.072896e-01    4.522977e-06
  1.075885e-01    4.548082e-06
  1.078875e-01    4.559670e-06
  1.081864e-01    4.536118e-06
  1.084853e-01    4.537274e-06
  1.087843e-01    4.537448e-06
  1.090832e-01    4.511670e-06
  1.093821e-01    4.513184e-06
  1.096810e-01    4.489599e-06
  1.099800e-01    4.489118e-06
  1.102789e-01    4.487478e-06
  1.105778e-01    4.465897e-06
  1.108768e-01    4.436279e-06
  1.111757e-01    4.429482e-06
  1.114746e-01    4.430388e-06
  1.117736e-01    4.393095e-06
  1.120725e-01    4.401963e-06
  1.123714e-01    4.422809e-06
  1.126704e-01    4.437062e-06
  1.129693e-01    4.424587e-06
  1.132682e-01    4.360040e-06
  1.135671e-01    4.307519e-06
  1.138661e-01    4.292836e-06
  1.141650e-01    4.290873e-06
  1.144639e-01    4.261068e-06
  1.147629e-01    4.273018e-06
  1.150618e-01    4.304503e-06
  1.153607e-01    4.290958e-06
  1.156597e-01    4.274486e-06
  1.159586e-01    4.233975e-06
  1.162575e-01    4.240743e-06
  1.165564e-01    4.298248e-06
  1.168554e-01    4.322463e-06
  1.171543e-01    4.270506e-06
  1.174532e-01    4.242105e-06
  1.177522e-01    4.256950e-06
  1.180511e-01    4.323183e-06
  1.183500e-01    4.399228e-06
  1.186490e-01    4.348953e-06
  1.189479e-01    4.295495e-06
  1.192468e-01    4.251649e-06
  1.195458e-01    4.169794e-06
  1.198447e-01    4.216426e-06
  1.201436e-01    4.085260e-06
  1.204425e-01    4.116588e-06
  1.207415e-01    3.745631e-06
  1.210404e-01    4.059183e-06
  1.213393e-01    0.000000e+00
  1.216383e-01    0.000000e+00
  1.219372e-01    0.000000e+00
  1.222361e-01    0.000000e+00
  1.225351e-01    0.000000e+00
  1.228340e-01    0.000000e+00
  1.231329e-01    0.000000e+00
  1.234318e-01    0.000000e+00
  1.237308e-01    0.000000e+00
  1.240297e-01    0.000000e+00
  1.243286e-01    0.000000e+00
  1.246276e-01    0.000000e+00
  1.249265e-01    0.000000e+00
  1.252254e-01    0.000000e+00
  1.255244e-01    0.000000e+00
  1.258233e-01    0.000000e+00
  1.261222e-01    0.000000e+00
  1.264212e-01    0.000000e+00
  1.267201e-01    0.000000e+00
  1.270190e-01    0.000000e+00
  1.273179e-01    0.000000e+00
  1.276169e-01    0.000000e+00
  1.279158e-01    0.000000e+00
  1.282147e-01    0.000000e+00
  1.285137e-01    0.000000e+00
  1.288126e-01    0.000000e+00
  1.291115e-01    0.000000e+00
  1.294105e-01    0.000000e+00
  1.297094e-01    0.000000e+00
  1.300083e-01    0.000000e+00
  1.303072e-01    0.000000e+00
  1.306062e-01    0.000000e+00
  1.309051e-01    0.000000e+00
  1.312040e-01    0.000000e+00
  1.315030e-01    0.000000e+00
  1.318019e-01    0.000000e+00
  1.321008e-01    0.000000e+00
  1.323998e-01    0.000000e+00
  1.326987e-01    0.000000e+00
  1.329976e-01    0.000000e+00
  1.332965e-01    0.000000e+00
  1.335955e-01    0.000000e+00
  1.338944e-01    0.000000e+00
  1.341933e-01    0.000000e+00
  1.344923e-01    0.000000e+00
  1.347912e-01    0.000000e+00
  1.350901e-01    0.000000e+00
  1.353891e-01    0.000000e+00
  1.356880e-01    0.000000e+00
  1.359869e-01    0.000000e+00
  1.362859e-01    0.000000e+00
  1.365848e-01    0.000000e+00
  1.368837e-01    0.000000e+00
  1.371826e-01    0.000000e+00
  1.374816e-01    0.000000e+00
  1.377805e-01    0.000000e+00
  1.380794e-01    0.000000e+00
  1.383784e-01    0.000000e+00
  1.386773e-01    0.000000e+00
  1.389762e-01    0.000000e+00
  1.392752e-01    0.000000e+00
  1.395741e-01    0.000000e+00
  1.398730e-01    0.000000e+00
  1.401719e-01    0.000000e+00
  1.404709e-01    0.000000e+00
  1.407698e-01    0.000000e+00
  1.410687e-01    0.000000e+00
  1.413677e-01    0.000000e+00
  1.416666e-01    0.000000e+00
  1.419655e-01    0.000000e+00
  1.422645e-01    0.000000e+00
  1.425634e-01    0.000000e+00
  1.428623e-01    0.000000e+00
  1.431613e-01    0.000000e+00
  1.434602e-01    0.000000e+00
  1.437591e-01    0.000000e+00
  1.440580e-01    0.000000e+00
  1.443570e-01    0.000000e+00
  1.446559e-01    0.000000e+00
  1.449548e-01    0.000000e+00
  1.452538e-01    0.000000e+00
  1.455527e-01    0.000000e+00
  1.458516e-01    0.000000e+00
  1.461506e-01    0.000000e+00
  1.464495e-01    0.000000e+00
  1.467484e-01    0.000000e+00
  1.470473e-01    0.000000e+00
  1.473463e-01    0.000000e+00
  1.476452e-01    0.000000e+00
  1.479441e-01    0.000000e+00
  1.482431e-01    0.000000e+00
  1.485420e-01    0.000000e+00
  1.488409e-01    0.000000e+00
  1.491399e-01    0.000000e+00
  1.494388e-01    0.000000e+00
  1.497377e-01    0.000000e+00
  1.500367e-01    0.000000e+00
  1.503356e-01    0.000000e+00
  1.506345e-01    0.000000e+00
  1.509334e-01    0.000000e+00
  1.512324e-01    0.000000e+00
  1.515313e-01    0.000000e+00
  1.518302e-01    0.000000e+00
  1.521292e-01    0.000000e+00
  1.524281e-01    0.000000e+00
  1.527270e-01    0.000000e+00
  1.530260e-01    0.000000e+00
  1.533249e-01    0.000000e+00
  1.536238e-01    0.000000e+00
