# == pyFAI calibration ==
# Distance Sample to Detector: 2.266 m
# PONI: 5.659e-02, 4.293e-02 m
# Rotations: 0.000000 0.000000 0.000000 rad
# 
# == Fit2d calibration ==
# Distance Sample-beamCenter: 2266.000 mm
# Center: x=249.594, y=329.012 pix
# Tilt: 0.000 deg  TiltPlanRot: 0.000 deg
# 
# Detector Pilatus 300k	 PixelSize= 1.720e-04, 1.720e-04 m
#    Detector has a mask: True 
#    Detector has a dark current: False 
#    detector has a flat field: False 
# 
# Wavelength: 1.27818e-10 m
# Mask applied: user provided
# Dark current applied: False
# Flat field applied: False
# Polarization factor: None
# Normalization factor: 2996786.0
# --> MT-F127_159.159_hexanes_139.265_NaCl_110.000mgml_0_r1d.csv
#        q_A^-1             I 
  4.457554e-03    3.283240e-03
  4.756484e-03    2.595866e-03
  5.055415e-03    1.850708e-03
  5.354345e-03    1.292650e-03
  5.653276e-03    9.868687e-04
  5.952206e-03    1.587678e-03
  6.251136e-03    1.448343e-03
  6.550067e-03    1.266843e-03
  6.848997e-03    1.080000e-03
  7.147927e-03    9.129992e-04
  7.446858e-03    7.828525e-04
  7.745788e-03    6.709876e-04
  8.044719e-03    5.783372e-04
  8.343649e-03    5.037141e-04
  8.642579e-03    4.415736e-04
  8.941510e-03    3.888441e-04
  9.240440e-03    3.429926e-04
  9.539371e-03    3.040137e-04
  9.838301e-03    2.708731e-04
  1.013723e-02    2.427791e-04
  1.043616e-02    2.188514e-04
  1.073509e-02    1.964945e-04
  1.103402e-02    1.775881e-04
  1.133295e-02    1.612493e-04
  1.163188e-02    1.468356e-04
  1.193081e-02    1.338596e-04
  1.222974e-02    1.224030e-04
  1.252867e-02    1.123965e-04
  1.282760e-02    1.035681e-04
  1.312654e-02    9.579117e-05
  1.342547e-02    8.884811e-05
  1.372440e-02    8.269928e-05
  1.402333e-02    7.687202e-05
  1.432226e-02    7.106304e-05
  1.462119e-02    6.618637e-05
  1.492012e-02    6.212758e-05
  1.521905e-02    5.826020e-05
  1.551798e-02    5.416580e-05
  1.581691e-02    5.115792e-05
  1.611584e-02    4.840103e-05
  1.641477e-02    4.536764e-05
  1.671370e-02    4.245802e-05
  1.701263e-02    4.007846e-05
  1.731156e-02    3.816441e-05
  1.761049e-02    3.657518e-05
  1.790942e-02    3.471388e-05
  1.820835e-02    3.301496e-05
  1.850728e-02    3.167814e-05
  1.880621e-02    3.010196e-05
  1.910514e-02    2.878496e-05
  1.940407e-02    2.746493e-05
  1.970300e-02    2.632598e-05
  2.000193e-02    2.559014e-05
  2.030086e-02    2.450718e-05
  2.059979e-02    2.366600e-05
  2.089873e-02    2.291155e-05
  2.119766e-02    2.220726e-05
  2.149659e-02    2.155342e-05
  2.179552e-02    2.088380e-05
  2.209445e-02    2.014762e-05
  2.239338e-02    1.968671e-05
  2.269231e-02    1.897850e-05
  2.299124e-02    1.848984e-05
  2.329017e-02    1.810986e-05
  2.358910e-02    1.776508e-05
  2.388803e-02    1.725595e-05
  2.418696e-02    1.686836e-05
  2.448589e-02    1.648347e-05
  2.478482e-02    1.615342e-05
  2.508375e-02    1.592362e-05
  2.538268e-02    1.563768e-05
  2.568161e-02    1.524604e-05
  2.598054e-02    1.487652e-05
  2.627947e-02    1.468096e-05
  2.657840e-02    1.448469e-05
  2.687733e-02    1.426836e-05
  2.717626e-02    1.401794e-05
  2.747519e-02    1.398171e-05
  2.777412e-02    1.373811e-05
  2.807305e-02    1.346042e-05
  2.837198e-02    1.339648e-05
  2.867092e-02    1.317560e-05
  2.896985e-02    1.287560e-05
  2.926878e-02    1.275293e-05
  2.956771e-02    1.265088e-05
  2.986664e-02    1.246974e-05
  3.016557e-02    1.240253e-05
  3.046450e-02    1.238411e-05
  3.076343e-02    1.210309e-05
  3.106236e-02    1.204527e-05
  3.136129e-02    1.186273e-05
  3.166022e-02    1.177404e-05
  3.195915e-02    1.164145e-05
  3.225808e-02    1.154985e-05
  3.255701e-02    1.148238e-05
  3.285594e-02    1.135415e-05
  3.315487e-02    1.114793e-05
  3.345380e-02    1.106182e-05
  3.375273e-02    1.098122e-05
  3.405166e-02    1.086784e-05
  3.435059e-02    1.092533e-05
  3.464952e-02    1.072023e-05
  3.494845e-02    1.052921e-05
  3.524738e-02    1.045716e-05
  3.554631e-02    1.028917e-05
  3.584524e-02    1.022265e-05
  3.614417e-02    1.011051e-05
  3.644310e-02    1.001518e-05
  3.674204e-02    9.841865e-06
  3.704097e-02    9.777756e-06
  3.733990e-02    9.699304e-06
  3.763883e-02    9.656932e-06
  3.793776e-02    9.593210e-06
  3.823669e-02    9.482201e-06
  3.853562e-02    9.429892e-06
  3.883455e-02    9.400028e-06
  3.913348e-02    9.392372e-06
  3.943241e-02    9.314937e-06
  3.973134e-02    9.195842e-06
  4.003027e-02    9.128061e-06
  4.032920e-02    9.046506e-06
  4.062813e-02    9.019697e-06
  4.092706e-02    8.982854e-06
  4.122599e-02    8.888801e-06
  4.152492e-02    8.794914e-06
  4.182385e-02    8.799428e-06
  4.212278e-02    8.771582e-06
  4.242171e-02    8.737072e-06
  4.272064e-02    8.743136e-06
  4.301957e-02    8.757817e-06
  4.331850e-02    8.672284e-06
  4.361743e-02    8.618773e-06
  4.391636e-02    8.599591e-06
  4.421529e-02    8.628675e-06
  4.451423e-02    8.639837e-06
  4.481316e-02    8.608654e-06
  4.511209e-02    8.472321e-06
  4.541102e-02    8.480342e-06
  4.570995e-02    8.566478e-06
  4.600888e-02    8.467349e-06
  4.630781e-02    8.455088e-06
  4.660674e-02    8.406744e-06
  4.690567e-02    8.403330e-06
  4.720460e-02    8.443828e-06
  4.750353e-02    8.457458e-06
  4.780246e-02    8.428995e-06
  4.810139e-02    8.338390e-06
  4.840032e-02    8.424565e-06
  4.869925e-02    8.477196e-06
  4.899818e-02    8.342840e-06
  4.929711e-02    8.347204e-06
  4.959604e-02    8.340641e-06
  4.989497e-02    8.346387e-06
  5.019390e-02    8.396622e-06
  5.049283e-02    8.386361e-06
  5.079176e-02    8.327801e-06
  5.109069e-02    8.317385e-06
  5.138962e-02    8.458502e-06
  5.168855e-02    8.751424e-06
  5.198748e-02    8.892733e-06
  5.228642e-02    8.765140e-06
  5.258535e-02    8.437546e-06
  5.288428e-02    8.206302e-06
  5.318321e-02    8.268339e-06
  5.348214e-02    8.302760e-06
  5.378107e-02    8.212728e-06
  5.408000e-02    8.250985e-06
  5.437893e-02    8.206916e-06
  5.467786e-02    8.192302e-06
  5.497679e-02    8.212729e-06
  5.527572e-02    8.292584e-06
  5.557465e-02    8.268367e-06
  5.587358e-02    8.247708e-06
  5.617251e-02    8.211821e-06
  5.647144e-02    8.187805e-06
  5.677037e-02    8.220010e-06
  5.706930e-02    8.274960e-06
  5.736823e-02    8.221731e-06
  5.766716e-02    8.169318e-06
  5.796609e-02    8.265880e-06
  5.826502e-02    8.308954e-06
  5.856395e-02    8.314961e-06
  5.886288e-02    8.270934e-06
  5.916181e-02    8.274599e-06
  5.946074e-02    8.322242e-06
  5.975967e-02    8.273935e-06
  6.005861e-02    8.345038e-06
  6.035754e-02    8.366760e-06
  6.065647e-02    8.469382e-06
  6.095540e-02    8.517225e-06
  6.125433e-02    8.615937e-06
  6.155326e-02    8.597459e-06
  6.185219e-02    8.485623e-06
  6.215112e-02    8.368136e-06
  6.245005e-02    8.327763e-06
  6.274898e-02    8.337005e-06
  6.304791e-02    8.356224e-06
  6.334684e-02    8.390328e-06
  6.364577e-02    8.456489e-06
  6.394470e-02    8.417443e-06
  6.424363e-02    8.367569e-06
  6.454256e-02    8.447064e-06
  6.484149e-02    8.417523e-06
  6.514042e-02    8.393379e-06
  6.543935e-02    8.457233e-06
  6.573828e-02    8.441904e-06
  6.603721e-02    8.498785e-06
  6.633614e-02    8.539406e-06
  6.663507e-02    8.504262e-06
  6.693400e-02    8.517834e-06
  6.723293e-02    8.490177e-06
  6.753186e-02    8.468656e-06
  6.783080e-02    8.521581e-06
  6.812973e-02    8.514894e-06
  6.842866e-02    8.600578e-06
  6.872759e-02    8.652442e-06
  6.902652e-02    8.622479e-06
  6.932545e-02    8.542977e-06
  6.962438e-02    8.598812e-06
  6.992331e-02    8.642506e-06
  7.022224e-02    8.637037e-06
  7.052117e-02    8.679524e-06
  7.082010e-02    8.659237e-06
  7.111903e-02    8.613641e-06
  7.141796e-02    8.560995e-06
  7.171689e-02    8.594548e-06
  7.201582e-02    8.599480e-06
  7.231475e-02    8.631368e-06
  7.261368e-02    8.707995e-06
  7.291261e-02    8.708744e-06
  7.321154e-02    8.700831e-06
  7.351047e-02    8.724726e-06
  7.380940e-02    8.693029e-06
  7.410833e-02    8.686809e-06
  7.440726e-02    8.690346e-06
  7.470619e-02    8.660279e-06
  7.500512e-02    8.658391e-06
  7.530405e-02    8.730510e-06
  7.560299e-02    8.670822e-06
  7.590192e-02    8.610612e-06
  7.620085e-02    8.600089e-06
  7.649978e-02    8.572561e-06
  7.679871e-02    8.573146e-06
  7.709764e-02    8.612819e-06
  7.739657e-02    8.594057e-06
  7.769550e-02    8.554355e-06
  7.799443e-02    8.603227e-06
  7.829336e-02    8.598060e-06
  7.859229e-02    8.598438e-06
  7.889122e-02    8.572486e-06
  7.919015e-02    8.579636e-06
  7.948908e-02    8.596449e-06
  7.978801e-02    8.544352e-06
  8.008694e-02    8.535776e-06
  8.038587e-02    8.512985e-06
  8.068480e-02    8.503859e-06
  8.098373e-02    8.476642e-06
  8.128266e-02    8.490407e-06
  8.158159e-02    8.521445e-06
  8.188052e-02    8.539333e-06
  8.217945e-02    8.472226e-06
  8.247838e-02    8.465628e-06
  8.277731e-02    8.538972e-06
  8.307624e-02    8.508565e-06
  8.337518e-02    8.448794e-06
  8.367411e-02    8.439645e-06
  8.397304e-02    8.440697e-06
  8.427197e-02    8.444606e-06
  8.457090e-02    8.427105e-06
  8.486983e-02    8.424450e-06
  8.516876e-02    8.377643e-06
  8.546769e-02    8.360235e-06
  8.576662e-02    8.348509e-06
  8.606555e-02    8.310761e-06
  8.636448e-02    8.347165e-06
  8.666341e-02    8.330819e-06
  8.696234e-02    8.307772e-06
  8.726127e-02    8.320611e-06
  8.756020e-02    8.338907e-06
  8.785913e-02    8.233952e-06
  8.815806e-02    8.171502e-06
  8.845699e-02    8.232576e-06
  8.875592e-02    8.257708e-06
  8.905485e-02    8.177359e-06
  8.935378e-02    8.168762e-06
  8.965271e-02    8.169890e-06
  8.995164e-02    8.113013e-06
  9.025057e-02    8.109151e-06
  9.054950e-02    8.133729e-06
  9.084843e-02    8.088377e-06
  9.114737e-02    8.049550e-06
  9.144630e-02    8.044320e-06
  9.174523e-02    8.034532e-06
  9.204416e-02    8.003185e-06
  9.234309e-02    8.004457e-06
  9.264202e-02    8.048059e-06
  9.294095e-02    8.050286e-06
  9.323988e-02    7.954371e-06
  9.353881e-02    7.923224e-06
  9.383774e-02    7.920459e-06
  9.413667e-02    7.868626e-06
  9.443560e-02    7.939649e-06
  9.473453e-02    7.914733e-06
  9.503346e-02    7.925497e-06
  9.533239e-02    7.959708e-06
  9.563132e-02    7.863841e-06
  9.593025e-02    7.819410e-06
  9.622918e-02    7.892450e-06
  9.652811e-02    7.939703e-06
  9.682704e-02    7.931272e-06
  9.712597e-02    7.954062e-06
  9.742490e-02    7.906994e-06
  9.772383e-02    7.866719e-06
  9.802276e-02    7.869966e-06
  9.832169e-02    7.902735e-06
  9.862062e-02    7.801585e-06
  9.891956e-02    7.706202e-06
  9.921849e-02    7.686072e-06
  9.951742e-02    7.664086e-06
  9.981635e-02    7.693604e-06
  1.001153e-01    7.661215e-06
  1.004142e-01    7.616757e-06
  1.007131e-01    7.642014e-06
  1.010121e-01    7.628033e-06
  1.013110e-01    7.638148e-06
  1.016099e-01    7.583583e-06
  1.019089e-01    7.544884e-06
  1.022078e-01    7.563974e-06
  1.025067e-01    7.563132e-06
  1.028057e-01    7.531267e-06
  1.031046e-01    7.480110e-06
  1.034035e-01    7.459203e-06
  1.037024e-01    7.470229e-06
  1.040014e-01    7.564941e-06
  1.043003e-01    7.502759e-06
  1.045992e-01    7.467202e-06
  1.048982e-01    7.467020e-06
  1.051971e-01    7.430354e-06
  1.054960e-01    7.359245e-06
  1.057950e-01    7.342818e-06
  1.060939e-01    7.388539e-06
  1.063928e-01    7.434706e-06
  1.066917e-01    7.393487e-06
  1.069907e-01    7.359571e-06
  1.072896e-01    7.343152e-06
  1.075885e-01    7.323930e-06
  1.078875e-01    7.293379e-06
  1.081864e-01    7.306242e-06
  1.084853e-01    7.299635e-06
  1.087843e-01    7.337173e-06
  1.090832e-01    7.361422e-06
  1.093821e-01    7.331502e-06
  1.096810e-01    7.256387e-06
  1.099800e-01    7.239847e-06
  1.102789e-01    7.207422e-06
  1.105778e-01    7.138111e-06
  1.108768e-01    7.098551e-06
  1.111757e-01    7.088582e-06
  1.114746e-01    7.045996e-06
  1.117736e-01    7.063440e-06
  1.120725e-01    7.138298e-06
  1.123714e-01    7.121010e-06
  1.126704e-01    7.107460e-06
  1.129693e-01    7.010040e-06
  1.132682e-01    6.915544e-06
  1.135671e-01    6.879328e-06
  1.138661e-01    6.944631e-06
  1.141650e-01    6.933021e-06
  1.144639e-01    6.887225e-06
  1.147629e-01    7.040322e-06
  1.150618e-01    7.011700e-06
  1.153607e-01    6.868661e-06
  1.156597e-01    6.755748e-06
  1.159586e-01    6.752210e-06
  1.162575e-01    6.840834e-06
  1.165564e-01    6.781034e-06
  1.168554e-01    6.883957e-06
  1.171543e-01    6.902659e-06
  1.174532e-01    6.790373e-06
  1.177522e-01    6.795685e-06
  1.180511e-01    6.777721e-06
  1.183500e-01    6.850518e-06
  1.186490e-01    6.865830e-06
  1.189479e-01    6.757367e-06
  1.192468e-01    6.697078e-06
  1.195458e-01    6.700633e-06
  1.198447e-01    6.692370e-06
  1.201436e-01    6.578265e-06
  1.204425e-01    6.461873e-06
  1.207415e-01    6.679674e-06
  1.210404e-01    8.015834e-06
  1.213393e-01    0.000000e+00
  1.216383e-01    0.000000e+00
  1.219372e-01    0.000000e+00
  1.222361e-01    0.000000e+00
  1.225351e-01    0.000000e+00
  1.228340e-01    0.000000e+00
  1.231329e-01    0.000000e+00
  1.234318e-01    0.000000e+00
  1.237308e-01    0.000000e+00
  1.240297e-01    0.000000e+00
  1.243286e-01    0.000000e+00
  1.246276e-01    0.000000e+00
  1.249265e-01    0.000000e+00
  1.252254e-01    0.000000e+00
  1.255244e-01    0.000000e+00
  1.258233e-01    0.000000e+00
  1.261222e-01    0.000000e+00
  1.264212e-01    0.000000e+00
  1.267201e-01    0.000000e+00
  1.270190e-01    0.000000e+00
  1.273179e-01    0.000000e+00
  1.276169e-01    0.000000e+00
  1.279158e-01    0.000000e+00
  1.282147e-01    0.000000e+00
  1.285137e-01    0.000000e+00
  1.288126e-01    0.000000e+00
  1.291115e-01    0.000000e+00
  1.294105e-01    0.000000e+00
  1.297094e-01    0.000000e+00
  1.300083e-01    0.000000e+00
  1.303072e-01    0.000000e+00
  1.306062e-01    0.000000e+00
  1.309051e-01    0.000000e+00
  1.312040e-01    0.000000e+00
  1.315030e-01    0.000000e+00
  1.318019e-01    0.000000e+00
  1.321008e-01    0.000000e+00
  1.323998e-01    0.000000e+00
  1.326987e-01    0.000000e+00
  1.329976e-01    0.000000e+00
  1.332965e-01    0.000000e+00
  1.335955e-01    0.000000e+00
  1.338944e-01    0.000000e+00
  1.341933e-01    0.000000e+00
  1.344923e-01    0.000000e+00
  1.347912e-01    0.000000e+00
  1.350901e-01    0.000000e+00
  1.353891e-01    0.000000e+00
  1.356880e-01    0.000000e+00
  1.359869e-01    0.000000e+00
  1.362859e-01    0.000000e+00
  1.365848e-01    0.000000e+00
  1.368837e-01    0.000000e+00
  1.371826e-01    0.000000e+00
  1.374816e-01    0.000000e+00
  1.377805e-01    0.000000e+00
  1.380794e-01    0.000000e+00
  1.383784e-01    0.000000e+00
  1.386773e-01    0.000000e+00
  1.389762e-01    0.000000e+00
  1.392752e-01    0.000000e+00
  1.395741e-01    0.000000e+00
  1.398730e-01    0.000000e+00
  1.401719e-01    0.000000e+00
  1.404709e-01    0.000000e+00
  1.407698e-01    0.000000e+00
  1.410687e-01    0.000000e+00
  1.413677e-01    0.000000e+00
  1.416666e-01    0.000000e+00
  1.419655e-01    0.000000e+00
  1.422645e-01    0.000000e+00
  1.425634e-01    0.000000e+00
  1.428623e-01    0.000000e+00
  1.431613e-01    0.000000e+00
  1.434602e-01    0.000000e+00
  1.437591e-01    0.000000e+00
  1.440580e-01    0.000000e+00
  1.443570e-01    0.000000e+00
  1.446559e-01    0.000000e+00
  1.449548e-01    0.000000e+00
  1.452538e-01    0.000000e+00
  1.455527e-01    0.000000e+00
  1.458516e-01    0.000000e+00
  1.461506e-01    0.000000e+00
  1.464495e-01    0.000000e+00
  1.467484e-01    0.000000e+00
  1.470473e-01    0.000000e+00
  1.473463e-01    0.000000e+00
  1.476452e-01    0.000000e+00
  1.479441e-01    0.000000e+00
  1.482431e-01    0.000000e+00
  1.485420e-01    0.000000e+00
  1.488409e-01    0.000000e+00
  1.491399e-01    0.000000e+00
  1.494388e-01    0.000000e+00
  1.497377e-01    0.000000e+00
  1.500367e-01    0.000000e+00
  1.503356e-01    0.000000e+00
  1.506345e-01    0.000000e+00
  1.509334e-01    0.000000e+00
  1.512324e-01    0.000000e+00
  1.515313e-01    0.000000e+00
  1.518302e-01    0.000000e+00
  1.521292e-01    0.000000e+00
  1.524281e-01    0.000000e+00
  1.527270e-01    0.000000e+00
  1.530260e-01    0.000000e+00
  1.533249e-01    0.000000e+00
  1.536238e-01    0.000000e+00
