# == pyFAI calibration ==
# Distance Sample to Detector: 2.266 m
# PONI: 5.659e-02, 4.293e-02 m
# Rotations: 0.000000 0.000000 0.000000 rad
# 
# == Fit2d calibration ==
# Distance Sample-beamCenter: 2266.000 mm
# Center: x=249.594, y=329.012 pix
# Tilt: 0.000 deg  TiltPlanRot: 0.000 deg
# 
# Detector Pilatus 300k	 PixelSize= 1.720e-04, 1.720e-04 m
#    Detector has a mask: True 
#    Detector has a dark current: False 
#    detector has a flat field: False 
# 
# Wavelength: 1.27818e-10 m
# Mask applied: user provided
# Dark current applied: False
# Flat field applied: False
# Polarization factor: None
# Normalization factor: 4336578.600000001
# --> MT-F127_21.891_NaCl_54.727_limonene_0.000mgml_0_r1d.csv
#        q_A^-1             I 
  4.457554e-03    6.070064e-03
  4.756484e-03    4.778724e-03
  5.055415e-03    3.396114e-03
  5.354345e-03    2.367575e-03
  5.653276e-03    1.825638e-03
  5.952206e-03    2.965724e-03
  6.251136e-03    2.708798e-03
  6.550067e-03    2.356332e-03
  6.848997e-03    2.001133e-03
  7.147927e-03    1.689254e-03
  7.446858e-03    1.443738e-03
  7.745788e-03    1.238706e-03
  8.044719e-03    1.066273e-03
  8.343649e-03    9.302234e-04
  8.642579e-03    8.120575e-04
  8.941510e-03    7.145315e-04
  9.240440e-03    6.335241e-04
  9.539371e-03    5.634830e-04
  9.838301e-03    5.001634e-04
  1.013723e-02    4.481247e-04
  1.043616e-02    4.030074e-04
  1.073509e-02    3.625269e-04
  1.103402e-02    3.295878e-04
  1.133295e-02    2.984582e-04
  1.163188e-02    2.713654e-04
  1.193081e-02    2.480450e-04
  1.222974e-02    2.272481e-04
  1.252867e-02    2.090416e-04
  1.282760e-02    1.924942e-04
  1.312654e-02    1.775413e-04
  1.342547e-02    1.644906e-04
  1.372440e-02    1.530537e-04
  1.402333e-02    1.419965e-04
  1.432226e-02    1.315353e-04
  1.462119e-02    1.224698e-04
  1.492012e-02    1.152448e-04
  1.521905e-02    1.080264e-04
  1.551798e-02    1.012460e-04
  1.581691e-02    9.500138e-05
  1.611584e-02    8.979935e-05
  1.641477e-02    8.499094e-05
  1.671370e-02    8.041847e-05
  1.701263e-02    7.586532e-05
  1.731156e-02    7.178193e-05
  1.761049e-02    6.836862e-05
  1.790942e-02    6.545238e-05
  1.820835e-02    6.220254e-05
  1.850728e-02    5.923646e-05
  1.880621e-02    5.689866e-05
  1.910514e-02    5.436370e-05
  1.940407e-02    5.207065e-05
  1.970300e-02    5.014353e-05
  2.000193e-02    4.818509e-05
  2.030086e-02    4.628656e-05
  2.059979e-02    4.465141e-05
  2.089873e-02    4.313491e-05
  2.119766e-02    4.185583e-05
  2.149659e-02    4.062289e-05
  2.179552e-02    3.935791e-05
  2.209445e-02    3.827271e-05
  2.239338e-02    3.715622e-05
  2.269231e-02    3.612127e-05
  2.299124e-02    3.496476e-05
  2.329017e-02    3.401114e-05
  2.358910e-02    3.310831e-05
  2.388803e-02    3.252231e-05
  2.418696e-02    3.187745e-05
  2.448589e-02    3.113936e-05
  2.478482e-02    3.047320e-05
  2.508375e-02    2.980934e-05
  2.538268e-02    2.932191e-05
  2.568161e-02    2.859466e-05
  2.598054e-02    2.805132e-05
  2.627947e-02    2.767204e-05
  2.657840e-02    2.720164e-05
  2.687733e-02    2.666838e-05
  2.717626e-02    2.638686e-05
  2.747519e-02    2.596888e-05
  2.777412e-02    2.546361e-05
  2.807305e-02    2.514370e-05
  2.837198e-02    2.484445e-05
  2.867092e-02    2.457570e-05
  2.896985e-02    2.426146e-05
  2.926878e-02    2.400071e-05
  2.956771e-02    2.373990e-05
  2.986664e-02    2.346469e-05
  3.016557e-02    2.321760e-05
  3.046450e-02    2.304182e-05
  3.076343e-02    2.281507e-05
  3.106236e-02    2.236174e-05
  3.136129e-02    2.221770e-05
  3.166022e-02    2.216378e-05
  3.195915e-02    2.187642e-05
  3.225808e-02    2.145396e-05
  3.255701e-02    2.129466e-05
  3.285594e-02    2.113926e-05
  3.315487e-02    2.084951e-05
  3.345380e-02    2.074804e-05
  3.375273e-02    2.064309e-05
  3.405166e-02    2.041485e-05
  3.435059e-02    2.019899e-05
  3.464952e-02    1.996333e-05
  3.494845e-02    1.983455e-05
  3.524738e-02    1.967338e-05
  3.554631e-02    1.940134e-05
  3.584524e-02    1.928035e-05
  3.614417e-02    1.922750e-05
  3.644310e-02    1.904136e-05
  3.674204e-02    1.885166e-05
  3.704097e-02    1.877925e-05
  3.733990e-02    1.850888e-05
  3.763883e-02    1.837190e-05
  3.793776e-02    1.835154e-05
  3.823669e-02    1.818898e-05
  3.853562e-02    1.796286e-05
  3.883455e-02    1.778965e-05
  3.913348e-02    1.774186e-05
  3.943241e-02    1.763599e-05
  3.973134e-02    1.764242e-05
  4.003027e-02    1.752013e-05
  4.032920e-02    1.739119e-05
  4.062813e-02    1.742304e-05
  4.092706e-02    1.737405e-05
  4.122599e-02    1.724444e-05
  4.152492e-02    1.712430e-05
  4.182385e-02    1.696060e-05
  4.212278e-02    1.697122e-05
  4.242171e-02    1.693517e-05
  4.272064e-02    1.686395e-05
  4.301957e-02    1.676565e-05
  4.331850e-02    1.672756e-05
  4.361743e-02    1.666396e-05
  4.391636e-02    1.659973e-05
  4.421529e-02    1.661862e-05
  4.451423e-02    1.665644e-05
  4.481316e-02    1.655302e-05
  4.511209e-02    1.650487e-05
  4.541102e-02    1.656220e-05
  4.570995e-02    1.648558e-05
  4.600888e-02    1.638655e-05
  4.630781e-02    1.647105e-05
  4.660674e-02    1.658647e-05
  4.690567e-02    1.654431e-05
  4.720460e-02    1.646994e-05
  4.750353e-02    1.638155e-05
  4.780246e-02    1.636804e-05
  4.810139e-02    1.639804e-05
  4.840032e-02    1.640755e-05
  4.869925e-02    1.642981e-05
  4.899818e-02    1.633594e-05
  4.929711e-02    1.630251e-05
  4.959604e-02    1.637267e-05
  4.989497e-02    1.626426e-05
  5.019390e-02    1.635947e-05
  5.049283e-02    1.638550e-05
  5.079176e-02    1.635748e-05
  5.109069e-02    1.638465e-05
  5.138962e-02    1.649482e-05
  5.168855e-02    1.685608e-05
  5.198748e-02    1.713154e-05
  5.228642e-02    1.690632e-05
  5.258535e-02    1.641072e-05
  5.288428e-02    1.621878e-05
  5.318321e-02    1.619979e-05
  5.348214e-02    1.620189e-05
  5.378107e-02    1.625032e-05
  5.408000e-02    1.626419e-05
  5.437893e-02    1.617623e-05
  5.467786e-02    1.626016e-05
  5.497679e-02    1.621878e-05
  5.527572e-02    1.620651e-05
  5.557465e-02    1.619483e-05
  5.587358e-02    1.621180e-05
  5.617251e-02    1.629534e-05
  5.647144e-02    1.620706e-05
  5.677037e-02    1.619635e-05
  5.706930e-02    1.625805e-05
  5.736823e-02    1.622442e-05
  5.766716e-02    1.629212e-05
  5.796609e-02    1.630948e-05
  5.826502e-02    1.637916e-05
  5.856395e-02    1.637898e-05
  5.886288e-02    1.626873e-05
  5.916181e-02    1.624357e-05
  5.946074e-02    1.629251e-05
  5.975967e-02    1.636863e-05
  6.005861e-02    1.644040e-05
  6.035754e-02    1.645062e-05
  6.065647e-02    1.653090e-05
  6.095540e-02    1.665370e-05
  6.125433e-02    1.686353e-05
  6.155326e-02    1.694417e-05
  6.185219e-02    1.683077e-05
  6.215112e-02    1.669077e-05
  6.245005e-02    1.659476e-05
  6.274898e-02    1.657164e-05
  6.304791e-02    1.658932e-05
  6.334684e-02    1.653245e-05
  6.364577e-02    1.655048e-05
  6.394470e-02    1.669667e-05
  6.424363e-02    1.669065e-05
  6.454256e-02    1.667127e-05
  6.484149e-02    1.669323e-05
  6.514042e-02    1.682571e-05
  6.543935e-02    1.677069e-05
  6.573828e-02    1.677442e-05
  6.603721e-02    1.684730e-05
  6.633614e-02    1.679043e-05
  6.663507e-02    1.686046e-05
  6.693400e-02    1.691821e-05
  6.723293e-02    1.688399e-05
  6.753186e-02    1.697169e-05
  6.783080e-02    1.693227e-05
  6.812973e-02    1.690662e-05
  6.842866e-02    1.700559e-05
  6.872759e-02    1.706822e-05
  6.902652e-02    1.696132e-05
  6.932545e-02    1.702437e-05
  6.962438e-02    1.706794e-05
  6.992331e-02    1.709871e-05
  7.022224e-02    1.715226e-05
  7.052117e-02    1.703249e-05
  7.082010e-02    1.703413e-05
  7.111903e-02    1.717515e-05
  7.141796e-02    1.715313e-05
  7.171689e-02    1.713974e-05
  7.201582e-02    1.720816e-05
  7.231475e-02    1.711786e-05
  7.261368e-02    1.717806e-05
  7.291261e-02    1.721475e-05
  7.321154e-02    1.712754e-05
  7.351047e-02    1.719113e-05
  7.380940e-02    1.725312e-05
  7.410833e-02    1.731459e-05
  7.440726e-02    1.727824e-05
  7.470619e-02    1.721930e-05
  7.500512e-02    1.728333e-05
  7.530405e-02    1.732034e-05
  7.560299e-02    1.718912e-05
  7.590192e-02    1.724480e-05
  7.620085e-02    1.721520e-05
  7.649978e-02    1.723881e-05
  7.679871e-02    1.717133e-05
  7.709764e-02    1.714510e-05
  7.739657e-02    1.719094e-05
  7.769550e-02    1.717755e-05
  7.799443e-02    1.709340e-05
  7.829336e-02    1.709121e-05
  7.859229e-02    1.716644e-05
  7.889122e-02    1.725402e-05
  7.919015e-02    1.721692e-05
  7.948908e-02    1.719564e-05
  7.978801e-02    1.715654e-05
  8.008694e-02    1.713300e-05
  8.038587e-02    1.707599e-05
  8.068480e-02    1.705507e-05
  8.098373e-02    1.701957e-05
  8.128266e-02    1.703454e-05
  8.158159e-02    1.704666e-05
  8.188052e-02    1.702242e-05
  8.217945e-02    1.704218e-05
  8.247838e-02    1.703160e-05
  8.277731e-02    1.689212e-05
  8.307624e-02    1.690652e-05
  8.337518e-02    1.690214e-05
  8.367411e-02    1.683229e-05
  8.397304e-02    1.677976e-05
  8.427197e-02    1.679082e-05
  8.457090e-02    1.682673e-05
  8.486983e-02    1.679710e-05
  8.516876e-02    1.689537e-05
  8.546769e-02    1.682872e-05
  8.576662e-02    1.669004e-05
  8.606555e-02    1.664310e-05
  8.636448e-02    1.664115e-05
  8.666341e-02    1.663745e-05
  8.696234e-02    1.666919e-05
  8.726127e-02    1.666298e-05
  8.756020e-02    1.660871e-05
  8.785913e-02    1.656238e-05
  8.815806e-02    1.652417e-05
  8.845699e-02    1.642593e-05
  8.875592e-02    1.639476e-05
  8.905485e-02    1.643342e-05
  8.935378e-02    1.645974e-05
  8.965271e-02    1.639578e-05
  8.995164e-02    1.636547e-05
  9.025057e-02    1.633543e-05
  9.054950e-02    1.628566e-05
  9.084843e-02    1.629750e-05
  9.114737e-02    1.618302e-05
  9.144630e-02    1.613609e-05
  9.174523e-02    1.613041e-05
  9.204416e-02    1.609436e-05
  9.234309e-02    1.604420e-05
  9.264202e-02    1.599326e-05
  9.294095e-02    1.597190e-05
  9.323988e-02    1.603706e-05
  9.353881e-02    1.598212e-05
  9.383774e-02    1.589319e-05
  9.413667e-02    1.584852e-05
  9.443560e-02    1.586786e-05
  9.473453e-02    1.579205e-05
  9.503346e-02    1.582438e-05
  9.533239e-02    1.587500e-05
  9.563132e-02    1.586834e-05
  9.593025e-02    1.580745e-05
  9.622918e-02    1.579027e-05
  9.652811e-02    1.582219e-05
  9.682704e-02    1.584154e-05
  9.712597e-02    1.584624e-05
  9.742490e-02    1.581288e-05
  9.772383e-02    1.570781e-05
  9.802276e-02    1.564863e-05
  9.832169e-02    1.556046e-05
  9.862062e-02    1.550717e-05
  9.891956e-02    1.551687e-05
  9.921849e-02    1.549018e-05
  9.951742e-02    1.545573e-05
  9.981635e-02    1.541742e-05
  1.001153e-01    1.539071e-05
  1.004142e-01    1.540032e-05
  1.007131e-01    1.535214e-05
  1.010121e-01    1.530289e-05
  1.013110e-01    1.530935e-05
  1.016099e-01    1.525493e-05
  1.019089e-01    1.516957e-05
  1.022078e-01    1.511039e-05
  1.025067e-01    1.509922e-05
  1.028057e-01    1.509442e-05
  1.031046e-01    1.506458e-05
  1.034035e-01    1.498570e-05
  1.037024e-01    1.504897e-05
  1.040014e-01    1.507567e-05
  1.043003e-01    1.500963e-05
  1.045992e-01    1.500566e-05
  1.048982e-01    1.498217e-05
  1.051971e-01    1.492459e-05
  1.054960e-01    1.482403e-05
  1.057950e-01    1.479073e-05
  1.060939e-01    1.477364e-05
  1.063928e-01    1.474427e-05
  1.066917e-01    1.474110e-05
  1.069907e-01    1.479898e-05
  1.072896e-01    1.475226e-05
  1.075885e-01    1.464424e-05
  1.078875e-01    1.455323e-05
  1.081864e-01    1.462377e-05
  1.084853e-01    1.463968e-05
  1.087843e-01    1.465414e-05
  1.090832e-01    1.461489e-05
  1.093821e-01    1.454485e-05
  1.096810e-01    1.454262e-05
  1.099800e-01    1.451312e-05
  1.102789e-01    1.446294e-05
  1.105778e-01    1.434242e-05
  1.108768e-01    1.424380e-05
  1.111757e-01    1.417892e-05
  1.114746e-01    1.409158e-05
  1.117736e-01    1.410962e-05
  1.120725e-01    1.412936e-05
  1.123714e-01    1.414031e-05
  1.126704e-01    1.414457e-05
  1.129693e-01    1.412234e-05
  1.132682e-01    1.399550e-05
  1.135671e-01    1.379603e-05
  1.138661e-01    1.382284e-05
  1.141650e-01    1.398500e-05
  1.144639e-01    1.399763e-05
  1.147629e-01    1.380584e-05
  1.150618e-01    1.378808e-05
  1.153607e-01    1.393230e-05
  1.156597e-01    1.376383e-05
  1.159586e-01    1.368999e-05
  1.162575e-01    1.377922e-05
  1.165564e-01    1.378253e-05
  1.168554e-01    1.370050e-05
  1.171543e-01    1.359985e-05
  1.174532e-01    1.361298e-05
  1.177522e-01    1.376697e-05
  1.180511e-01    1.383045e-05
  1.183500e-01    1.369674e-05
  1.186490e-01    1.384783e-05
  1.189479e-01    1.388773e-05
  1.192468e-01    1.357872e-05
  1.195458e-01    1.340152e-05
  1.198447e-01    1.347986e-05
  1.201436e-01    1.329475e-05
  1.204425e-01    1.285425e-05
  1.207415e-01    1.286766e-05
  1.210404e-01    1.246349e-05
  1.213393e-01    0.000000e+00
  1.216383e-01    0.000000e+00
  1.219372e-01    0.000000e+00
  1.222361e-01    0.000000e+00
  1.225351e-01    0.000000e+00
  1.228340e-01    0.000000e+00
  1.231329e-01    0.000000e+00
  1.234318e-01    0.000000e+00
  1.237308e-01    0.000000e+00
  1.240297e-01    0.000000e+00
  1.243286e-01    0.000000e+00
  1.246276e-01    0.000000e+00
  1.249265e-01    0.000000e+00
  1.252254e-01    0.000000e+00
  1.255244e-01    0.000000e+00
  1.258233e-01    0.000000e+00
  1.261222e-01    0.000000e+00
  1.264212e-01    0.000000e+00
  1.267201e-01    0.000000e+00
  1.270190e-01    0.000000e+00
  1.273179e-01    0.000000e+00
  1.276169e-01    0.000000e+00
  1.279158e-01    0.000000e+00
  1.282147e-01    0.000000e+00
  1.285137e-01    0.000000e+00
  1.288126e-01    0.000000e+00
  1.291115e-01    0.000000e+00
  1.294105e-01    0.000000e+00
  1.297094e-01    0.000000e+00
  1.300083e-01    0.000000e+00
  1.303072e-01    0.000000e+00
  1.306062e-01    0.000000e+00
  1.309051e-01    0.000000e+00
  1.312040e-01    0.000000e+00
  1.315030e-01    0.000000e+00
  1.318019e-01    0.000000e+00
  1.321008e-01    0.000000e+00
  1.323998e-01    0.000000e+00
  1.326987e-01    0.000000e+00
  1.329976e-01    0.000000e+00
  1.332965e-01    0.000000e+00
  1.335955e-01    0.000000e+00
  1.338944e-01    0.000000e+00
  1.341933e-01    0.000000e+00
  1.344923e-01    0.000000e+00
  1.347912e-01    0.000000e+00
  1.350901e-01    0.000000e+00
  1.353891e-01    0.000000e+00
  1.356880e-01    0.000000e+00
  1.359869e-01    0.000000e+00
  1.362859e-01    0.000000e+00
  1.365848e-01    0.000000e+00
  1.368837e-01    0.000000e+00
  1.371826e-01    0.000000e+00
  1.374816e-01    0.000000e+00
  1.377805e-01    0.000000e+00
  1.380794e-01    0.000000e+00
  1.383784e-01    0.000000e+00
  1.386773e-01    0.000000e+00
  1.389762e-01    0.000000e+00
  1.392752e-01    0.000000e+00
  1.395741e-01    0.000000e+00
  1.398730e-01    0.000000e+00
  1.401719e-01    0.000000e+00
  1.404709e-01    0.000000e+00
  1.407698e-01    0.000000e+00
  1.410687e-01    0.000000e+00
  1.413677e-01    0.000000e+00
  1.416666e-01    0.000000e+00
  1.419655e-01    0.000000e+00
  1.422645e-01    0.000000e+00
  1.425634e-01    0.000000e+00
  1.428623e-01    0.000000e+00
  1.431613e-01    0.000000e+00
  1.434602e-01    0.000000e+00
  1.437591e-01    0.000000e+00
  1.440580e-01    0.000000e+00
  1.443570e-01    0.000000e+00
  1.446559e-01    0.000000e+00
  1.449548e-01    0.000000e+00
  1.452538e-01    0.000000e+00
  1.455527e-01    0.000000e+00
  1.458516e-01    0.000000e+00
  1.461506e-01    0.000000e+00
  1.464495e-01    0.000000e+00
  1.467484e-01    0.000000e+00
  1.470473e-01    0.000000e+00
  1.473463e-01    0.000000e+00
  1.476452e-01    0.000000e+00
  1.479441e-01    0.000000e+00
  1.482431e-01    0.000000e+00
  1.485420e-01    0.000000e+00
  1.488409e-01    0.000000e+00
  1.491399e-01    0.000000e+00
  1.494388e-01    0.000000e+00
  1.497377e-01    0.000000e+00
  1.500367e-01    0.000000e+00
  1.503356e-01    0.000000e+00
  1.506345e-01    0.000000e+00
  1.509334e-01    0.000000e+00
  1.512324e-01    0.000000e+00
  1.515313e-01    0.000000e+00
  1.518302e-01    0.000000e+00
  1.521292e-01    0.000000e+00
  1.524281e-01    0.000000e+00
  1.527270e-01    0.000000e+00
  1.530260e-01    0.000000e+00
  1.533249e-01    0.000000e+00
  1.536238e-01    0.000000e+00
