# == pyFAI calibration ==
# Distance Sample to Detector: 2.266 m
# PONI: 5.659e-02, 4.293e-02 m
# Rotations: 0.000000 0.000000 0.000000 rad
# 
# == Fit2d calibration ==
# Distance Sample-beamCenter: 2266.000 mm
# Center: x=249.594, y=329.012 pix
# Tilt: 0.000 deg  TiltPlanRot: 0.000 deg
# 
# Detector Pilatus 300k	 PixelSize= 1.720e-04, 1.720e-04 m
#    Detector has a mask: True 
#    Detector has a dark current: False 
#    detector has a flat field: False 
# 
# Wavelength: 1.27818e-10 m
# Mask applied: user provided
# Dark current applied: False
# Flat field applied: False
# Polarization factor: None
# Normalization factor: 1230314.4000000001
# --> MT-F127_125.796_hexanes_3.457_EtOH_69.728_NaCl_99.322mgml_0_r1d.csv
#        q_A^-1             I 
  4.457554e-03    6.758925e-03
  4.756484e-03    5.318845e-03
  5.055415e-03    3.744971e-03
  5.354345e-03    2.612934e-03
  5.653276e-03    1.979568e-03
  5.952206e-03    3.069072e-03
  6.251136e-03    2.813504e-03
  6.550067e-03    2.453696e-03
  6.848997e-03    2.098727e-03
  7.147927e-03    1.782404e-03
  7.446858e-03    1.519501e-03
  7.745788e-03    1.302860e-03
  8.044719e-03    1.121736e-03
  8.343649e-03    9.804508e-04
  8.642579e-03    8.595738e-04
  8.941510e-03    7.608053e-04
  9.240440e-03    6.741876e-04
  9.539371e-03    5.986763e-04
  9.838301e-03    5.335843e-04
  1.013723e-02    4.766249e-04
  1.043616e-02    4.269991e-04
  1.073509e-02    3.846594e-04
  1.103402e-02    3.492457e-04
  1.133295e-02    3.168195e-04
  1.163188e-02    2.881952e-04
  1.193081e-02    2.635556e-04
  1.222974e-02    2.410436e-04
  1.252867e-02    2.219529e-04
  1.282760e-02    2.048894e-04
  1.312654e-02    1.871335e-04
  1.342547e-02    1.745948e-04
  1.372440e-02    1.615377e-04
  1.402333e-02    1.490062e-04
  1.432226e-02    1.385444e-04
  1.462119e-02    1.289334e-04
  1.492012e-02    1.204491e-04
  1.521905e-02    1.132250e-04
  1.551798e-02    1.062807e-04
  1.581691e-02    9.961447e-05
  1.611584e-02    9.343176e-05
  1.641477e-02    8.779582e-05
  1.671370e-02    8.321674e-05
  1.701263e-02    7.867473e-05
  1.731156e-02    7.483394e-05
  1.761049e-02    7.147180e-05
  1.790942e-02    6.753515e-05
  1.820835e-02    6.403615e-05
  1.850728e-02    6.154794e-05
  1.880621e-02    5.908637e-05
  1.910514e-02    5.677540e-05
  1.940407e-02    5.371588e-05
  1.970300e-02    5.119232e-05
  2.000193e-02    4.983238e-05
  2.030086e-02    4.792786e-05
  2.059979e-02    4.610154e-05
  2.089873e-02    4.485788e-05
  2.119766e-02    4.318709e-05
  2.149659e-02    4.127131e-05
  2.179552e-02    4.017985e-05
  2.209445e-02    3.921496e-05
  2.239338e-02    3.810287e-05
  2.269231e-02    3.696319e-05
  2.299124e-02    3.601696e-05
  2.329017e-02    3.509187e-05
  2.358910e-02    3.419085e-05
  2.388803e-02    3.308396e-05
  2.418696e-02    3.214739e-05
  2.448589e-02    3.173956e-05
  2.478482e-02    3.103679e-05
  2.508375e-02    3.058594e-05
  2.538268e-02    2.998314e-05
  2.568161e-02    2.961596e-05
  2.598054e-02    2.908547e-05
  2.627947e-02    2.844213e-05
  2.657840e-02    2.808672e-05
  2.687733e-02    2.755913e-05
  2.717626e-02    2.723747e-05
  2.747519e-02    2.683583e-05
  2.777412e-02    2.617057e-05
  2.807305e-02    2.581368e-05
  2.837198e-02    2.564951e-05
  2.867092e-02    2.532379e-05
  2.896985e-02    2.486561e-05
  2.926878e-02    2.466079e-05
  2.956771e-02    2.429883e-05
  2.986664e-02    2.403040e-05
  3.016557e-02    2.383869e-05
  3.046450e-02    2.368869e-05
  3.076343e-02    2.328667e-05
  3.106236e-02    2.296832e-05
  3.136129e-02    2.311214e-05
  3.166022e-02    2.277667e-05
  3.195915e-02    2.248152e-05
  3.225808e-02    2.208815e-05
  3.255701e-02    2.169422e-05
  3.285594e-02    2.171847e-05
  3.315487e-02    2.145263e-05
  3.345380e-02    2.113117e-05
  3.375273e-02    2.094219e-05
  3.405166e-02    2.120635e-05
  3.435059e-02    2.080984e-05
  3.464952e-02    2.044102e-05
  3.494845e-02    2.028902e-05
  3.524738e-02    1.989978e-05
  3.554631e-02    1.984338e-05
  3.584524e-02    1.974556e-05
  3.614417e-02    1.934914e-05
  3.644310e-02    1.909772e-05
  3.674204e-02    1.911215e-05
  3.704097e-02    1.884308e-05
  3.733990e-02    1.856966e-05
  3.763883e-02    1.864889e-05
  3.793776e-02    1.863935e-05
  3.823669e-02    1.838616e-05
  3.853562e-02    1.821670e-05
  3.883455e-02    1.820179e-05
  3.913348e-02    1.806158e-05
  3.943241e-02    1.785808e-05
  3.973134e-02    1.776596e-05
  4.003027e-02    1.744178e-05
  4.032920e-02    1.724782e-05
  4.062813e-02    1.708244e-05
  4.092706e-02    1.707787e-05
  4.122599e-02    1.685772e-05
  4.152492e-02    1.689139e-05
  4.182385e-02    1.700407e-05
  4.212278e-02    1.679886e-05
  4.242171e-02    1.670313e-05
  4.272064e-02    1.667167e-05
  4.301957e-02    1.653735e-05
  4.331850e-02    1.661334e-05
  4.361743e-02    1.650769e-05
  4.391636e-02    1.654238e-05
  4.421529e-02    1.639565e-05
  4.451423e-02    1.630470e-05
  4.481316e-02    1.656637e-05
  4.511209e-02    1.646317e-05
  4.541102e-02    1.610362e-05
  4.570995e-02    1.613551e-05
  4.600888e-02    1.611220e-05
  4.630781e-02    1.608856e-05
  4.660674e-02    1.598853e-05
  4.690567e-02    1.604122e-05
  4.720460e-02    1.619992e-05
  4.750353e-02    1.624211e-05
  4.780246e-02    1.609049e-05
  4.810139e-02    1.619029e-05
  4.840032e-02    1.609690e-05
  4.869925e-02    1.587844e-05
  4.899818e-02    1.581099e-05
  4.929711e-02    1.600964e-05
  4.959604e-02    1.608320e-05
  4.989497e-02    1.604396e-05
  5.019390e-02    1.597992e-05
  5.049283e-02    1.598317e-05
  5.079176e-02    1.590073e-05
  5.109069e-02    1.578720e-05
  5.138962e-02    1.594304e-05
  5.168855e-02    1.640244e-05
  5.198748e-02    1.690442e-05
  5.228642e-02    1.682654e-05
  5.258535e-02    1.609783e-05
  5.288428e-02    1.588209e-05
  5.318321e-02    1.567228e-05
  5.348214e-02    1.562286e-05
  5.378107e-02    1.573098e-05
  5.408000e-02    1.573986e-05
  5.437893e-02    1.578446e-05
  5.467786e-02    1.567576e-05
  5.497679e-02    1.556606e-05
  5.527572e-02    1.565044e-05
  5.557465e-02    1.569856e-05
  5.587358e-02    1.560526e-05
  5.617251e-02    1.551415e-05
  5.647144e-02    1.557197e-05
  5.677037e-02    1.566180e-05
  5.706930e-02    1.570796e-05
  5.736823e-02    1.583156e-05
  5.766716e-02    1.590381e-05
  5.796609e-02    1.580997e-05
  5.826502e-02    1.569626e-05
  5.856395e-02    1.569480e-05
  5.886288e-02    1.567607e-05
  5.916181e-02    1.565728e-05
  5.946074e-02    1.575155e-05
  5.975967e-02    1.574794e-05
  6.005861e-02    1.588191e-05
  6.035754e-02    1.597628e-05
  6.065647e-02    1.600330e-05
  6.095540e-02    1.608599e-05
  6.125433e-02    1.629964e-05
  6.155326e-02    1.635625e-05
  6.185219e-02    1.604796e-05
  6.215112e-02    1.592766e-05
  6.245005e-02    1.578167e-05
  6.274898e-02    1.582791e-05
  6.304791e-02    1.581754e-05
  6.334684e-02    1.583786e-05
  6.364577e-02    1.598455e-05
  6.394470e-02    1.602015e-05
  6.424363e-02    1.589466e-05
  6.454256e-02    1.615796e-05
  6.484149e-02    1.623910e-05
  6.514042e-02    1.612323e-05
  6.543935e-02    1.601693e-05
  6.573828e-02    1.607533e-05
  6.603721e-02    1.611513e-05
  6.633614e-02    1.618055e-05
  6.663507e-02    1.621479e-05
  6.693400e-02    1.614940e-05
  6.723293e-02    1.610267e-05
  6.753186e-02    1.607553e-05
  6.783080e-02    1.600536e-05
  6.812973e-02    1.610069e-05
  6.842866e-02    1.629789e-05
  6.872759e-02    1.623709e-05
  6.902652e-02    1.635990e-05
  6.932545e-02    1.629384e-05
  6.962438e-02    1.623045e-05
  6.992331e-02    1.632695e-05
  7.022224e-02    1.623778e-05
  7.052117e-02    1.616071e-05
  7.082010e-02    1.625042e-05
  7.111903e-02    1.628760e-05
  7.141796e-02    1.644458e-05
  7.171689e-02    1.650229e-05
  7.201582e-02    1.650412e-05
  7.231475e-02    1.649727e-05
  7.261368e-02    1.651252e-05
  7.291261e-02    1.650049e-05
  7.321154e-02    1.640823e-05
  7.351047e-02    1.642764e-05
  7.380940e-02    1.650192e-05
  7.410833e-02    1.635098e-05
  7.440726e-02    1.625812e-05
  7.470619e-02    1.646546e-05
  7.500512e-02    1.655322e-05
  7.530405e-02    1.645019e-05
  7.560299e-02    1.644091e-05
  7.590192e-02    1.646475e-05
  7.620085e-02    1.654232e-05
  7.649978e-02    1.646206e-05
  7.679871e-02    1.651240e-05
  7.709764e-02    1.653442e-05
  7.739657e-02    1.626952e-05
  7.769550e-02    1.627464e-05
  7.799443e-02    1.641339e-05
  7.829336e-02    1.630833e-05
  7.859229e-02    1.639541e-05
  7.889122e-02    1.652468e-05
  7.919015e-02    1.647222e-05
  7.948908e-02    1.633913e-05
  7.978801e-02    1.623459e-05
  8.008694e-02    1.623956e-05
  8.038587e-02    1.622296e-05
  8.068480e-02    1.626012e-05
  8.098373e-02    1.612991e-05
  8.128266e-02    1.607729e-05
  8.158159e-02    1.612443e-05
  8.188052e-02    1.611548e-05
  8.217945e-02    1.603378e-05
  8.247838e-02    1.603795e-05
  8.277731e-02    1.601209e-05
  8.307624e-02    1.611096e-05
  8.337518e-02    1.614703e-05
  8.367411e-02    1.602480e-05
  8.397304e-02    1.585702e-05
  8.427197e-02    1.589341e-05
  8.457090e-02    1.602963e-05
  8.486983e-02    1.600119e-05
  8.516876e-02    1.584640e-05
  8.546769e-02    1.579279e-05
  8.576662e-02    1.588561e-05
  8.606555e-02    1.589038e-05
  8.636448e-02    1.589663e-05
  8.666341e-02    1.582029e-05
  8.696234e-02    1.561639e-05
  8.726127e-02    1.558165e-05
  8.756020e-02    1.561046e-05
  8.785913e-02    1.565714e-05
  8.815806e-02    1.562677e-05
  8.845699e-02    1.564804e-05
  8.875592e-02    1.562911e-05
  8.905485e-02    1.550702e-05
  8.935378e-02    1.545021e-05
  8.965271e-02    1.540409e-05
  8.995164e-02    1.539217e-05
  9.025057e-02    1.540195e-05
  9.054950e-02    1.539036e-05
  9.084843e-02    1.530996e-05
  9.114737e-02    1.532077e-05
  9.144630e-02    1.535979e-05
  9.174523e-02    1.513131e-05
  9.204416e-02    1.508596e-05
  9.234309e-02    1.510499e-05
  9.264202e-02    1.507214e-05
  9.294095e-02    1.514878e-05
  9.323988e-02    1.505267e-05
  9.353881e-02    1.499845e-05
  9.383774e-02    1.497865e-05
  9.413667e-02    1.496652e-05
  9.443560e-02    1.503358e-05
  9.473453e-02    1.495349e-05
  9.503346e-02    1.488945e-05
  9.533239e-02    1.494536e-05
  9.563132e-02    1.497700e-05
  9.593025e-02    1.490326e-05
  9.622918e-02    1.486102e-05
  9.652811e-02    1.501527e-05
  9.682704e-02    1.510913e-05
  9.712597e-02    1.507567e-05
  9.742490e-02    1.498091e-05
  9.772383e-02    1.494924e-05
  9.802276e-02    1.481327e-05
  9.832169e-02    1.467146e-05
  9.862062e-02    1.466877e-05
  9.891956e-02    1.457319e-05
  9.921849e-02    1.459925e-05
  9.951742e-02    1.458789e-05
  9.981635e-02    1.454299e-05
  1.001153e-01    1.446311e-05
  1.004142e-01    1.436916e-05
  1.007131e-01    1.443289e-05
  1.010121e-01    1.448928e-05
  1.013110e-01    1.439019e-05
  1.016099e-01    1.438395e-05
  1.019089e-01    1.434605e-05
  1.022078e-01    1.439552e-05
  1.025067e-01    1.429394e-05
  1.028057e-01    1.407791e-05
  1.031046e-01    1.413207e-05
  1.034035e-01    1.413911e-05
  1.037024e-01    1.414707e-05
  1.040014e-01    1.407255e-05
  1.043003e-01    1.411836e-05
  1.045992e-01    1.405670e-05
  1.048982e-01    1.399641e-05
  1.051971e-01    1.397897e-05
  1.054960e-01    1.390629e-05
  1.057950e-01    1.382455e-05
  1.060939e-01    1.389606e-05
  1.063928e-01    1.396256e-05
  1.066917e-01    1.394948e-05
  1.069907e-01    1.403029e-05
  1.072896e-01    1.388892e-05
  1.075885e-01    1.377081e-05
  1.078875e-01    1.375896e-05
  1.081864e-01    1.381027e-05
  1.084853e-01    1.388114e-05
  1.087843e-01    1.411032e-05
  1.090832e-01    1.417766e-05
  1.093821e-01    1.390896e-05
  1.096810e-01    1.367836e-05
  1.099800e-01    1.378271e-05
  1.102789e-01    1.377503e-05
  1.105778e-01    1.357933e-05
  1.108768e-01    1.362026e-05
  1.111757e-01    1.363119e-05
  1.114746e-01    1.356472e-05
  1.117736e-01    1.361389e-05
  1.120725e-01    1.355601e-05
  1.123714e-01    1.339765e-05
  1.126704e-01    1.353383e-05
  1.129693e-01    1.352660e-05
  1.132682e-01    1.337773e-05
  1.135671e-01    1.321770e-05
  1.138661e-01    1.308196e-05
  1.141650e-01    1.326297e-05
  1.144639e-01    1.313925e-05
  1.147629e-01    1.304294e-05
  1.150618e-01    1.312009e-05
  1.153607e-01    1.312890e-05
  1.156597e-01    1.283895e-05
  1.159586e-01    1.299986e-05
  1.162575e-01    1.321452e-05
  1.165564e-01    1.304282e-05
  1.168554e-01    1.299378e-05
  1.171543e-01    1.290266e-05
  1.174532e-01    1.289259e-05
  1.177522e-01    1.320831e-05
  1.180511e-01    1.303950e-05
  1.183500e-01    1.267832e-05
  1.186490e-01    1.289930e-05
  1.189479e-01    1.308647e-05
  1.192468e-01    1.311146e-05
  1.195458e-01    1.318370e-05
  1.198447e-01    1.310063e-05
  1.201436e-01    1.288729e-05
  1.204425e-01    1.263717e-05
  1.207415e-01    1.284739e-05
  1.210404e-01    1.383012e-05
  1.213393e-01    0.000000e+00
  1.216383e-01    0.000000e+00
  1.219372e-01    0.000000e+00
  1.222361e-01    0.000000e+00
  1.225351e-01    0.000000e+00
  1.228340e-01    0.000000e+00
  1.231329e-01    0.000000e+00
  1.234318e-01    0.000000e+00
  1.237308e-01    0.000000e+00
  1.240297e-01    0.000000e+00
  1.243286e-01    0.000000e+00
  1.246276e-01    0.000000e+00
  1.249265e-01    0.000000e+00
  1.252254e-01    0.000000e+00
  1.255244e-01    0.000000e+00
  1.258233e-01    0.000000e+00
  1.261222e-01    0.000000e+00
  1.264212e-01    0.000000e+00
  1.267201e-01    0.000000e+00
  1.270190e-01    0.000000e+00
  1.273179e-01    0.000000e+00
  1.276169e-01    0.000000e+00
  1.279158e-01    0.000000e+00
  1.282147e-01    0.000000e+00
  1.285137e-01    0.000000e+00
  1.288126e-01    0.000000e+00
  1.291115e-01    0.000000e+00
  1.294105e-01    0.000000e+00
  1.297094e-01    0.000000e+00
  1.300083e-01    0.000000e+00
  1.303072e-01    0.000000e+00
  1.306062e-01    0.000000e+00
  1.309051e-01    0.000000e+00
  1.312040e-01    0.000000e+00
  1.315030e-01    0.000000e+00
  1.318019e-01    0.000000e+00
  1.321008e-01    0.000000e+00
  1.323998e-01    0.000000e+00
  1.326987e-01    0.000000e+00
  1.329976e-01    0.000000e+00
  1.332965e-01    0.000000e+00
  1.335955e-01    0.000000e+00
  1.338944e-01    0.000000e+00
  1.341933e-01    0.000000e+00
  1.344923e-01    0.000000e+00
  1.347912e-01    0.000000e+00
  1.350901e-01    0.000000e+00
  1.353891e-01    0.000000e+00
  1.356880e-01    0.000000e+00
  1.359869e-01    0.000000e+00
  1.362859e-01    0.000000e+00
  1.365848e-01    0.000000e+00
  1.368837e-01    0.000000e+00
  1.371826e-01    0.000000e+00
  1.374816e-01    0.000000e+00
  1.377805e-01    0.000000e+00
  1.380794e-01    0.000000e+00
  1.383784e-01    0.000000e+00
  1.386773e-01    0.000000e+00
  1.389762e-01    0.000000e+00
  1.392752e-01    0.000000e+00
  1.395741e-01    0.000000e+00
  1.398730e-01    0.000000e+00
  1.401719e-01    0.000000e+00
  1.404709e-01    0.000000e+00
  1.407698e-01    0.000000e+00
  1.410687e-01    0.000000e+00
  1.413677e-01    0.000000e+00
  1.416666e-01    0.000000e+00
  1.419655e-01    0.000000e+00
  1.422645e-01    0.000000e+00
  1.425634e-01    0.000000e+00
  1.428623e-01    0.000000e+00
  1.431613e-01    0.000000e+00
  1.434602e-01    0.000000e+00
  1.437591e-01    0.000000e+00
  1.440580e-01    0.000000e+00
  1.443570e-01    0.000000e+00
  1.446559e-01    0.000000e+00
  1.449548e-01    0.000000e+00
  1.452538e-01    0.000000e+00
  1.455527e-01    0.000000e+00
  1.458516e-01    0.000000e+00
  1.461506e-01    0.000000e+00
  1.464495e-01    0.000000e+00
  1.467484e-01    0.000000e+00
  1.470473e-01    0.000000e+00
  1.473463e-01    0.000000e+00
  1.476452e-01    0.000000e+00
  1.479441e-01    0.000000e+00
  1.482431e-01    0.000000e+00
  1.485420e-01    0.000000e+00
  1.488409e-01    0.000000e+00
  1.491399e-01    0.000000e+00
  1.494388e-01    0.000000e+00
  1.497377e-01    0.000000e+00
  1.500367e-01    0.000000e+00
  1.503356e-01    0.000000e+00
  1.506345e-01    0.000000e+00
  1.509334e-01    0.000000e+00
  1.512324e-01    0.000000e+00
  1.515313e-01    0.000000e+00
  1.518302e-01    0.000000e+00
  1.521292e-01    0.000000e+00
  1.524281e-01    0.000000e+00
  1.527270e-01    0.000000e+00
  1.530260e-01    0.000000e+00
  1.533249e-01    0.000000e+00
  1.536238e-01    0.000000e+00
