# == pyFAI calibration ==
# Distance Sample to Detector: 2.266 m
# PONI: 5.659e-02, 4.293e-02 m
# Rotations: 0.000000 0.000000 0.000000 rad
# 
# == Fit2d calibration ==
# Distance Sample-beamCenter: 2266.000 mm
# Center: x=249.594, y=329.012 pix
# Tilt: 0.000 deg  TiltPlanRot: 0.000 deg
# 
# Detector Pilatus 300k	 PixelSize= 1.720e-04, 1.720e-04 m
#    Detector has a mask: True 
#    Detector has a dark current: False 
#    detector has a flat field: False 
# 
# Wavelength: 1.27818e-10 m
# Mask applied: user provided
# Dark current applied: False
# Flat field applied: False
# Polarization factor: None
# Normalization factor: 15045107.600000001
# --> MT-F127_51.078_NaCl_37.214_limonene_0.000mgml_0_r1d.csv
#        q_A^-1             I 
  4.457554e-03    1.516277e-03
  4.756484e-03    1.185091e-03
  5.055415e-03    8.366627e-04
  5.354345e-03    5.803522e-04
  5.653276e-03    4.437000e-04
  5.952206e-03    7.125424e-04
  6.251136e-03    6.523217e-04
  6.550067e-03    5.673415e-04
  6.848997e-03    4.820423e-04
  7.147927e-03    4.076799e-04
  7.446858e-03    3.477655e-04
  7.745788e-03    2.974492e-04
  8.044719e-03    2.559045e-04
  8.343649e-03    2.231645e-04
  8.642579e-03    1.951246e-04
  8.941510e-03    1.716469e-04
  9.240440e-03    1.522900e-04
  9.539371e-03    1.349069e-04
  9.838301e-03    1.199496e-04
  1.013723e-02    1.073810e-04
  1.043616e-02    9.674305e-05
  1.073509e-02    8.696159e-05
  1.103402e-02    7.875002e-05
  1.133295e-02    7.154450e-05
  1.163188e-02    6.493731e-05
  1.193081e-02    5.926865e-05
  1.222974e-02    5.446279e-05
  1.252867e-02    5.018002e-05
  1.282760e-02    4.605037e-05
  1.312654e-02    4.256860e-05
  1.342547e-02    3.930771e-05
  1.372440e-02    3.631493e-05
  1.402333e-02    3.367024e-05
  1.432226e-02    3.140351e-05
  1.462119e-02    2.923585e-05
  1.492012e-02    2.748456e-05
  1.521905e-02    2.572674e-05
  1.551798e-02    2.405481e-05
  1.581691e-02    2.261464e-05
  1.611584e-02    2.138032e-05
  1.641477e-02    2.023191e-05
  1.671370e-02    1.910795e-05
  1.701263e-02    1.810370e-05
  1.731156e-02    1.705170e-05
  1.761049e-02    1.626545e-05
  1.790942e-02    1.554336e-05
  1.820835e-02    1.474683e-05
  1.850728e-02    1.402994e-05
  1.880621e-02    1.340523e-05
  1.910514e-02    1.291028e-05
  1.940407e-02    1.237125e-05
  1.970300e-02    1.183969e-05
  2.000193e-02    1.134837e-05
  2.030086e-02    1.101089e-05
  2.059979e-02    1.065652e-05
  2.089873e-02    1.026166e-05
  2.119766e-02    9.928985e-06
  2.149659e-02    9.631764e-06
  2.179552e-02    9.335682e-06
  2.209445e-02    9.059347e-06
  2.239338e-02    8.815919e-06
  2.269231e-02    8.579077e-06
  2.299124e-02    8.345247e-06
  2.329017e-02    8.155555e-06
  2.358910e-02    7.928895e-06
  2.388803e-02    7.767175e-06
  2.418696e-02    7.565225e-06
  2.448589e-02    7.367519e-06
  2.478482e-02    7.235940e-06
  2.508375e-02    7.113589e-06
  2.538268e-02    6.953448e-06
  2.568161e-02    6.874641e-06
  2.598054e-02    6.766989e-06
  2.627947e-02    6.600282e-06
  2.657840e-02    6.496361e-06
  2.687733e-02    6.407483e-06
  2.717626e-02    6.284009e-06
  2.747519e-02    6.148657e-06
  2.777412e-02    6.084826e-06
  2.807305e-02    6.004639e-06
  2.837198e-02    5.932773e-06
  2.867092e-02    5.848642e-06
  2.896985e-02    5.801091e-06
  2.926878e-02    5.761864e-06
  2.956771e-02    5.679674e-06
  2.986664e-02    5.602220e-06
  3.016557e-02    5.556204e-06
  3.046450e-02    5.500991e-06
  3.076343e-02    5.422903e-06
  3.106236e-02    5.399572e-06
  3.136129e-02    5.336929e-06
  3.166022e-02    5.249445e-06
  3.195915e-02    5.211009e-06
  3.225808e-02    5.170245e-06
  3.255701e-02    5.140336e-06
  3.285594e-02    5.059528e-06
  3.315487e-02    4.985424e-06
  3.345380e-02    4.989013e-06
  3.375273e-02    4.944022e-06
  3.405166e-02    4.886415e-06
  3.435059e-02    4.838910e-06
  3.464952e-02    4.790287e-06
  3.494845e-02    4.750008e-06
  3.524738e-02    4.683005e-06
  3.554631e-02    4.640061e-06
  3.584524e-02    4.620221e-06
  3.614417e-02    4.593755e-06
  3.644310e-02    4.532364e-06
  3.674204e-02    4.493722e-06
  3.704097e-02    4.460675e-06
  3.733990e-02    4.428705e-06
  3.763883e-02    4.411552e-06
  3.793776e-02    4.368996e-06
  3.823669e-02    4.336385e-06
  3.853562e-02    4.326927e-06
  3.883455e-02    4.300451e-06
  3.913348e-02    4.277000e-06
  3.943241e-02    4.223743e-06
  3.973134e-02    4.228510e-06
  4.003027e-02    4.197578e-06
  4.032920e-02    4.178941e-06
  4.062813e-02    4.146758e-06
  4.092706e-02    4.136159e-06
  4.122599e-02    4.130695e-06
  4.152492e-02    4.096524e-06
  4.182385e-02    4.072310e-06
  4.212278e-02    4.038170e-06
  4.242171e-02    4.038033e-06
  4.272064e-02    4.034382e-06
  4.301957e-02    3.997321e-06
  4.331850e-02    3.986669e-06
  4.361743e-02    3.953608e-06
  4.391636e-02    3.945605e-06
  4.421529e-02    3.952158e-06
  4.451423e-02    3.955050e-06
  4.481316e-02    3.971174e-06
  4.511209e-02    3.958789e-06
  4.541102e-02    3.950547e-06
  4.570995e-02    3.932059e-06
  4.600888e-02    3.913875e-06
  4.630781e-02    3.892871e-06
  4.660674e-02    3.896892e-06
  4.690567e-02    3.912346e-06
  4.720460e-02    3.952344e-06
  4.750353e-02    3.942047e-06
  4.780246e-02    3.895879e-06
  4.810139e-02    3.883425e-06
  4.840032e-02    3.903913e-06
  4.869925e-02    3.889379e-06
  4.899818e-02    3.900723e-06
  4.929711e-02    3.908092e-06
  4.959604e-02    3.886538e-06
  4.989497e-02    3.872214e-06
  5.019390e-02    3.895154e-06
  5.049283e-02    3.913028e-06
  5.079176e-02    3.892550e-06
  5.109069e-02    3.888962e-06
  5.138962e-02    3.925347e-06
  5.168855e-02    4.001655e-06
  5.198748e-02    4.057595e-06
  5.228642e-02    4.035377e-06
  5.258535e-02    3.914213e-06
  5.288428e-02    3.853957e-06
  5.318321e-02    3.840624e-06
  5.348214e-02    3.841298e-06
  5.378107e-02    3.851028e-06
  5.408000e-02    3.852142e-06
  5.437893e-02    3.854437e-06
  5.467786e-02    3.847904e-06
  5.497679e-02    3.834308e-06
  5.527572e-02    3.858825e-06
  5.557465e-02    3.864848e-06
  5.587358e-02    3.858819e-06
  5.617251e-02    3.865895e-06
  5.647144e-02    3.883994e-06
  5.677037e-02    3.892250e-06
  5.706930e-02    3.864280e-06
  5.736823e-02    3.876348e-06
  5.766716e-02    3.879702e-06
  5.796609e-02    3.884394e-06
  5.826502e-02    3.896878e-06
  5.856395e-02    3.886469e-06
  5.886288e-02    3.885956e-06
  5.916181e-02    3.898875e-06
  5.946074e-02    3.939394e-06
  5.975967e-02    3.953545e-06
  6.005861e-02    3.933063e-06
  6.035754e-02    3.929099e-06
  6.065647e-02    3.931454e-06
  6.095540e-02    3.966971e-06
  6.125433e-02    4.024206e-06
  6.155326e-02    4.043924e-06
  6.185219e-02    4.007840e-06
  6.215112e-02    3.958080e-06
  6.245005e-02    3.960082e-06
  6.274898e-02    3.969698e-06
  6.304791e-02    3.979900e-06
  6.334684e-02    3.975664e-06
  6.364577e-02    3.963809e-06
  6.394470e-02    3.971839e-06
  6.424363e-02    3.989149e-06
  6.454256e-02    3.993780e-06
  6.484149e-02    4.009338e-06
  6.514042e-02    4.011576e-06
  6.543935e-02    4.013701e-06
  6.573828e-02    3.989368e-06
  6.603721e-02    3.996091e-06
  6.633614e-02    4.021780e-06
  6.663507e-02    4.022037e-06
  6.693400e-02    4.014497e-06
  6.723293e-02    4.025443e-06
  6.753186e-02    4.048442e-06
  6.783080e-02    4.014913e-06
  6.812973e-02    4.009681e-06
  6.842866e-02    4.038466e-06
  6.872759e-02    4.029329e-06
  6.902652e-02    4.056965e-06
  6.932545e-02    4.074569e-06
  6.962438e-02    4.067806e-06
  6.992331e-02    4.067972e-06
  7.022224e-02    4.070897e-06
  7.052117e-02    4.072830e-06
  7.082010e-02    4.090369e-06
  7.111903e-02    4.083763e-06
  7.141796e-02    4.068661e-06
  7.171689e-02    4.085361e-06
  7.201582e-02    4.117313e-06
  7.231475e-02    4.111698e-06
  7.261368e-02    4.105871e-06
  7.291261e-02    4.087975e-06
  7.321154e-02    4.103398e-06
  7.351047e-02    4.115572e-06
  7.380940e-02    4.116184e-06
  7.410833e-02    4.105711e-06
  7.440726e-02    4.106547e-06
  7.470619e-02    4.086266e-06
  7.500512e-02    4.097530e-06
  7.530405e-02    4.100556e-06
  7.560299e-02    4.103888e-06
  7.590192e-02    4.126993e-06
  7.620085e-02    4.105743e-06
  7.649978e-02    4.088609e-06
  7.679871e-02    4.092887e-06
  7.709764e-02    4.106328e-06
  7.739657e-02    4.101858e-06
  7.769550e-02    4.094140e-06
  7.799443e-02    4.095505e-06
  7.829336e-02    4.091338e-06
  7.859229e-02    4.096723e-06
  7.889122e-02    4.079884e-06
  7.919015e-02    4.076529e-06
  7.948908e-02    4.069659e-06
  7.978801e-02    4.088341e-06
  8.008694e-02    4.089127e-06
  8.038587e-02    4.099687e-06
  8.068480e-02    4.066664e-06
  8.098373e-02    4.063251e-06
  8.128266e-02    4.026503e-06
  8.158159e-02    4.032127e-06
  8.188052e-02    4.065809e-06
  8.217945e-02    4.041684e-06
  8.247838e-02    4.027616e-06
  8.277731e-02    4.022880e-06
  8.307624e-02    4.010117e-06
  8.337518e-02    4.003567e-06
  8.367411e-02    4.002284e-06
  8.397304e-02    3.996926e-06
  8.427197e-02    4.006549e-06
  8.457090e-02    4.013221e-06
  8.486983e-02    4.004412e-06
  8.516876e-02    3.993212e-06
  8.546769e-02    3.990468e-06
  8.576662e-02    3.970983e-06
  8.606555e-02    3.978888e-06
  8.636448e-02    3.968659e-06
  8.666341e-02    3.946886e-06
  8.696234e-02    3.945860e-06
  8.726127e-02    3.953374e-06
  8.756020e-02    3.971506e-06
  8.785913e-02    3.951515e-06
  8.815806e-02    3.920582e-06
  8.845699e-02    3.929127e-06
  8.875592e-02    3.930504e-06
  8.905485e-02    3.912491e-06
  8.935378e-02    3.906948e-06
  8.965271e-02    3.897433e-06
  8.995164e-02    3.889928e-06
  9.025057e-02    3.870961e-06
  9.054950e-02    3.856093e-06
  9.084843e-02    3.865482e-06
  9.114737e-02    3.851232e-06
  9.144630e-02    3.838839e-06
  9.174523e-02    3.849088e-06
  9.204416e-02    3.835661e-06
  9.234309e-02    3.818299e-06
  9.264202e-02    3.806812e-06
  9.294095e-02    3.815891e-06
  9.323988e-02    3.813702e-06
  9.353881e-02    3.801367e-06
  9.383774e-02    3.797721e-06
  9.413667e-02    3.788688e-06
  9.443560e-02    3.787124e-06
  9.473453e-02    3.783626e-06
  9.503346e-02    3.777642e-06
  9.533239e-02    3.777686e-06
  9.563132e-02    3.768245e-06
  9.593025e-02    3.778119e-06
  9.622918e-02    3.767212e-06
  9.652811e-02    3.778702e-06
  9.682704e-02    3.799633e-06
  9.712597e-02    3.791362e-06
  9.742490e-02    3.776097e-06
  9.772383e-02    3.766851e-06
  9.802276e-02    3.725281e-06
  9.832169e-02    3.709100e-06
  9.862062e-02    3.692725e-06
  9.891956e-02    3.672707e-06
  9.921849e-02    3.679927e-06
  9.951742e-02    3.680565e-06
  9.981635e-02    3.683493e-06
  1.001153e-01    3.664774e-06
  1.004142e-01    3.651941e-06
  1.007131e-01    3.648029e-06
  1.010121e-01    3.633496e-06
  1.013110e-01    3.632839e-06
  1.016099e-01    3.618912e-06
  1.019089e-01    3.615165e-06
  1.022078e-01    3.604381e-06
  1.025067e-01    3.584945e-06
  1.028057e-01    3.591189e-06
  1.031046e-01    3.592610e-06
  1.034035e-01    3.583094e-06
  1.037024e-01    3.571785e-06
  1.040014e-01    3.568207e-06
  1.043003e-01    3.553085e-06
  1.045992e-01    3.550830e-06
  1.048982e-01    3.550814e-06
  1.051971e-01    3.536777e-06
  1.054960e-01    3.534195e-06
  1.057950e-01    3.531462e-06
  1.060939e-01    3.529419e-06
  1.063928e-01    3.515833e-06
  1.066917e-01    3.507028e-06
  1.069907e-01    3.497146e-06
  1.072896e-01    3.497048e-06
  1.075885e-01    3.493549e-06
  1.078875e-01    3.483359e-06
  1.081864e-01    3.467999e-06
  1.084853e-01    3.466451e-06
  1.087843e-01    3.484386e-06
  1.090832e-01    3.487848e-06
  1.093821e-01    3.471228e-06
  1.096810e-01    3.451587e-06
  1.099800e-01    3.440542e-06
  1.102789e-01    3.416340e-06
  1.105778e-01    3.400307e-06
  1.108768e-01    3.399905e-06
  1.111757e-01    3.392315e-06
  1.114746e-01    3.396456e-06
  1.117736e-01    3.384048e-06
  1.120725e-01    3.359522e-06
  1.123714e-01    3.379484e-06
  1.126704e-01    3.382674e-06
  1.129693e-01    3.358956e-06
  1.132682e-01    3.362965e-06
  1.135671e-01    3.334534e-06
  1.138661e-01    3.305814e-06
  1.141650e-01    3.333053e-06
  1.144639e-01    3.322750e-06
  1.147629e-01    3.304380e-06
  1.150618e-01    3.287144e-06
  1.153607e-01    3.300509e-06
  1.156597e-01    3.292714e-06
  1.159586e-01    3.264668e-06
  1.162575e-01    3.271770e-06
  1.165564e-01    3.262741e-06
  1.168554e-01    3.238512e-06
  1.171543e-01    3.262941e-06
  1.174532e-01    3.293986e-06
  1.177522e-01    3.285870e-06
  1.180511e-01    3.276081e-06
  1.183500e-01    3.294952e-06
  1.186490e-01    3.267696e-06
  1.189479e-01    3.245400e-06
  1.192468e-01    3.261881e-06
  1.195458e-01    3.246280e-06
  1.198447e-01    3.234242e-06
  1.201436e-01    3.205981e-06
  1.204425e-01    3.222019e-06
  1.207415e-01    3.178309e-06
  1.210404e-01    2.927188e-06
  1.213393e-01    0.000000e+00
  1.216383e-01    0.000000e+00
  1.219372e-01    0.000000e+00
  1.222361e-01    0.000000e+00
  1.225351e-01    0.000000e+00
  1.228340e-01    0.000000e+00
  1.231329e-01    0.000000e+00
  1.234318e-01    0.000000e+00
  1.237308e-01    0.000000e+00
  1.240297e-01    0.000000e+00
  1.243286e-01    0.000000e+00
  1.246276e-01    0.000000e+00
  1.249265e-01    0.000000e+00
  1.252254e-01    0.000000e+00
  1.255244e-01    0.000000e+00
  1.258233e-01    0.000000e+00
  1.261222e-01    0.000000e+00
  1.264212e-01    0.000000e+00
  1.267201e-01    0.000000e+00
  1.270190e-01    0.000000e+00
  1.273179e-01    0.000000e+00
  1.276169e-01    0.000000e+00
  1.279158e-01    0.000000e+00
  1.282147e-01    0.000000e+00
  1.285137e-01    0.000000e+00
  1.288126e-01    0.000000e+00
  1.291115e-01    0.000000e+00
  1.294105e-01    0.000000e+00
  1.297094e-01    0.000000e+00
  1.300083e-01    0.000000e+00
  1.303072e-01    0.000000e+00
  1.306062e-01    0.000000e+00
  1.309051e-01    0.000000e+00
  1.312040e-01    0.000000e+00
  1.315030e-01    0.000000e+00
  1.318019e-01    0.000000e+00
  1.321008e-01    0.000000e+00
  1.323998e-01    0.000000e+00
  1.326987e-01    0.000000e+00
  1.329976e-01    0.000000e+00
  1.332965e-01    0.000000e+00
  1.335955e-01    0.000000e+00
  1.338944e-01    0.000000e+00
  1.341933e-01    0.000000e+00
  1.344923e-01    0.000000e+00
  1.347912e-01    0.000000e+00
  1.350901e-01    0.000000e+00
  1.353891e-01    0.000000e+00
  1.356880e-01    0.000000e+00
  1.359869e-01    0.000000e+00
  1.362859e-01    0.000000e+00
  1.365848e-01    0.000000e+00
  1.368837e-01    0.000000e+00
  1.371826e-01    0.000000e+00
  1.374816e-01    0.000000e+00
  1.377805e-01    0.000000e+00
  1.380794e-01    0.000000e+00
  1.383784e-01    0.000000e+00
  1.386773e-01    0.000000e+00
  1.389762e-01    0.000000e+00
  1.392752e-01    0.000000e+00
  1.395741e-01    0.000000e+00
  1.398730e-01    0.000000e+00
  1.401719e-01    0.000000e+00
  1.404709e-01    0.000000e+00
  1.407698e-01    0.000000e+00
  1.410687e-01    0.000000e+00
  1.413677e-01    0.000000e+00
  1.416666e-01    0.000000e+00
  1.419655e-01    0.000000e+00
  1.422645e-01    0.000000e+00
  1.425634e-01    0.000000e+00
  1.428623e-01    0.000000e+00
  1.431613e-01    0.000000e+00
  1.434602e-01    0.000000e+00
  1.437591e-01    0.000000e+00
  1.440580e-01    0.000000e+00
  1.443570e-01    0.000000e+00
  1.446559e-01    0.000000e+00
  1.449548e-01    0.000000e+00
  1.452538e-01    0.000000e+00
  1.455527e-01    0.000000e+00
  1.458516e-01    0.000000e+00
  1.461506e-01    0.000000e+00
  1.464495e-01    0.000000e+00
  1.467484e-01    0.000000e+00
  1.470473e-01    0.000000e+00
  1.473463e-01    0.000000e+00
  1.476452e-01    0.000000e+00
  1.479441e-01    0.000000e+00
  1.482431e-01    0.000000e+00
  1.485420e-01    0.000000e+00
  1.488409e-01    0.000000e+00
  1.491399e-01    0.000000e+00
  1.494388e-01    0.000000e+00
  1.497377e-01    0.000000e+00
  1.500367e-01    0.000000e+00
  1.503356e-01    0.000000e+00
  1.506345e-01    0.000000e+00
  1.509334e-01    0.000000e+00
  1.512324e-01    0.000000e+00
  1.515313e-01    0.000000e+00
  1.518302e-01    0.000000e+00
  1.521292e-01    0.000000e+00
  1.524281e-01    0.000000e+00
  1.527270e-01    0.000000e+00
  1.530260e-01    0.000000e+00
  1.533249e-01    0.000000e+00
  1.536238e-01    0.000000e+00
