# == pyFAI calibration ==
# Distance Sample to Detector: 2.266 m
# PONI: 5.659e-02, 4.293e-02 m
# Rotations: 0.000000 0.000000 0.000000 rad
# 
# == Fit2d calibration ==
# Distance Sample-beamCenter: 2266.000 mm
# Center: x=249.594, y=329.012 pix
# Tilt: 0.000 deg  TiltPlanRot: 0.000 deg
# 
# Detector Pilatus 300k	 PixelSize= 1.720e-04, 1.720e-04 m
#    Detector has a mask: True 
#    Detector has a dark current: False 
#    detector has a flat field: False 
# 
# Wavelength: 1.27818e-10 m
# Mask applied: user provided
# Dark current applied: False
# Flat field applied: False
# Polarization factor: None
# Normalization factor: 12720169.200000001
# --> MT-F127_81.042_hexanes_3.473_EtOH_70.058_NaCl_98.048mgml_1_r1d.csv
#        q_A^-1             I 
  4.457554e-03    2.086216e-03
  4.756484e-03    1.633010e-03
  5.055415e-03    1.151909e-03
  5.354345e-03    7.944148e-04
  5.653276e-03    6.043070e-04
  5.952206e-03    9.675227e-04
  6.251136e-03    8.816083e-04
  6.550067e-03    7.652707e-04
  6.848997e-03    6.503388e-04
  7.147927e-03    5.491847e-04
  7.446858e-03    4.681516e-04
  7.745788e-03    4.008333e-04
  8.044719e-03    3.449544e-04
  8.343649e-03    3.007219e-04
  8.642579e-03    2.629701e-04
  8.941510e-03    2.317737e-04
  9.240440e-03    2.047542e-04
  9.539371e-03    1.815658e-04
  9.838301e-03    1.615000e-04
  1.013723e-02    1.448154e-04
  1.043616e-02    1.304570e-04
  1.073509e-02    1.171094e-04
  1.103402e-02    1.059456e-04
  1.133295e-02    9.617102e-05
  1.163188e-02    8.771370e-05
  1.193081e-02    7.990743e-05
  1.222974e-02    7.297884e-05
  1.252867e-02    6.704504e-05
  1.282760e-02    6.176768e-05
  1.312654e-02    5.699730e-05
  1.342547e-02    5.265363e-05
  1.372440e-02    4.872312e-05
  1.402333e-02    4.537727e-05
  1.432226e-02    4.220487e-05
  1.462119e-02    3.944634e-05
  1.492012e-02    3.677547e-05
  1.521905e-02    3.446605e-05
  1.551798e-02    3.230941e-05
  1.581691e-02    3.027943e-05
  1.611584e-02    2.859568e-05
  1.641477e-02    2.710906e-05
  1.671370e-02    2.544327e-05
  1.701263e-02    2.401711e-05
  1.731156e-02    2.289129e-05
  1.761049e-02    2.185036e-05
  1.790942e-02    2.067103e-05
  1.820835e-02    1.974378e-05
  1.850728e-02    1.891045e-05
  1.880621e-02    1.801396e-05
  1.910514e-02    1.723113e-05
  1.940407e-02    1.652582e-05
  1.970300e-02    1.593953e-05
  2.000193e-02    1.536781e-05
  2.030086e-02    1.477813e-05
  2.059979e-02    1.424338e-05
  2.089873e-02    1.372684e-05
  2.119766e-02    1.331484e-05
  2.149659e-02    1.287840e-05
  2.179552e-02    1.241551e-05
  2.209445e-02    1.205493e-05
  2.239338e-02    1.173894e-05
  2.269231e-02    1.145187e-05
  2.299124e-02    1.117588e-05
  2.329017e-02    1.087509e-05
  2.358910e-02    1.060260e-05
  2.388803e-02    1.036405e-05
  2.418696e-02    1.010837e-05
  2.448589e-02    9.854842e-06
  2.478482e-02    9.598574e-06
  2.508375e-02    9.417123e-06
  2.538268e-02    9.265876e-06
  2.568161e-02    9.123255e-06
  2.598054e-02    8.975978e-06
  2.627947e-02    8.816154e-06
  2.657840e-02    8.700104e-06
  2.687733e-02    8.554106e-06
  2.717626e-02    8.417226e-06
  2.747519e-02    8.286611e-06
  2.777412e-02    8.180458e-06
  2.807305e-02    8.063663e-06
  2.837198e-02    7.924175e-06
  2.867092e-02    7.835952e-06
  2.896985e-02    7.779174e-06
  2.926878e-02    7.713939e-06
  2.956771e-02    7.655276e-06
  2.986664e-02    7.574778e-06
  3.016557e-02    7.451703e-06
  3.046450e-02    7.369470e-06
  3.076343e-02    7.317819e-06
  3.106236e-02    7.212509e-06
  3.136129e-02    7.140707e-06
  3.166022e-02    7.075207e-06
  3.195915e-02    7.040621e-06
  3.225808e-02    6.992263e-06
  3.255701e-02    6.905496e-06
  3.285594e-02    6.867595e-06
  3.315487e-02    6.765420e-06
  3.345380e-02    6.689436e-06
  3.375273e-02    6.635884e-06
  3.405166e-02    6.531979e-06
  3.435059e-02    6.487507e-06
  3.464952e-02    6.473303e-06
  3.494845e-02    6.420168e-06
  3.524738e-02    6.368612e-06
  3.554631e-02    6.341346e-06
  3.584524e-02    6.230699e-06
  3.614417e-02    6.133436e-06
  3.644310e-02    6.123173e-06
  3.674204e-02    6.080243e-06
  3.704097e-02    6.044390e-06
  3.733990e-02    6.010007e-06
  3.763883e-02    5.974166e-06
  3.793776e-02    5.921623e-06
  3.823669e-02    5.873567e-06
  3.853562e-02    5.822917e-06
  3.883455e-02    5.775242e-06
  3.913348e-02    5.737911e-06
  3.943241e-02    5.722944e-06
  3.973134e-02    5.694174e-06
  4.003027e-02    5.655204e-06
  4.032920e-02    5.631422e-06
  4.062813e-02    5.610925e-06
  4.092706e-02    5.587371e-06
  4.122599e-02    5.593585e-06
  4.152492e-02    5.543576e-06
  4.182385e-02    5.522299e-06
  4.212278e-02    5.523614e-06
  4.242171e-02    5.502986e-06
  4.272064e-02    5.492046e-06
  4.301957e-02    5.451336e-06
  4.331850e-02    5.429228e-06
  4.361743e-02    5.446371e-06
  4.391636e-02    5.418233e-06
  4.421529e-02    5.386649e-06
  4.451423e-02    5.389632e-06
  4.481316e-02    5.385405e-06
  4.511209e-02    5.372191e-06
  4.541102e-02    5.347174e-06
  4.570995e-02    5.359897e-06
  4.600888e-02    5.364675e-06
  4.630781e-02    5.366065e-06
  4.660674e-02    5.357212e-06
  4.690567e-02    5.382074e-06
  4.720460e-02    5.350601e-06
  4.750353e-02    5.326350e-06
  4.780246e-02    5.323147e-06
  4.810139e-02    5.362134e-06
  4.840032e-02    5.358326e-06
  4.869925e-02    5.325898e-06
  4.899818e-02    5.316063e-06
  4.929711e-02    5.304071e-06
  4.959604e-02    5.318461e-06
  4.989497e-02    5.331861e-06
  5.019390e-02    5.304543e-06
  5.049283e-02    5.313716e-06
  5.079176e-02    5.346270e-06
  5.109069e-02    5.334327e-06
  5.138962e-02    5.381446e-06
  5.168855e-02    5.489824e-06
  5.198748e-02    5.577341e-06
  5.228642e-02    5.539973e-06
  5.258535e-02    5.374423e-06
  5.288428e-02    5.286471e-06
  5.318321e-02    5.286599e-06
  5.348214e-02    5.301011e-06
  5.378107e-02    5.292918e-06
  5.408000e-02    5.304518e-06
  5.437893e-02    5.297469e-06
  5.467786e-02    5.291790e-06
  5.497679e-02    5.289559e-06
  5.527572e-02    5.324215e-06
  5.557465e-02    5.352646e-06
  5.587358e-02    5.332635e-06
  5.617251e-02    5.317065e-06
  5.647144e-02    5.334436e-06
  5.677037e-02    5.327646e-06
  5.706930e-02    5.318900e-06
  5.736823e-02    5.337691e-06
  5.766716e-02    5.328372e-06
  5.796609e-02    5.338094e-06
  5.826502e-02    5.335758e-06
  5.856395e-02    5.332938e-06
  5.886288e-02    5.390484e-06
  5.916181e-02    5.413692e-06
  5.946074e-02    5.410307e-06
  5.975967e-02    5.413403e-06
  6.005861e-02    5.423344e-06
  6.035754e-02    5.442103e-06
  6.065647e-02    5.473421e-06
  6.095540e-02    5.524379e-06
  6.125433e-02    5.552767e-06
  6.155326e-02    5.571264e-06
  6.185219e-02    5.518328e-06
  6.215112e-02    5.480692e-06
  6.245005e-02    5.477204e-06
  6.274898e-02    5.462216e-06
  6.304791e-02    5.469138e-06
  6.334684e-02    5.512114e-06
  6.364577e-02    5.498633e-06
  6.394470e-02    5.466723e-06
  6.424363e-02    5.519797e-06
  6.454256e-02    5.528651e-06
  6.484149e-02    5.530394e-06
  6.514042e-02    5.543551e-06
  6.543935e-02    5.557176e-06
  6.573828e-02    5.559974e-06
  6.603721e-02    5.556397e-06
  6.633614e-02    5.552913e-06
  6.663507e-02    5.576790e-06
  6.693400e-02    5.547895e-06
  6.723293e-02    5.550749e-06
  6.753186e-02    5.564929e-06
  6.783080e-02    5.597859e-06
  6.812973e-02    5.610476e-06
  6.842866e-02    5.609955e-06
  6.872759e-02    5.614777e-06
  6.902652e-02    5.605701e-06
  6.932545e-02    5.602267e-06
  6.962438e-02    5.642950e-06
  6.992331e-02    5.669030e-06
  7.022224e-02    5.681803e-06
  7.052117e-02    5.692168e-06
  7.082010e-02    5.671834e-06
  7.111903e-02    5.681771e-06
  7.141796e-02    5.663064e-06
  7.171689e-02    5.661032e-06
  7.201582e-02    5.673640e-06
  7.231475e-02    5.692356e-06
  7.261368e-02    5.701806e-06
  7.291261e-02    5.687370e-06
  7.321154e-02    5.710030e-06
  7.351047e-02    5.714457e-06
  7.380940e-02    5.697011e-06
  7.410833e-02    5.711852e-06
  7.440726e-02    5.700251e-06
  7.470619e-02    5.699777e-06
  7.500512e-02    5.715411e-06
  7.530405e-02    5.715097e-06
  7.560299e-02    5.715274e-06
  7.590192e-02    5.719072e-06
  7.620085e-02    5.721205e-06
  7.649978e-02    5.705851e-06
  7.679871e-02    5.683201e-06
  7.709764e-02    5.699020e-06
  7.739657e-02    5.706308e-06
  7.769550e-02    5.690366e-06
  7.799443e-02    5.671007e-06
  7.829336e-02    5.684478e-06
  7.859229e-02    5.705980e-06
  7.889122e-02    5.682938e-06
  7.919015e-02    5.695244e-06
  7.948908e-02    5.689518e-06
  7.978801e-02    5.686777e-06
  8.008694e-02    5.675698e-06
  8.038587e-02    5.674927e-06
  8.068480e-02    5.664256e-06
  8.098373e-02    5.641884e-06
  8.128266e-02    5.672194e-06
  8.158159e-02    5.643611e-06
  8.188052e-02    5.635779e-06
  8.217945e-02    5.648994e-06
  8.247838e-02    5.599756e-06
  8.277731e-02    5.576970e-06
  8.307624e-02    5.602352e-06
  8.337518e-02    5.609116e-06
  8.367411e-02    5.603254e-06
  8.397304e-02    5.606996e-06
  8.427197e-02    5.583456e-06
  8.457090e-02    5.570923e-06
  8.486983e-02    5.574334e-06
  8.516876e-02    5.562330e-06
  8.546769e-02    5.534495e-06
  8.576662e-02    5.529513e-06
  8.606555e-02    5.537409e-06
  8.636448e-02    5.509328e-06
  8.666341e-02    5.504012e-06
  8.696234e-02    5.506954e-06
  8.726127e-02    5.503623e-06
  8.756020e-02    5.492639e-06
  8.785913e-02    5.478247e-06
  8.815806e-02    5.502634e-06
  8.845699e-02    5.464015e-06
  8.875592e-02    5.434718e-06
  8.905485e-02    5.413579e-06
  8.935378e-02    5.406962e-06
  8.965271e-02    5.409765e-06
  8.995164e-02    5.412131e-06
  9.025057e-02    5.398441e-06
  9.054950e-02    5.356332e-06
  9.084843e-02    5.354525e-06
  9.114737e-02    5.371869e-06
  9.144630e-02    5.387674e-06
  9.174523e-02    5.371818e-06
  9.204416e-02    5.334271e-06
  9.234309e-02    5.324888e-06
  9.264202e-02    5.334427e-06
  9.294095e-02    5.305455e-06
  9.323988e-02    5.320474e-06
  9.353881e-02    5.309871e-06
  9.383774e-02    5.278719e-06
  9.413667e-02    5.261613e-06
  9.443560e-02    5.271854e-06
  9.473453e-02    5.260388e-06
  9.503346e-02    5.242084e-06
  9.533239e-02    5.244469e-06
  9.563132e-02    5.235361e-06
  9.593025e-02    5.246850e-06
  9.622918e-02    5.263984e-06
  9.652811e-02    5.266357e-06
  9.682704e-02    5.268068e-06
  9.712597e-02    5.251331e-06
  9.742490e-02    5.248116e-06
  9.772383e-02    5.225572e-06
  9.802276e-02    5.174201e-06
  9.832169e-02    5.131357e-06
  9.862062e-02    5.122155e-06
  9.891956e-02    5.106336e-06
  9.921849e-02    5.107002e-06
  9.951742e-02    5.113890e-06
  9.981635e-02    5.086483e-06
  1.001153e-01    5.076918e-06
  1.004142e-01    5.065628e-06
  1.007131e-01    5.030746e-06
  1.010121e-01    5.014454e-06
  1.013110e-01    5.023056e-06
  1.016099e-01    5.021223e-06
  1.019089e-01    5.003993e-06
  1.022078e-01    4.984928e-06
  1.025067e-01    4.988211e-06
  1.028057e-01    4.981279e-06
  1.031046e-01    4.979499e-06
  1.034035e-01    4.980453e-06
  1.037024e-01    4.967465e-06
  1.040014e-01    4.952428e-06
  1.043003e-01    4.940737e-06
  1.045992e-01    4.921128e-06
  1.048982e-01    4.927543e-06
  1.051971e-01    4.914133e-06
  1.054960e-01    4.881814e-06
  1.057950e-01    4.878862e-06
  1.060939e-01    4.870327e-06
  1.063928e-01    4.860018e-06
  1.066917e-01    4.851995e-06
  1.069907e-01    4.862696e-06
  1.072896e-01    4.850659e-06
  1.075885e-01    4.838304e-06
  1.078875e-01    4.811390e-06
  1.081864e-01    4.801941e-06
  1.084853e-01    4.830472e-06
  1.087843e-01    4.847435e-06
  1.090832e-01    4.855980e-06
  1.093821e-01    4.812795e-06
  1.096810e-01    4.789455e-06
  1.099800e-01    4.789791e-06
  1.102789e-01    4.753086e-06
  1.105778e-01    4.707025e-06
  1.108768e-01    4.695860e-06
  1.111757e-01    4.699191e-06
  1.114746e-01    4.703255e-06
  1.117736e-01    4.680123e-06
  1.120725e-01    4.663570e-06
  1.123714e-01    4.688965e-06
  1.126704e-01    4.660551e-06
  1.129693e-01    4.625294e-06
  1.132682e-01    4.599045e-06
  1.135671e-01    4.562472e-06
  1.138661e-01    4.616442e-06
  1.141650e-01    4.628877e-06
  1.144639e-01    4.624961e-06
  1.147629e-01    4.577447e-06
  1.150618e-01    4.586112e-06
  1.153607e-01    4.596779e-06
  1.156597e-01    4.576776e-06
  1.159586e-01    4.521438e-06
  1.162575e-01    4.481139e-06
  1.165564e-01    4.485254e-06
  1.168554e-01    4.488896e-06
  1.171543e-01    4.530518e-06
  1.174532e-01    4.528313e-06
  1.177522e-01    4.525006e-06
  1.180511e-01    4.491011e-06
  1.183500e-01    4.468206e-06
  1.186490e-01    4.488935e-06
  1.189479e-01    4.523617e-06
  1.192468e-01    4.464688e-06
  1.195458e-01    4.416337e-06
  1.198447e-01    4.344859e-06
  1.201436e-01    4.356366e-06
  1.204425e-01    4.441798e-06
  1.207415e-01    4.170646e-06
  1.210404e-01    2.990088e-06
  1.213393e-01    0.000000e+00
  1.216383e-01    0.000000e+00
  1.219372e-01    0.000000e+00
  1.222361e-01    0.000000e+00
  1.225351e-01    0.000000e+00
  1.228340e-01    0.000000e+00
  1.231329e-01    0.000000e+00
  1.234318e-01    0.000000e+00
  1.237308e-01    0.000000e+00
  1.240297e-01    0.000000e+00
  1.243286e-01    0.000000e+00
  1.246276e-01    0.000000e+00
  1.249265e-01    0.000000e+00
  1.252254e-01    0.000000e+00
  1.255244e-01    0.000000e+00
  1.258233e-01    0.000000e+00
  1.261222e-01    0.000000e+00
  1.264212e-01    0.000000e+00
  1.267201e-01    0.000000e+00
  1.270190e-01    0.000000e+00
  1.273179e-01    0.000000e+00
  1.276169e-01    0.000000e+00
  1.279158e-01    0.000000e+00
  1.282147e-01    0.000000e+00
  1.285137e-01    0.000000e+00
  1.288126e-01    0.000000e+00
  1.291115e-01    0.000000e+00
  1.294105e-01    0.000000e+00
  1.297094e-01    0.000000e+00
  1.300083e-01    0.000000e+00
  1.303072e-01    0.000000e+00
  1.306062e-01    0.000000e+00
  1.309051e-01    0.000000e+00
  1.312040e-01    0.000000e+00
  1.315030e-01    0.000000e+00
  1.318019e-01    0.000000e+00
  1.321008e-01    0.000000e+00
  1.323998e-01    0.000000e+00
  1.326987e-01    0.000000e+00
  1.329976e-01    0.000000e+00
  1.332965e-01    0.000000e+00
  1.335955e-01    0.000000e+00
  1.338944e-01    0.000000e+00
  1.341933e-01    0.000000e+00
  1.344923e-01    0.000000e+00
  1.347912e-01    0.000000e+00
  1.350901e-01    0.000000e+00
  1.353891e-01    0.000000e+00
  1.356880e-01    0.000000e+00
  1.359869e-01    0.000000e+00
  1.362859e-01    0.000000e+00
  1.365848e-01    0.000000e+00
  1.368837e-01    0.000000e+00
  1.371826e-01    0.000000e+00
  1.374816e-01    0.000000e+00
  1.377805e-01    0.000000e+00
  1.380794e-01    0.000000e+00
  1.383784e-01    0.000000e+00
  1.386773e-01    0.000000e+00
  1.389762e-01    0.000000e+00
  1.392752e-01    0.000000e+00
  1.395741e-01    0.000000e+00
  1.398730e-01    0.000000e+00
  1.401719e-01    0.000000e+00
  1.404709e-01    0.000000e+00
  1.407698e-01    0.000000e+00
  1.410687e-01    0.000000e+00
  1.413677e-01    0.000000e+00
  1.416666e-01    0.000000e+00
  1.419655e-01    0.000000e+00
  1.422645e-01    0.000000e+00
  1.425634e-01    0.000000e+00
  1.428623e-01    0.000000e+00
  1.431613e-01    0.000000e+00
  1.434602e-01    0.000000e+00
  1.437591e-01    0.000000e+00
  1.440580e-01    0.000000e+00
  1.443570e-01    0.000000e+00
  1.446559e-01    0.000000e+00
  1.449548e-01    0.000000e+00
  1.452538e-01    0.000000e+00
  1.455527e-01    0.000000e+00
  1.458516e-01    0.000000e+00
  1.461506e-01    0.000000e+00
  1.464495e-01    0.000000e+00
  1.467484e-01    0.000000e+00
  1.470473e-01    0.000000e+00
  1.473463e-01    0.000000e+00
  1.476452e-01    0.000000e+00
  1.479441e-01    0.000000e+00
  1.482431e-01    0.000000e+00
  1.485420e-01    0.000000e+00
  1.488409e-01    0.000000e+00
  1.491399e-01    0.000000e+00
  1.494388e-01    0.000000e+00
  1.497377e-01    0.000000e+00
  1.500367e-01    0.000000e+00
  1.503356e-01    0.000000e+00
  1.506345e-01    0.000000e+00
  1.509334e-01    0.000000e+00
  1.512324e-01    0.000000e+00
  1.515313e-01    0.000000e+00
  1.518302e-01    0.000000e+00
  1.521292e-01    0.000000e+00
  1.524281e-01    0.000000e+00
  1.527270e-01    0.000000e+00
  1.530260e-01    0.000000e+00
  1.533249e-01    0.000000e+00
  1.536238e-01    0.000000e+00
