# == pyFAI calibration ==
# Distance Sample to Detector: 2.266 m
# PONI: 5.659e-02, 4.293e-02 m
# Rotations: 0.000000 0.000000 0.000000 rad
# 
# == Fit2d calibration ==
# Distance Sample-beamCenter: 2266.000 mm
# Center: x=249.594, y=329.012 pix
# Tilt: 0.000 deg  TiltPlanRot: 0.000 deg
# 
# Detector Pilatus 300k	 PixelSize= 1.720e-04, 1.720e-04 m
#    Detector has a mask: True 
#    Detector has a dark current: False 
#    detector has a flat field: False 
# 
# Wavelength: 1.27818e-10 m
# Mask applied: user provided
# Dark current applied: False
# Flat field applied: False
# Polarization factor: None
# Normalization factor: 10585368.0
# --> MT-F127_80.220_NaCl_136.374_limonene_224.616mgml_2_r1d.csv
#        q_A^-1             I 
  4.457554e-03    1.980462e-03
  4.756484e-03    1.538672e-03
  5.055415e-03    1.084466e-03
  5.354345e-03    7.518732e-04
  5.653276e-03    5.718995e-04
  5.952206e-03    9.153603e-04
  6.251136e-03    8.346091e-04
  6.550067e-03    7.258269e-04
  6.848997e-03    6.184601e-04
  7.147927e-03    5.223899e-04
  7.446858e-03    4.461877e-04
  7.745788e-03    3.819021e-04
  8.044719e-03    3.286306e-04
  8.343649e-03    2.865575e-04
  8.642579e-03    2.508567e-04
  8.941510e-03    2.204199e-04
  9.240440e-03    1.947353e-04
  9.539371e-03    1.726452e-04
  9.838301e-03    1.534689e-04
  1.013723e-02    1.372569e-04
  1.043616e-02    1.237114e-04
  1.073509e-02    1.114320e-04
  1.103402e-02    1.007786e-04
  1.133295e-02    9.157429e-05
  1.163188e-02    8.341245e-05
  1.193081e-02    7.603544e-05
  1.222974e-02    6.931091e-05
  1.252867e-02    6.358833e-05
  1.282760e-02    5.875930e-05
  1.312654e-02    5.420684e-05
  1.342547e-02    5.011510e-05
  1.372440e-02    4.665683e-05
  1.402333e-02    4.338668e-05
  1.432226e-02    4.015300e-05
  1.462119e-02    3.742324e-05
  1.492012e-02    3.496821e-05
  1.521905e-02    3.272386e-05
  1.551798e-02    3.079948e-05
  1.581691e-02    2.893600e-05
  1.611584e-02    2.734132e-05
  1.641477e-02    2.579594e-05
  1.671370e-02    2.438318e-05
  1.701263e-02    2.311265e-05
  1.731156e-02    2.197687e-05
  1.761049e-02    2.082718e-05
  1.790942e-02    1.982524e-05
  1.820835e-02    1.891445e-05
  1.850728e-02    1.801971e-05
  1.880621e-02    1.715583e-05
  1.910514e-02    1.647569e-05
  1.940407e-02    1.586018e-05
  1.970300e-02    1.520050e-05
  2.000193e-02    1.458237e-05
  2.030086e-02    1.401544e-05
  2.059979e-02    1.355515e-05
  2.089873e-02    1.309145e-05
  2.119766e-02    1.259857e-05
  2.149659e-02    1.220131e-05
  2.179552e-02    1.177602e-05
  2.209445e-02    1.142962e-05
  2.239338e-02    1.107287e-05
  2.269231e-02    1.079227e-05
  2.299124e-02    1.056300e-05
  2.329017e-02    1.023435e-05
  2.358910e-02    9.973504e-06
  2.388803e-02    9.746730e-06
  2.418696e-02    9.560976e-06
  2.448589e-02    9.334830e-06
  2.478482e-02    9.147424e-06
  2.508375e-02    8.970029e-06
  2.538268e-02    8.767975e-06
  2.568161e-02    8.615500e-06
  2.598054e-02    8.486249e-06
  2.627947e-02    8.316177e-06
  2.657840e-02    8.188532e-06
  2.687733e-02    8.039247e-06
  2.717626e-02    7.954873e-06
  2.747519e-02    7.844223e-06
  2.777412e-02    7.743647e-06
  2.807305e-02    7.571829e-06
  2.837198e-02    7.478627e-06
  2.867092e-02    7.440949e-06
  2.896985e-02    7.323218e-06
  2.926878e-02    7.244509e-06
  2.956771e-02    7.171398e-06
  2.986664e-02    7.088342e-06
  3.016557e-02    6.961664e-06
  3.046450e-02    6.868112e-06
  3.076343e-02    6.847081e-06
  3.106236e-02    6.815233e-06
  3.136129e-02    6.728236e-06
  3.166022e-02    6.676241e-06
  3.195915e-02    6.621057e-06
  3.225808e-02    6.542033e-06
  3.255701e-02    6.490347e-06
  3.285594e-02    6.398477e-06
  3.315487e-02    6.343638e-06
  3.345380e-02    6.266844e-06
  3.375273e-02    6.199481e-06
  3.405166e-02    6.173364e-06
  3.435059e-02    6.134204e-06
  3.464952e-02    6.059142e-06
  3.494845e-02    6.025372e-06
  3.524738e-02    5.961945e-06
  3.554631e-02    5.904406e-06
  3.584524e-02    5.824098e-06
  3.614417e-02    5.751440e-06
  3.644310e-02    5.695209e-06
  3.674204e-02    5.682143e-06
  3.704097e-02    5.616075e-06
  3.733990e-02    5.586432e-06
  3.763883e-02    5.542432e-06
  3.793776e-02    5.544406e-06
  3.823669e-02    5.495178e-06
  3.853562e-02    5.438225e-06
  3.883455e-02    5.410400e-06
  3.913348e-02    5.399949e-06
  3.943241e-02    5.338054e-06
  3.973134e-02    5.322587e-06
  4.003027e-02    5.297346e-06
  4.032920e-02    5.218562e-06
  4.062813e-02    5.258238e-06
  4.092706e-02    5.239403e-06
  4.122599e-02    5.151923e-06
  4.152492e-02    5.113598e-06
  4.182385e-02    5.114009e-06
  4.212278e-02    5.095038e-06
  4.242171e-02    5.094294e-06
  4.272064e-02    5.069889e-06
  4.301957e-02    5.071374e-06
  4.331850e-02    5.041536e-06
  4.361743e-02    5.053356e-06
  4.391636e-02    5.021298e-06
  4.421529e-02    5.004874e-06
  4.451423e-02    5.023840e-06
  4.481316e-02    5.008028e-06
  4.511209e-02    5.000213e-06
  4.541102e-02    5.008161e-06
  4.570995e-02    4.968395e-06
  4.600888e-02    4.956622e-06
  4.630781e-02    4.971932e-06
  4.660674e-02    4.964251e-06
  4.690567e-02    4.950710e-06
  4.720460e-02    4.939577e-06
  4.750353e-02    4.944793e-06
  4.780246e-02    4.963494e-06
  4.810139e-02    4.955712e-06
  4.840032e-02    4.925261e-06
  4.869925e-02    4.912810e-06
  4.899818e-02    4.946368e-06
  4.929711e-02    4.960190e-06
  4.959604e-02    4.947667e-06
  4.989497e-02    4.922048e-06
  5.019390e-02    4.909285e-06
  5.049283e-02    4.968266e-06
  5.079176e-02    4.944550e-06
  5.109069e-02    4.953203e-06
  5.138962e-02    5.015054e-06
  5.168855e-02    5.111666e-06
  5.198748e-02    5.159644e-06
  5.228642e-02    5.124694e-06
  5.258535e-02    4.949779e-06
  5.288428e-02    4.886607e-06
  5.318321e-02    4.870016e-06
  5.348214e-02    4.867431e-06
  5.378107e-02    4.883260e-06
  5.408000e-02    4.899880e-06
  5.437893e-02    4.866968e-06
  5.467786e-02    4.858631e-06
  5.497679e-02    4.883116e-06
  5.527572e-02    4.894306e-06
  5.557465e-02    4.893555e-06
  5.587358e-02    4.885489e-06
  5.617251e-02    4.913962e-06
  5.647144e-02    4.944869e-06
  5.677037e-02    4.910085e-06
  5.706930e-02    4.912239e-06
  5.736823e-02    4.933417e-06
  5.766716e-02    4.951097e-06
  5.796609e-02    4.962895e-06
  5.826502e-02    4.957410e-06
  5.856395e-02    4.992822e-06
  5.886288e-02    4.972115e-06
  5.916181e-02    4.934787e-06
  5.946074e-02    4.963670e-06
  5.975967e-02    5.000681e-06
  6.005861e-02    4.985796e-06
  6.035754e-02    4.996512e-06
  6.065647e-02    4.997244e-06
  6.095540e-02    5.027837e-06
  6.125433e-02    5.093916e-06
  6.155326e-02    5.108252e-06
  6.185219e-02    5.070975e-06
  6.215112e-02    5.039141e-06
  6.245005e-02    5.045515e-06
  6.274898e-02    5.074428e-06
  6.304791e-02    5.073180e-06
  6.334684e-02    5.062944e-06
  6.364577e-02    5.081021e-06
  6.394470e-02    5.074038e-06
  6.424363e-02    5.078496e-06
  6.454256e-02    5.085983e-06
  6.484149e-02    5.089441e-06
  6.514042e-02    5.091003e-06
  6.543935e-02    5.119840e-06
  6.573828e-02    5.122340e-06
  6.603721e-02    5.128767e-06
  6.633614e-02    5.140887e-06
  6.663507e-02    5.160115e-06
  6.693400e-02    5.184085e-06
  6.723293e-02    5.198716e-06
  6.753186e-02    5.188179e-06
  6.783080e-02    5.173280e-06
  6.812973e-02    5.176296e-06
  6.842866e-02    5.197243e-06
  6.872759e-02    5.217044e-06
  6.902652e-02    5.217983e-06
  6.932545e-02    5.197566e-06
  6.962438e-02    5.202696e-06
  6.992331e-02    5.241316e-06
  7.022224e-02    5.266617e-06
  7.052117e-02    5.238710e-06
  7.082010e-02    5.242187e-06
  7.111903e-02    5.231001e-06
  7.141796e-02    5.253331e-06
  7.171689e-02    5.272167e-06
  7.201582e-02    5.302350e-06
  7.231475e-02    5.314447e-06
  7.261368e-02    5.290437e-06
  7.291261e-02    5.291770e-06
  7.321154e-02    5.303174e-06
  7.351047e-02    5.293682e-06
  7.380940e-02    5.291642e-06
  7.410833e-02    5.331181e-06
  7.440726e-02    5.330051e-06
  7.470619e-02    5.322061e-06
  7.500512e-02    5.324836e-06
  7.530405e-02    5.325126e-06
  7.560299e-02    5.331655e-06
  7.590192e-02    5.327326e-06
  7.620085e-02    5.313128e-06
  7.649978e-02    5.329331e-06
  7.679871e-02    5.338070e-06
  7.709764e-02    5.340222e-06
  7.739657e-02    5.346648e-06
  7.769550e-02    5.316038e-06
  7.799443e-02    5.330021e-06
  7.829336e-02    5.347826e-06
  7.859229e-02    5.311953e-06
  7.889122e-02    5.291255e-06
  7.919015e-02    5.323648e-06
  7.948908e-02    5.330525e-06
  7.978801e-02    5.323710e-06
  8.008694e-02    5.320998e-06
  8.038587e-02    5.282601e-06
  8.068480e-02    5.268413e-06
  8.098373e-02    5.285792e-06
  8.128266e-02    5.312500e-06
  8.158159e-02    5.332561e-06
  8.188052e-02    5.293295e-06
  8.217945e-02    5.267309e-06
  8.247838e-02    5.269888e-06
  8.277731e-02    5.270857e-06
  8.307624e-02    5.263386e-06
  8.337518e-02    5.266279e-06
  8.367411e-02    5.251958e-06
  8.397304e-02    5.257395e-06
  8.427197e-02    5.235874e-06
  8.457090e-02    5.201714e-06
  8.486983e-02    5.215245e-06
  8.516876e-02    5.207045e-06
  8.546769e-02    5.188175e-06
  8.576662e-02    5.164002e-06
  8.606555e-02    5.170234e-06
  8.636448e-02    5.176202e-06
  8.666341e-02    5.154920e-06
  8.696234e-02    5.138345e-06
  8.726127e-02    5.128391e-06
  8.756020e-02    5.093026e-06
  8.785913e-02    5.108669e-06
  8.815806e-02    5.117111e-06
  8.845699e-02    5.077125e-06
  8.875592e-02    5.084350e-06
  8.905485e-02    5.099418e-06
  8.935378e-02    5.090623e-06
  8.965271e-02    5.054156e-06
  8.995164e-02    5.049118e-06
  9.025057e-02    5.059013e-06
  9.054950e-02    5.034198e-06
  9.084843e-02    5.039127e-06
  9.114737e-02    5.034692e-06
  9.144630e-02    5.033185e-06
  9.174523e-02    5.022837e-06
  9.204416e-02    5.006984e-06
  9.234309e-02    4.993647e-06
  9.264202e-02    4.994207e-06
  9.294095e-02    4.991295e-06
  9.323988e-02    4.983902e-06
  9.353881e-02    4.965470e-06
  9.383774e-02    4.972579e-06
  9.413667e-02    4.932846e-06
  9.443560e-02    4.924117e-06
  9.473453e-02    4.934745e-06
  9.503346e-02    4.915224e-06
  9.533239e-02    4.909531e-06
  9.563132e-02    4.916768e-06
  9.593025e-02    4.913761e-06
  9.622918e-02    4.917561e-06
  9.652811e-02    4.921855e-06
  9.682704e-02    4.943633e-06
  9.712597e-02    4.917869e-06
  9.742490e-02    4.888073e-06
  9.772383e-02    4.881098e-06
  9.802276e-02    4.866427e-06
  9.832169e-02    4.843509e-06
  9.862062e-02    4.833006e-06
  9.891956e-02    4.824506e-06
  9.921849e-02    4.818535e-06
  9.951742e-02    4.790495e-06
  9.981635e-02    4.770027e-06
  1.001153e-01    4.747782e-06
  1.004142e-01    4.719682e-06
  1.007131e-01    4.716488e-06
  1.010121e-01    4.743357e-06
  1.013110e-01    4.736088e-06
  1.016099e-01    4.685812e-06
  1.019089e-01    4.671762e-06
  1.022078e-01    4.676182e-06
  1.025067e-01    4.664849e-06
  1.028057e-01    4.662354e-06
  1.031046e-01    4.656166e-06
  1.034035e-01    4.651130e-06
  1.037024e-01    4.650057e-06
  1.040014e-01    4.643434e-06
  1.043003e-01    4.625073e-06
  1.045992e-01    4.599738e-06
  1.048982e-01    4.604383e-06
  1.051971e-01    4.577182e-06
  1.054960e-01    4.555166e-06
  1.057950e-01    4.559491e-06
  1.060939e-01    4.563284e-06
  1.063928e-01    4.554250e-06
  1.066917e-01    4.555302e-06
  1.069907e-01    4.531921e-06
  1.072896e-01    4.528322e-06
  1.075885e-01    4.522975e-06
  1.078875e-01    4.502843e-06
  1.081864e-01    4.512804e-06
  1.084853e-01    4.506584e-06
  1.087843e-01    4.522525e-06
  1.090832e-01    4.521922e-06
  1.093821e-01    4.456522e-06
  1.096810e-01    4.440852e-06
  1.099800e-01    4.437094e-06
  1.102789e-01    4.409277e-06
  1.105778e-01    4.402687e-06
  1.108768e-01    4.396926e-06
  1.111757e-01    4.374351e-06
  1.114746e-01    4.392822e-06
  1.117736e-01    4.378012e-06
  1.120725e-01    4.347251e-06
  1.123714e-01    4.369741e-06
  1.126704e-01    4.350959e-06
  1.129693e-01    4.340187e-06
  1.132682e-01    4.331220e-06
  1.135671e-01    4.280012e-06
  1.138661e-01    4.290139e-06
  1.141650e-01    4.336151e-06
  1.144639e-01    4.304504e-06
  1.147629e-01    4.310738e-06
  1.150618e-01    4.301297e-06
  1.153607e-01    4.264499e-06
  1.156597e-01    4.235344e-06
  1.159586e-01    4.234751e-06
  1.162575e-01    4.222439e-06
  1.165564e-01    4.238180e-06
  1.168554e-01    4.245057e-06
  1.171543e-01    4.284684e-06
  1.174532e-01    4.243770e-06
  1.177522e-01    4.205378e-06
  1.180511e-01    4.238767e-06
  1.183500e-01    4.248287e-06
  1.186490e-01    4.206537e-06
  1.189479e-01    4.171634e-06
  1.192468e-01    4.143339e-06
  1.195458e-01    4.170330e-06
  1.198447e-01    4.234298e-06
  1.201436e-01    4.296522e-06
  1.204425e-01    4.120821e-06
  1.207415e-01    3.663726e-06
  1.210404e-01    3.876780e-06
  1.213393e-01    0.000000e+00
  1.216383e-01    0.000000e+00
  1.219372e-01    0.000000e+00
  1.222361e-01    0.000000e+00
  1.225351e-01    0.000000e+00
  1.228340e-01    0.000000e+00
  1.231329e-01    0.000000e+00
  1.234318e-01    0.000000e+00
  1.237308e-01    0.000000e+00
  1.240297e-01    0.000000e+00
  1.243286e-01    0.000000e+00
  1.246276e-01    0.000000e+00
  1.249265e-01    0.000000e+00
  1.252254e-01    0.000000e+00
  1.255244e-01    0.000000e+00
  1.258233e-01    0.000000e+00
  1.261222e-01    0.000000e+00
  1.264212e-01    0.000000e+00
  1.267201e-01    0.000000e+00
  1.270190e-01    0.000000e+00
  1.273179e-01    0.000000e+00
  1.276169e-01    0.000000e+00
  1.279158e-01    0.000000e+00
  1.282147e-01    0.000000e+00
  1.285137e-01    0.000000e+00
  1.288126e-01    0.000000e+00
  1.291115e-01    0.000000e+00
  1.294105e-01    0.000000e+00
  1.297094e-01    0.000000e+00
  1.300083e-01    0.000000e+00
  1.303072e-01    0.000000e+00
  1.306062e-01    0.000000e+00
  1.309051e-01    0.000000e+00
  1.312040e-01    0.000000e+00
  1.315030e-01    0.000000e+00
  1.318019e-01    0.000000e+00
  1.321008e-01    0.000000e+00
  1.323998e-01    0.000000e+00
  1.326987e-01    0.000000e+00
  1.329976e-01    0.000000e+00
  1.332965e-01    0.000000e+00
  1.335955e-01    0.000000e+00
  1.338944e-01    0.000000e+00
  1.341933e-01    0.000000e+00
  1.344923e-01    0.000000e+00
  1.347912e-01    0.000000e+00
  1.350901e-01    0.000000e+00
  1.353891e-01    0.000000e+00
  1.356880e-01    0.000000e+00
  1.359869e-01    0.000000e+00
  1.362859e-01    0.000000e+00
  1.365848e-01    0.000000e+00
  1.368837e-01    0.000000e+00
  1.371826e-01    0.000000e+00
  1.374816e-01    0.000000e+00
  1.377805e-01    0.000000e+00
  1.380794e-01    0.000000e+00
  1.383784e-01    0.000000e+00
  1.386773e-01    0.000000e+00
  1.389762e-01    0.000000e+00
  1.392752e-01    0.000000e+00
  1.395741e-01    0.000000e+00
  1.398730e-01    0.000000e+00
  1.401719e-01    0.000000e+00
  1.404709e-01    0.000000e+00
  1.407698e-01    0.000000e+00
  1.410687e-01    0.000000e+00
  1.413677e-01    0.000000e+00
  1.416666e-01    0.000000e+00
  1.419655e-01    0.000000e+00
  1.422645e-01    0.000000e+00
  1.425634e-01    0.000000e+00
  1.428623e-01    0.000000e+00
  1.431613e-01    0.000000e+00
  1.434602e-01    0.000000e+00
  1.437591e-01    0.000000e+00
  1.440580e-01    0.000000e+00
  1.443570e-01    0.000000e+00
  1.446559e-01    0.000000e+00
  1.449548e-01    0.000000e+00
  1.452538e-01    0.000000e+00
  1.455527e-01    0.000000e+00
  1.458516e-01    0.000000e+00
  1.461506e-01    0.000000e+00
  1.464495e-01    0.000000e+00
  1.467484e-01    0.000000e+00
  1.470473e-01    0.000000e+00
  1.473463e-01    0.000000e+00
  1.476452e-01    0.000000e+00
  1.479441e-01    0.000000e+00
  1.482431e-01    0.000000e+00
  1.485420e-01    0.000000e+00
  1.488409e-01    0.000000e+00
  1.491399e-01    0.000000e+00
  1.494388e-01    0.000000e+00
  1.497377e-01    0.000000e+00
  1.500367e-01    0.000000e+00
  1.503356e-01    0.000000e+00
  1.506345e-01    0.000000e+00
  1.509334e-01    0.000000e+00
  1.512324e-01    0.000000e+00
  1.515313e-01    0.000000e+00
  1.518302e-01    0.000000e+00
  1.521292e-01    0.000000e+00
  1.524281e-01    0.000000e+00
  1.527270e-01    0.000000e+00
  1.530260e-01    0.000000e+00
  1.533249e-01    0.000000e+00
  1.536238e-01    0.000000e+00
