# == pyFAI calibration ==
# Distance Sample to Detector: 2.266 m
# PONI: 5.659e-02, 4.293e-02 m
# Rotations: 0.000000 0.000000 0.000000 rad
# 
# == Fit2d calibration ==
# Distance Sample-beamCenter: 2266.000 mm
# Center: x=249.594, y=329.012 pix
# Tilt: 0.000 deg  TiltPlanRot: 0.000 deg
# 
# Detector Pilatus 300k	 PixelSize= 1.720e-04, 1.720e-04 m
#    Detector has a mask: True 
#    Detector has a dark current: False 
#    detector has a flat field: False 
# 
# Wavelength: 1.27818e-10 m
# Mask applied: user provided
# Dark current applied: False
# Flat field applied: False
# Polarization factor: None
# Normalization factor: 11171737.6
# --> MT-F127_59.151_hexanes_0.000_NaCl_0.000mgml_0_r1d.csv
#        q_A^-1             I 
  4.457554e-03    3.025213e-03
  4.756484e-03    2.382406e-03
  5.055415e-03    1.714637e-03
  5.354345e-03    1.223135e-03
  5.653276e-03    9.594082e-04
  5.952206e-03    1.623963e-03
  6.251136e-03    1.476339e-03
  6.550067e-03    1.276382e-03
  6.848997e-03    1.077979e-03
  7.147927e-03    9.074406e-04
  7.446858e-03    7.738732e-04
  7.745788e-03    6.632258e-04
  8.044719e-03    5.710734e-04
  8.343649e-03    4.984931e-04
  8.642579e-03    4.354879e-04
  8.941510e-03    3.826449e-04
  9.240440e-03    3.393219e-04
  9.539371e-03    3.008773e-04
  9.838301e-03    2.682099e-04
  1.013723e-02    2.403326e-04
  1.043616e-02    2.161018e-04
  1.073509e-02    1.942208e-04
  1.103402e-02    1.763329e-04
  1.133295e-02    1.600936e-04
  1.163188e-02    1.457498e-04
  1.193081e-02    1.335128e-04
  1.222974e-02    1.223892e-04
  1.252867e-02    1.124519e-04
  1.282760e-02    1.033635e-04
  1.312654e-02    9.535781e-05
  1.342547e-02    8.826987e-05
  1.372440e-02    8.212629e-05
  1.402333e-02    7.619648e-05
  1.432226e-02    7.089893e-05
  1.462119e-02    6.620784e-05
  1.492012e-02    6.210958e-05
  1.521905e-02    5.824806e-05
  1.551798e-02    5.452346e-05
  1.581691e-02    5.131097e-05
  1.611584e-02    4.827999e-05
  1.641477e-02    4.558132e-05
  1.671370e-02    4.309163e-05
  1.701263e-02    4.073788e-05
  1.731156e-02    3.882713e-05
  1.761049e-02    3.698283e-05
  1.790942e-02    3.507650e-05
  1.820835e-02    3.343776e-05
  1.850728e-02    3.185118e-05
  1.880621e-02    3.055274e-05
  1.910514e-02    2.924537e-05
  1.940407e-02    2.809355e-05
  1.970300e-02    2.697140e-05
  2.000193e-02    2.599182e-05
  2.030086e-02    2.504963e-05
  2.059979e-02    2.426116e-05
  2.089873e-02    2.342118e-05
  2.119766e-02    2.269754e-05
  2.149659e-02    2.201937e-05
  2.179552e-02    2.127463e-05
  2.209445e-02    2.061558e-05
  2.239338e-02    2.006987e-05
  2.269231e-02    1.934778e-05
  2.299124e-02    1.881509e-05
  2.329017e-02    1.840109e-05
  2.358910e-02    1.795614e-05
  2.388803e-02    1.750025e-05
  2.418696e-02    1.716734e-05
  2.448589e-02    1.680438e-05
  2.478482e-02    1.638626e-05
  2.508375e-02    1.602041e-05
  2.538268e-02    1.580047e-05
  2.568161e-02    1.546731e-05
  2.598054e-02    1.518445e-05
  2.627947e-02    1.496349e-05
  2.657840e-02    1.472435e-05
  2.687733e-02    1.444702e-05
  2.717626e-02    1.418025e-05
  2.747519e-02    1.399290e-05
  2.777412e-02    1.377548e-05
  2.807305e-02    1.352934e-05
  2.837198e-02    1.338895e-05
  2.867092e-02    1.322778e-05
  2.896985e-02    1.310975e-05
  2.926878e-02    1.291150e-05
  2.956771e-02    1.274627e-05
  2.986664e-02    1.258360e-05
  3.016557e-02    1.246270e-05
  3.046450e-02    1.227395e-05
  3.076343e-02    1.211160e-05
  3.106236e-02    1.204726e-05
  3.136129e-02    1.193222e-05
  3.166022e-02    1.180903e-05
  3.195915e-02    1.170600e-05
  3.225808e-02    1.156691e-05
  3.255701e-02    1.140781e-05
  3.285594e-02    1.136643e-05
  3.315487e-02    1.132105e-05
  3.345380e-02    1.117018e-05
  3.375273e-02    1.106220e-05
  3.405166e-02    1.097932e-05
  3.435059e-02    1.088578e-05
  3.464952e-02    1.080187e-05
  3.494845e-02    1.071574e-05
  3.524738e-02    1.061684e-05
  3.554631e-02    1.052689e-05
  3.584524e-02    1.044212e-05
  3.614417e-02    1.035565e-05
  3.644310e-02    1.029290e-05
  3.674204e-02    1.023228e-05
  3.704097e-02    1.015468e-05
  3.733990e-02    1.008566e-05
  3.763883e-02    1.000490e-05
  3.793776e-02    9.905491e-06
  3.823669e-02    9.820420e-06
  3.853562e-02    9.765369e-06
  3.883455e-02    9.720749e-06
  3.913348e-02    9.686008e-06
  3.943241e-02    9.620079e-06
  3.973134e-02    9.532204e-06
  4.003027e-02    9.464576e-06
  4.032920e-02    9.420216e-06
  4.062813e-02    9.371039e-06
  4.092706e-02    9.346294e-06
  4.122599e-02    9.345414e-06
  4.152492e-02    9.308344e-06
  4.182385e-02    9.255528e-06
  4.212278e-02    9.188842e-06
  4.242171e-02    9.163721e-06
  4.272064e-02    9.192448e-06
  4.301957e-02    9.160005e-06
  4.331850e-02    9.092924e-06
  4.361743e-02    9.054762e-06
  4.391636e-02    9.043249e-06
  4.421529e-02    9.022107e-06
  4.451423e-02    8.969611e-06
  4.481316e-02    8.970739e-06
  4.511209e-02    8.984748e-06
  4.541102e-02    9.013375e-06
  4.570995e-02    8.978956e-06
  4.600888e-02    8.936066e-06
  4.630781e-02    8.944345e-06
  4.660674e-02    8.943905e-06
  4.690567e-02    8.932807e-06
  4.720460e-02    8.944580e-06
  4.750353e-02    8.953529e-06
  4.780246e-02    8.917973e-06
  4.810139e-02    8.909020e-06
  4.840032e-02    8.893106e-06
  4.869925e-02    8.873748e-06
  4.899818e-02    8.889642e-06
  4.929711e-02    8.924877e-06
  4.959604e-02    8.883409e-06
  4.989497e-02    8.879799e-06
  5.019390e-02    8.916276e-06
  5.049283e-02    8.900850e-06
  5.079176e-02    8.873267e-06
  5.109069e-02    8.905907e-06
  5.138962e-02    8.929172e-06
  5.168855e-02    9.032576e-06
  5.198748e-02    9.128295e-06
  5.228642e-02    9.093157e-06
  5.258535e-02    8.933551e-06
  5.288428e-02    8.854578e-06
  5.318321e-02    8.849981e-06
  5.348214e-02    8.850689e-06
  5.378107e-02    8.842994e-06
  5.408000e-02    8.829360e-06
  5.437893e-02    8.865904e-06
  5.467786e-02    8.886529e-06
  5.497679e-02    8.818134e-06
  5.527572e-02    8.819985e-06
  5.557465e-02    8.828845e-06
  5.587358e-02    8.851734e-06
  5.617251e-02    8.889463e-06
  5.647144e-02    8.882068e-06
  5.677037e-02    8.871563e-06
  5.706930e-02    8.851511e-06
  5.736823e-02    8.901829e-06
  5.766716e-02    8.940153e-06
  5.796609e-02    8.921670e-06
  5.826502e-02    8.897009e-06
  5.856395e-02    8.893247e-06
  5.886288e-02    8.914422e-06
  5.916181e-02    8.942803e-06
  5.946074e-02    8.936236e-06
  5.975967e-02    8.918621e-06
  6.005861e-02    8.952910e-06
  6.035754e-02    8.987897e-06
  6.065647e-02    9.012713e-06
  6.095540e-02    9.088708e-06
  6.125433e-02    9.170230e-06
  6.155326e-02    9.192599e-06
  6.185219e-02    9.096416e-06
  6.215112e-02    9.048198e-06
  6.245005e-02    9.055563e-06
  6.274898e-02    9.052414e-06
  6.304791e-02    9.041514e-06
  6.334684e-02    9.052797e-06
  6.364577e-02    9.045306e-06
  6.394470e-02    9.042995e-06
  6.424363e-02    9.055278e-06
  6.454256e-02    9.083741e-06
  6.484149e-02    9.114460e-06
  6.514042e-02    9.148390e-06
  6.543935e-02    9.152388e-06
  6.573828e-02    9.156324e-06
  6.603721e-02    9.181013e-06
  6.633614e-02    9.188714e-06
  6.663507e-02    9.196046e-06
  6.693400e-02    9.219588e-06
  6.723293e-02    9.213267e-06
  6.753186e-02    9.204662e-06
  6.783080e-02    9.241094e-06
  6.812973e-02    9.272819e-06
  6.842866e-02    9.252546e-06
  6.872759e-02    9.252567e-06
  6.902652e-02    9.269352e-06
  6.932545e-02    9.260443e-06
  6.962438e-02    9.301371e-06
  6.992331e-02    9.330890e-06
  7.022224e-02    9.348406e-06
  7.052117e-02    9.314581e-06
  7.082010e-02    9.343948e-06
  7.111903e-02    9.375091e-06
  7.141796e-02    9.345563e-06
  7.171689e-02    9.363851e-06
  7.201582e-02    9.390681e-06
  7.231475e-02    9.391485e-06
  7.261368e-02    9.388946e-06
  7.291261e-02    9.363994e-06
  7.321154e-02    9.365102e-06
  7.351047e-02    9.370180e-06
  7.380940e-02    9.350501e-06
  7.410833e-02    9.357106e-06
  7.440726e-02    9.377726e-06
  7.470619e-02    9.389792e-06
  7.500512e-02    9.384097e-06
  7.530405e-02    9.352691e-06
  7.560299e-02    9.370715e-06
  7.590192e-02    9.369045e-06
  7.620085e-02    9.380270e-06
  7.649978e-02    9.386625e-06
  7.679871e-02    9.404386e-06
  7.709764e-02    9.380308e-06
  7.739657e-02    9.316713e-06
  7.769550e-02    9.333698e-06
  7.799443e-02    9.355274e-06
  7.829336e-02    9.323669e-06
  7.859229e-02    9.343424e-06
  7.889122e-02    9.360387e-06
  7.919015e-02    9.336947e-06
  7.948908e-02    9.318147e-06
  7.978801e-02    9.328822e-06
  8.008694e-02    9.315983e-06
  8.038587e-02    9.276218e-06
  8.068480e-02    9.248291e-06
  8.098373e-02    9.272939e-06
  8.128266e-02    9.306512e-06
  8.158159e-02    9.309017e-06
  8.188052e-02    9.266228e-06
  8.217945e-02    9.237785e-06
  8.247838e-02    9.217365e-06
  8.277731e-02    9.216149e-06
  8.307624e-02    9.222594e-06
  8.337518e-02    9.212608e-06
  8.367411e-02    9.221468e-06
  8.397304e-02    9.192930e-06
  8.427197e-02    9.198944e-06
  8.457090e-02    9.195286e-06
  8.486983e-02    9.173171e-06
  8.516876e-02    9.162373e-06
  8.546769e-02    9.144190e-06
  8.576662e-02    9.146982e-06
  8.606555e-02    9.107786e-06
  8.636448e-02    9.091834e-06
  8.666341e-02    9.076864e-06
  8.696234e-02    9.050150e-06
  8.726127e-02    9.025923e-06
  8.756020e-02    9.028115e-06
  8.785913e-02    9.037448e-06
  8.815806e-02    9.000542e-06
  8.845699e-02    8.944759e-06
  8.875592e-02    8.950275e-06
  8.905485e-02    8.959420e-06
  8.935378e-02    8.950296e-06
  8.965271e-02    8.918101e-06
  8.995164e-02    8.910568e-06
  9.025057e-02    8.865972e-06
  9.054950e-02    8.854638e-06
  9.084843e-02    8.875355e-06
  9.114737e-02    8.856918e-06
  9.144630e-02    8.852841e-06
  9.174523e-02    8.833691e-06
  9.204416e-02    8.804425e-06
  9.234309e-02    8.797589e-06
  9.264202e-02    8.790258e-06
  9.294095e-02    8.761696e-06
  9.323988e-02    8.743430e-06
  9.353881e-02    8.756148e-06
  9.383774e-02    8.745766e-06
  9.413667e-02    8.714581e-06
  9.443560e-02    8.689158e-06
  9.473453e-02    8.654007e-06
  9.503346e-02    8.657824e-06
  9.533239e-02    8.637846e-06
  9.563132e-02    8.641099e-06
  9.593025e-02    8.656014e-06
  9.622918e-02    8.650570e-06
  9.652811e-02    8.697089e-06
  9.682704e-02    8.699121e-06
  9.712597e-02    8.635292e-06
  9.742490e-02    8.637893e-06
  9.772383e-02    8.645507e-06
  9.802276e-02    8.581526e-06
  9.832169e-02    8.539267e-06
  9.862062e-02    8.515561e-06
  9.891956e-02    8.483529e-06
  9.921849e-02    8.458618e-06
  9.951742e-02    8.467191e-06
  9.981635e-02    8.440738e-06
  1.001153e-01    8.402348e-06
  1.004142e-01    8.401970e-06
  1.007131e-01    8.391626e-06
  1.010121e-01    8.363334e-06
  1.013110e-01    8.321549e-06
  1.016099e-01    8.320992e-06
  1.019089e-01    8.283572e-06
  1.022078e-01    8.267805e-06
  1.025067e-01    8.305062e-06
  1.028057e-01    8.291759e-06
  1.031046e-01    8.261683e-06
  1.034035e-01    8.231649e-06
  1.037024e-01    8.210212e-06
  1.040014e-01    8.184815e-06
  1.043003e-01    8.174275e-06
  1.045992e-01    8.204624e-06
  1.048982e-01    8.180619e-06
  1.051971e-01    8.174520e-06
  1.054960e-01    8.123341e-06
  1.057950e-01    8.085206e-06
  1.060939e-01    8.073417e-06
  1.063928e-01    8.079600e-06
  1.066917e-01    8.096197e-06
  1.069907e-01    8.048467e-06
  1.072896e-01    8.058427e-06
  1.075885e-01    8.061912e-06
  1.078875e-01    8.028183e-06
  1.081864e-01    8.028894e-06
  1.084853e-01    8.024423e-06
  1.087843e-01    8.024392e-06
  1.090832e-01    8.022012e-06
  1.093821e-01    7.966351e-06
  1.096810e-01    7.928462e-06
  1.099800e-01    7.886005e-06
  1.102789e-01    7.904504e-06
  1.105778e-01    7.883658e-06
  1.108768e-01    7.836032e-06
  1.111757e-01    7.805582e-06
  1.114746e-01    7.771323e-06
  1.117736e-01    7.752597e-06
  1.120725e-01    7.756509e-06
  1.123714e-01    7.767553e-06
  1.126704e-01    7.738447e-06
  1.129693e-01    7.667983e-06
  1.132682e-01    7.647837e-06
  1.135671e-01    7.658684e-06
  1.138661e-01    7.614834e-06
  1.141650e-01    7.588069e-06
  1.144639e-01    7.581328e-06
  1.147629e-01    7.564275e-06
  1.150618e-01    7.562376e-06
  1.153607e-01    7.568138e-06
  1.156597e-01    7.523086e-06
  1.159586e-01    7.487833e-06
  1.162575e-01    7.501258e-06
  1.165564e-01    7.480887e-06
  1.168554e-01    7.474709e-06
  1.171543e-01    7.429504e-06
  1.174532e-01    7.444540e-06
  1.177522e-01    7.434549e-06
  1.180511e-01    7.459195e-06
  1.183500e-01    7.476114e-06
  1.186490e-01    7.543129e-06
  1.189479e-01    7.429812e-06
  1.192468e-01    7.326822e-06
  1.195458e-01    7.406333e-06
  1.198447e-01    7.471350e-06
  1.201436e-01    7.369962e-06
  1.204425e-01    7.104963e-06
  1.207415e-01    6.928791e-06
  1.210404e-01    6.181895e-06
  1.213393e-01    0.000000e+00
  1.216383e-01    0.000000e+00
  1.219372e-01    0.000000e+00
  1.222361e-01    0.000000e+00
  1.225351e-01    0.000000e+00
  1.228340e-01    0.000000e+00
  1.231329e-01    0.000000e+00
  1.234318e-01    0.000000e+00
  1.237308e-01    0.000000e+00
  1.240297e-01    0.000000e+00
  1.243286e-01    0.000000e+00
  1.246276e-01    0.000000e+00
  1.249265e-01    0.000000e+00
  1.252254e-01    0.000000e+00
  1.255244e-01    0.000000e+00
  1.258233e-01    0.000000e+00
  1.261222e-01    0.000000e+00
  1.264212e-01    0.000000e+00
  1.267201e-01    0.000000e+00
  1.270190e-01    0.000000e+00
  1.273179e-01    0.000000e+00
  1.276169e-01    0.000000e+00
  1.279158e-01    0.000000e+00
  1.282147e-01    0.000000e+00
  1.285137e-01    0.000000e+00
  1.288126e-01    0.000000e+00
  1.291115e-01    0.000000e+00
  1.294105e-01    0.000000e+00
  1.297094e-01    0.000000e+00
  1.300083e-01    0.000000e+00
  1.303072e-01    0.000000e+00
  1.306062e-01    0.000000e+00
  1.309051e-01    0.000000e+00
  1.312040e-01    0.000000e+00
  1.315030e-01    0.000000e+00
  1.318019e-01    0.000000e+00
  1.321008e-01    0.000000e+00
  1.323998e-01    0.000000e+00
  1.326987e-01    0.000000e+00
  1.329976e-01    0.000000e+00
  1.332965e-01    0.000000e+00
  1.335955e-01    0.000000e+00
  1.338944e-01    0.000000e+00
  1.341933e-01    0.000000e+00
  1.344923e-01    0.000000e+00
  1.347912e-01    0.000000e+00
  1.350901e-01    0.000000e+00
  1.353891e-01    0.000000e+00
  1.356880e-01    0.000000e+00
  1.359869e-01    0.000000e+00
  1.362859e-01    0.000000e+00
  1.365848e-01    0.000000e+00
  1.368837e-01    0.000000e+00
  1.371826e-01    0.000000e+00
  1.374816e-01    0.000000e+00
  1.377805e-01    0.000000e+00
  1.380794e-01    0.000000e+00
  1.383784e-01    0.000000e+00
  1.386773e-01    0.000000e+00
  1.389762e-01    0.000000e+00
  1.392752e-01    0.000000e+00
  1.395741e-01    0.000000e+00
  1.398730e-01    0.000000e+00
  1.401719e-01    0.000000e+00
  1.404709e-01    0.000000e+00
  1.407698e-01    0.000000e+00
  1.410687e-01    0.000000e+00
  1.413677e-01    0.000000e+00
  1.416666e-01    0.000000e+00
  1.419655e-01    0.000000e+00
  1.422645e-01    0.000000e+00
  1.425634e-01    0.000000e+00
  1.428623e-01    0.000000e+00
  1.431613e-01    0.000000e+00
  1.434602e-01    0.000000e+00
  1.437591e-01    0.000000e+00
  1.440580e-01    0.000000e+00
  1.443570e-01    0.000000e+00
  1.446559e-01    0.000000e+00
  1.449548e-01    0.000000e+00
  1.452538e-01    0.000000e+00
  1.455527e-01    0.000000e+00
  1.458516e-01    0.000000e+00
  1.461506e-01    0.000000e+00
  1.464495e-01    0.000000e+00
  1.467484e-01    0.000000e+00
  1.470473e-01    0.000000e+00
  1.473463e-01    0.000000e+00
  1.476452e-01    0.000000e+00
  1.479441e-01    0.000000e+00
  1.482431e-01    0.000000e+00
  1.485420e-01    0.000000e+00
  1.488409e-01    0.000000e+00
  1.491399e-01    0.000000e+00
  1.494388e-01    0.000000e+00
  1.497377e-01    0.000000e+00
  1.500367e-01    0.000000e+00
  1.503356e-01    0.000000e+00
  1.506345e-01    0.000000e+00
  1.509334e-01    0.000000e+00
  1.512324e-01    0.000000e+00
  1.515313e-01    0.000000e+00
  1.518302e-01    0.000000e+00
  1.521292e-01    0.000000e+00
  1.524281e-01    0.000000e+00
  1.527270e-01    0.000000e+00
  1.530260e-01    0.000000e+00
  1.533249e-01    0.000000e+00
  1.536238e-01    0.000000e+00
