# == pyFAI calibration ==
# Distance Sample to Detector: 2.266 m
# PONI: 5.659e-02, 4.293e-02 m
# Rotations: 0.000000 0.000000 0.000000 rad
# 
# == Fit2d calibration ==
# Distance Sample-beamCenter: 2266.000 mm
# Center: x=249.594, y=329.012 pix
# Tilt: 0.000 deg  TiltPlanRot: 0.000 deg
# 
# Detector Pilatus 300k	 PixelSize= 1.720e-04, 1.720e-04 m
#    Detector has a mask: True 
#    Detector has a dark current: False 
#    detector has a flat field: False 
# 
# Wavelength: 1.27818e-10 m
# Mask applied: user provided
# Dark current applied: False
# Flat field applied: False
# Polarization factor: None
# Normalization factor: 3291219.0
# --> MT-F127_120.614_hexanes_60.307_EtOH_214.716_NaCl_100.000mgml_0_r1d.csv
#        q_A^-1             I 
  4.457554e-03    1.499081e-03
  4.756484e-03    1.165825e-03
  5.055415e-03    8.234664e-04
  5.354345e-03    5.858761e-04
  5.653276e-03    4.445675e-04
  5.952206e-03    7.049546e-04
  6.251136e-03    6.455555e-04
  6.550067e-03    5.639258e-04
  6.848997e-03    4.825625e-04
  7.147927e-03    4.085579e-04
  7.446858e-03    3.504073e-04
  7.745788e-03    3.012809e-04
  8.044719e-03    2.602137e-04
  8.343649e-03    2.268295e-04
  8.642579e-03    1.985214e-04
  8.941510e-03    1.758914e-04
  9.240440e-03    1.561544e-04
  9.539371e-03    1.383900e-04
  9.838301e-03    1.236218e-04
  1.013723e-02    1.102122e-04
  1.043616e-02    9.903299e-05
  1.073509e-02    8.886834e-05
  1.103402e-02    8.045493e-05
  1.133295e-02    7.305238e-05
  1.163188e-02    6.628176e-05
  1.193081e-02    6.060360e-05
  1.222974e-02    5.563110e-05
  1.252867e-02    5.107563e-05
  1.282760e-02    4.717238e-05
  1.312654e-02    4.343040e-05
  1.342547e-02    3.977882e-05
  1.372440e-02    3.680744e-05
  1.402333e-02    3.420374e-05
  1.432226e-02    3.192450e-05
  1.462119e-02    2.986340e-05
  1.492012e-02    2.750444e-05
  1.521905e-02    2.567148e-05
  1.551798e-02    2.424232e-05
  1.581691e-02    2.286042e-05
  1.611584e-02    2.156294e-05
  1.641477e-02    2.039564e-05
  1.671370e-02    1.919656e-05
  1.701263e-02    1.814374e-05
  1.731156e-02    1.706268e-05
  1.761049e-02    1.613399e-05
  1.790942e-02    1.545123e-05
  1.820835e-02    1.458404e-05
  1.850728e-02    1.380367e-05
  1.880621e-02    1.323519e-05
  1.910514e-02    1.268089e-05
  1.940407e-02    1.210096e-05
  1.970300e-02    1.164282e-05
  2.000193e-02    1.114215e-05
  2.030086e-02    1.058222e-05
  2.059979e-02    1.035717e-05
  2.089873e-02    1.008659e-05
  2.119766e-02    9.701733e-06
  2.149659e-02    9.401678e-06
  2.179552e-02    9.026056e-06
  2.209445e-02    8.694965e-06
  2.239338e-02    8.461081e-06
  2.269231e-02    8.247441e-06
  2.299124e-02    8.027402e-06
  2.329017e-02    7.744080e-06
  2.358910e-02    7.628714e-06
  2.388803e-02    7.447753e-06
  2.418696e-02    7.302891e-06
  2.448589e-02    7.123079e-06
  2.478482e-02    6.912619e-06
  2.508375e-02    6.798574e-06
  2.538268e-02    6.748417e-06
  2.568161e-02    6.480549e-06
  2.598054e-02    6.410493e-06
  2.627947e-02    6.313274e-06
  2.657840e-02    6.248350e-06
  2.687733e-02    6.134462e-06
  2.717626e-02    6.069357e-06
  2.747519e-02    5.970534e-06
  2.777412e-02    5.899190e-06
  2.807305e-02    5.801789e-06
  2.837198e-02    5.720563e-06
  2.867092e-02    5.664199e-06
  2.896985e-02    5.570207e-06
  2.926878e-02    5.432859e-06
  2.956771e-02    5.380941e-06
  2.986664e-02    5.315207e-06
  3.016557e-02    5.326575e-06
  3.046450e-02    5.244804e-06
  3.076343e-02    5.151582e-06
  3.106236e-02    5.189490e-06
  3.136129e-02    5.113923e-06
  3.166022e-02    4.990822e-06
  3.195915e-02    4.984262e-06
  3.225808e-02    4.973033e-06
  3.255701e-02    4.836710e-06
  3.285594e-02    4.716886e-06
  3.315487e-02    4.734530e-06
  3.345380e-02    4.670145e-06
  3.375273e-02    4.637985e-06
  3.405166e-02    4.616566e-06
  3.435059e-02    4.557077e-06
  3.464952e-02    4.405218e-06
  3.494845e-02    4.335556e-06
  3.524738e-02    4.387523e-06
  3.554631e-02    4.356272e-06
  3.584524e-02    4.278728e-06
  3.614417e-02    4.218882e-06
  3.644310e-02    4.154791e-06
  3.674204e-02    4.174735e-06
  3.704097e-02    4.223272e-06
  3.733990e-02    4.149758e-06
  3.763883e-02    4.034585e-06
  3.793776e-02    3.984654e-06
  3.823669e-02    3.979898e-06
  3.853562e-02    3.966365e-06
  3.883455e-02    3.955498e-06
  3.913348e-02    3.879971e-06
  3.943241e-02    3.845128e-06
  3.973134e-02    3.834941e-06
  4.003027e-02    3.777454e-06
  4.032920e-02    3.754797e-06
  4.062813e-02    3.785869e-06
  4.092706e-02    3.814239e-06
  4.122599e-02    3.780369e-06
  4.152492e-02    3.701634e-06
  4.182385e-02    3.640487e-06
  4.212278e-02    3.653717e-06
  4.242171e-02    3.652730e-06
  4.272064e-02    3.656514e-06
  4.301957e-02    3.597592e-06
  4.331850e-02    3.546617e-06
  4.361743e-02    3.567648e-06
  4.391636e-02    3.560842e-06
  4.421529e-02    3.534619e-06
  4.451423e-02    3.552141e-06
  4.481316e-02    3.524149e-06
  4.511209e-02    3.515653e-06
  4.541102e-02    3.493330e-06
  4.570995e-02    3.501069e-06
  4.600888e-02    3.504009e-06
  4.630781e-02    3.517820e-06
  4.660674e-02    3.496953e-06
  4.690567e-02    3.487197e-06
  4.720460e-02    3.513300e-06
  4.750353e-02    3.523580e-06
  4.780246e-02    3.476056e-06
  4.810139e-02    3.441750e-06
  4.840032e-02    3.450754e-06
  4.869925e-02    3.475666e-06
  4.899818e-02    3.457738e-06
  4.929711e-02    3.502549e-06
  4.959604e-02    3.475323e-06
  4.989497e-02    3.416748e-06
  5.019390e-02    3.421304e-06
  5.049283e-02    3.453694e-06
  5.079176e-02    3.464177e-06
  5.109069e-02    3.466202e-06
  5.138962e-02    3.535961e-06
  5.168855e-02    3.655599e-06
  5.198748e-02    3.737839e-06
  5.228642e-02    3.652086e-06
  5.258535e-02    3.492235e-06
  5.288428e-02    3.415788e-06
  5.318321e-02    3.420045e-06
  5.348214e-02    3.460005e-06
  5.378107e-02    3.463470e-06
  5.408000e-02    3.408825e-06
  5.437893e-02    3.365190e-06
  5.467786e-02    3.327250e-06
  5.497679e-02    3.351243e-06
  5.527572e-02    3.375611e-06
  5.557465e-02    3.368205e-06
  5.587358e-02    3.379619e-06
  5.617251e-02    3.388619e-06
  5.647144e-02    3.417406e-06
  5.677037e-02    3.408474e-06
  5.706930e-02    3.374981e-06
  5.736823e-02    3.365168e-06
  5.766716e-02    3.395952e-06
  5.796609e-02    3.411512e-06
  5.826502e-02    3.413577e-06
  5.856395e-02    3.458281e-06
  5.886288e-02    3.468571e-06
  5.916181e-02    3.422851e-06
  5.946074e-02    3.456804e-06
  5.975967e-02    3.440179e-06
  6.005861e-02    3.379013e-06
  6.035754e-02    3.373844e-06
  6.065647e-02    3.415481e-06
  6.095540e-02    3.473683e-06
  6.125433e-02    3.567756e-06
  6.155326e-02    3.555290e-06
  6.185219e-02    3.503474e-06
  6.215112e-02    3.481742e-06
  6.245005e-02    3.448682e-06
  6.274898e-02    3.443705e-06
  6.304791e-02    3.420876e-06
  6.334684e-02    3.437583e-06
  6.364577e-02    3.446450e-06
  6.394470e-02    3.421899e-06
  6.424363e-02    3.436395e-06
  6.454256e-02    3.447066e-06
  6.484149e-02    3.430459e-06
  6.514042e-02    3.461822e-06
  6.543935e-02    3.466715e-06
  6.573828e-02    3.446970e-06
  6.603721e-02    3.449488e-06
  6.633614e-02    3.455349e-06
  6.663507e-02    3.472404e-06
  6.693400e-02    3.455060e-06
  6.723293e-02    3.480163e-06
  6.753186e-02    3.483829e-06
  6.783080e-02    3.542292e-06
  6.812973e-02    3.542470e-06
  6.842866e-02    3.490534e-06
  6.872759e-02    3.476105e-06
  6.902652e-02    3.509847e-06
  6.932545e-02    3.506494e-06
  6.962438e-02    3.483883e-06
  6.992331e-02    3.489023e-06
  7.022224e-02    3.497691e-06
  7.052117e-02    3.507375e-06
  7.082010e-02    3.484301e-06
  7.111903e-02    3.516297e-06
  7.141796e-02    3.468750e-06
  7.171689e-02    3.470731e-06
  7.201582e-02    3.542539e-06
  7.231475e-02    3.558339e-06
  7.261368e-02    3.545720e-06
  7.291261e-02    3.532940e-06
  7.321154e-02    3.551066e-06
  7.351047e-02    3.549168e-06
  7.380940e-02    3.563469e-06
  7.410833e-02    3.555849e-06
  7.440726e-02    3.546999e-06
  7.470619e-02    3.555948e-06
  7.500512e-02    3.560985e-06
  7.530405e-02    3.517086e-06
  7.560299e-02    3.516492e-06
  7.590192e-02    3.492680e-06
  7.620085e-02    3.499558e-06
  7.649978e-02    3.526836e-06
  7.679871e-02    3.516047e-06
  7.709764e-02    3.520176e-06
  7.739657e-02    3.510330e-06
  7.769550e-02    3.514447e-06
  7.799443e-02    3.537111e-06
  7.829336e-02    3.510186e-06
  7.859229e-02    3.487947e-06
  7.889122e-02    3.470029e-06
  7.919015e-02    3.440242e-06
  7.948908e-02    3.481099e-06
  7.978801e-02    3.490432e-06
  8.008694e-02    3.484376e-06
  8.038587e-02    3.513234e-06
  8.068480e-02    3.493712e-06
  8.098373e-02    3.470466e-06
  8.128266e-02    3.482868e-06
  8.158159e-02    3.463098e-06
  8.188052e-02    3.462090e-06
  8.217945e-02    3.450766e-06
  8.247838e-02    3.423329e-06
  8.277731e-02    3.426490e-06
  8.307624e-02    3.449047e-06
  8.337518e-02    3.477114e-06
  8.367411e-02    3.441059e-06
  8.397304e-02    3.407332e-06
  8.427197e-02    3.435010e-06
  8.457090e-02    3.440147e-06
  8.486983e-02    3.430167e-06
  8.516876e-02    3.432102e-06
  8.546769e-02    3.399095e-06
  8.576662e-02    3.405462e-06
  8.606555e-02    3.399922e-06
  8.636448e-02    3.382251e-06
  8.666341e-02    3.383179e-06
  8.696234e-02    3.353347e-06
  8.726127e-02    3.347309e-06
  8.756020e-02    3.320822e-06
  8.785913e-02    3.303667e-06
  8.815806e-02    3.293589e-06
  8.845699e-02    3.310814e-06
  8.875592e-02    3.313839e-06
  8.905485e-02    3.339699e-06
  8.935378e-02    3.359116e-06
  8.965271e-02    3.299108e-06
  8.995164e-02    3.308333e-06
  9.025057e-02    3.292471e-06
  9.054950e-02    3.299222e-06
  9.084843e-02    3.277314e-06
  9.114737e-02    3.285047e-06
  9.144630e-02    3.282165e-06
  9.174523e-02    3.247782e-06
  9.204416e-02    3.222961e-06
  9.234309e-02    3.188633e-06
  9.264202e-02    3.236600e-06
  9.294095e-02    3.236742e-06
  9.323988e-02    3.245059e-06
  9.353881e-02    3.210778e-06
  9.383774e-02    3.219773e-06
  9.413667e-02    3.234426e-06
  9.443560e-02    3.221055e-06
  9.473453e-02    3.191197e-06
  9.503346e-02    3.173603e-06
  9.533239e-02    3.182493e-06
  9.563132e-02    3.239195e-06
  9.593025e-02    3.218504e-06
  9.622918e-02    3.211911e-06
  9.652811e-02    3.231826e-06
  9.682704e-02    3.258429e-06
  9.712597e-02    3.258117e-06
  9.742490e-02    3.210955e-06
  9.772383e-02    3.196495e-06
  9.802276e-02    3.204700e-06
  9.832169e-02    3.196960e-06
  9.862062e-02    3.169860e-06
  9.891956e-02    3.151431e-06
  9.921849e-02    3.126041e-06
  9.951742e-02    3.104339e-06
  9.981635e-02    3.101917e-06
  1.001153e-01    3.076362e-06
  1.004142e-01    3.054825e-06
  1.007131e-01    3.071322e-06
  1.010121e-01    3.099207e-06
  1.013110e-01    3.058241e-06
  1.016099e-01    3.061475e-06
  1.019089e-01    3.089132e-06
  1.022078e-01    3.051111e-06
  1.025067e-01    3.015421e-06
  1.028057e-01    3.012591e-06
  1.031046e-01    3.011941e-06
  1.034035e-01    3.027335e-06
  1.037024e-01    3.004699e-06
  1.040014e-01    3.011309e-06
  1.043003e-01    3.012524e-06
  1.045992e-01    3.016329e-06
  1.048982e-01    3.026527e-06
  1.051971e-01    3.021046e-06
  1.054960e-01    2.972431e-06
  1.057950e-01    2.992664e-06
  1.060939e-01    2.997230e-06
  1.063928e-01    2.989151e-06
  1.066917e-01    2.980761e-06
  1.069907e-01    3.000747e-06
  1.072896e-01    2.957588e-06
  1.075885e-01    2.918121e-06
  1.078875e-01    2.915604e-06
  1.081864e-01    2.927741e-06
  1.084853e-01    2.956461e-06
  1.087843e-01    2.970274e-06
  1.090832e-01    2.984846e-06
  1.093821e-01    2.999474e-06
  1.096810e-01    2.972369e-06
  1.099800e-01    2.945741e-06
  1.102789e-01    2.929355e-06
  1.105778e-01    2.902985e-06
  1.108768e-01    2.924302e-06
  1.111757e-01    2.929959e-06
  1.114746e-01    2.900352e-06
  1.117736e-01    2.901994e-06
  1.120725e-01    2.926573e-06
  1.123714e-01    2.892563e-06
  1.126704e-01    2.838289e-06
  1.129693e-01    2.847054e-06
  1.132682e-01    2.900374e-06
  1.135671e-01    2.875431e-06
  1.138661e-01    2.793567e-06
  1.141650e-01    2.724130e-06
  1.144639e-01    2.767058e-06
  1.147629e-01    2.781111e-06
  1.150618e-01    2.743089e-06
  1.153607e-01    2.786841e-06
  1.156597e-01    2.778592e-06
  1.159586e-01    2.785695e-06
  1.162575e-01    2.785166e-06
  1.165564e-01    2.744674e-06
  1.168554e-01    2.785565e-06
  1.171543e-01    2.749640e-06
  1.174532e-01    2.710461e-06
  1.177522e-01    2.730870e-06
  1.180511e-01    2.784951e-06
  1.183500e-01    2.788819e-06
  1.186490e-01    2.834121e-06
  1.189479e-01    2.802330e-06
  1.192468e-01    2.724231e-06
  1.195458e-01    2.769616e-06
  1.198447e-01    2.871657e-06
  1.201436e-01    2.985982e-06
  1.204425e-01    2.595097e-06
  1.207415e-01    2.301510e-06
  1.210404e-01    3.041140e-06
  1.213393e-01    0.000000e+00
  1.216383e-01    0.000000e+00
  1.219372e-01    0.000000e+00
  1.222361e-01    0.000000e+00
  1.225351e-01    0.000000e+00
  1.228340e-01    0.000000e+00
  1.231329e-01    0.000000e+00
  1.234318e-01    0.000000e+00
  1.237308e-01    0.000000e+00
  1.240297e-01    0.000000e+00
  1.243286e-01    0.000000e+00
  1.246276e-01    0.000000e+00
  1.249265e-01    0.000000e+00
  1.252254e-01    0.000000e+00
  1.255244e-01    0.000000e+00
  1.258233e-01    0.000000e+00
  1.261222e-01    0.000000e+00
  1.264212e-01    0.000000e+00
  1.267201e-01    0.000000e+00
  1.270190e-01    0.000000e+00
  1.273179e-01    0.000000e+00
  1.276169e-01    0.000000e+00
  1.279158e-01    0.000000e+00
  1.282147e-01    0.000000e+00
  1.285137e-01    0.000000e+00
  1.288126e-01    0.000000e+00
  1.291115e-01    0.000000e+00
  1.294105e-01    0.000000e+00
  1.297094e-01    0.000000e+00
  1.300083e-01    0.000000e+00
  1.303072e-01    0.000000e+00
  1.306062e-01    0.000000e+00
  1.309051e-01    0.000000e+00
  1.312040e-01    0.000000e+00
  1.315030e-01    0.000000e+00
  1.318019e-01    0.000000e+00
  1.321008e-01    0.000000e+00
  1.323998e-01    0.000000e+00
  1.326987e-01    0.000000e+00
  1.329976e-01    0.000000e+00
  1.332965e-01    0.000000e+00
  1.335955e-01    0.000000e+00
  1.338944e-01    0.000000e+00
  1.341933e-01    0.000000e+00
  1.344923e-01    0.000000e+00
  1.347912e-01    0.000000e+00
  1.350901e-01    0.000000e+00
  1.353891e-01    0.000000e+00
  1.356880e-01    0.000000e+00
  1.359869e-01    0.000000e+00
  1.362859e-01    0.000000e+00
  1.365848e-01    0.000000e+00
  1.368837e-01    0.000000e+00
  1.371826e-01    0.000000e+00
  1.374816e-01    0.000000e+00
  1.377805e-01    0.000000e+00
  1.380794e-01    0.000000e+00
  1.383784e-01    0.000000e+00
  1.386773e-01    0.000000e+00
  1.389762e-01    0.000000e+00
  1.392752e-01    0.000000e+00
  1.395741e-01    0.000000e+00
  1.398730e-01    0.000000e+00
  1.401719e-01    0.000000e+00
  1.404709e-01    0.000000e+00
  1.407698e-01    0.000000e+00
  1.410687e-01    0.000000e+00
  1.413677e-01    0.000000e+00
  1.416666e-01    0.000000e+00
  1.419655e-01    0.000000e+00
  1.422645e-01    0.000000e+00
  1.425634e-01    0.000000e+00
  1.428623e-01    0.000000e+00
  1.431613e-01    0.000000e+00
  1.434602e-01    0.000000e+00
  1.437591e-01    0.000000e+00
  1.440580e-01    0.000000e+00
  1.443570e-01    0.000000e+00
  1.446559e-01    0.000000e+00
  1.449548e-01    0.000000e+00
  1.452538e-01    0.000000e+00
  1.455527e-01    0.000000e+00
  1.458516e-01    0.000000e+00
  1.461506e-01    0.000000e+00
  1.464495e-01    0.000000e+00
  1.467484e-01    0.000000e+00
  1.470473e-01    0.000000e+00
  1.473463e-01    0.000000e+00
  1.476452e-01    0.000000e+00
  1.479441e-01    0.000000e+00
  1.482431e-01    0.000000e+00
  1.485420e-01    0.000000e+00
  1.488409e-01    0.000000e+00
  1.491399e-01    0.000000e+00
  1.494388e-01    0.000000e+00
  1.497377e-01    0.000000e+00
  1.500367e-01    0.000000e+00
  1.503356e-01    0.000000e+00
  1.506345e-01    0.000000e+00
  1.509334e-01    0.000000e+00
  1.512324e-01    0.000000e+00
  1.515313e-01    0.000000e+00
  1.518302e-01    0.000000e+00
  1.521292e-01    0.000000e+00
  1.524281e-01    0.000000e+00
  1.527270e-01    0.000000e+00
  1.530260e-01    0.000000e+00
  1.533249e-01    0.000000e+00
  1.536238e-01    0.000000e+00
