# == pyFAI calibration ==
# Distance Sample to Detector: 2.266 m
# PONI: 5.659e-02, 4.293e-02 m
# Rotations: 0.000000 0.000000 0.000000 rad
# 
# == Fit2d calibration ==
# Distance Sample-beamCenter: 2266.000 mm
# Center: x=249.594, y=329.012 pix
# Tilt: 0.000 deg  TiltPlanRot: 0.000 deg
# 
# Detector Pilatus 300k	 PixelSize= 1.720e-04, 1.720e-04 m
#    Detector has a mask: True 
#    Detector has a dark current: False 
#    detector has a flat field: False 
# 
# Wavelength: 1.27818e-10 m
# Mask applied: user provided
# Dark current applied: False
# Flat field applied: False
# Polarization factor: None
# Normalization factor: 1024630.0
# --> MT-F127_164.898_hexanes_56.065_EtOH_35.646_NaCl_100.000mgml_1_r1d.csv
#        q_A^-1             I 
  4.457554e-03    2.915566e-03
  4.756484e-03    2.276052e-03
  5.055415e-03    1.614372e-03
  5.354345e-03    1.166892e-03
  5.653276e-03    9.129427e-04
  5.952206e-03    1.315408e-03
  6.251136e-03    1.214124e-03
  6.550067e-03    1.061768e-03
  6.848997e-03    9.086620e-04
  7.147927e-03    7.752221e-04
  7.446858e-03    6.659588e-04
  7.745788e-03    5.724871e-04
  8.044719e-03    4.975485e-04
  8.343649e-03    4.371791e-04
  8.642579e-03    3.853968e-04
  8.941510e-03    3.411143e-04
  9.240440e-03    3.031845e-04
  9.539371e-03    2.700586e-04
  9.838301e-03    2.405129e-04
  1.013723e-02    2.149937e-04
  1.043616e-02    1.938545e-04
  1.073509e-02    1.749040e-04
  1.103402e-02    1.583033e-04
  1.133295e-02    1.428950e-04
  1.163188e-02    1.293344e-04
  1.193081e-02    1.188571e-04
  1.222974e-02    1.085688e-04
  1.252867e-02    9.913555e-05
  1.282760e-02    9.135948e-05
  1.312654e-02    8.407762e-05
  1.342547e-02    7.776423e-05
  1.372440e-02    7.153759e-05
  1.402333e-02    6.559986e-05
  1.432226e-02    6.084684e-05
  1.462119e-02    5.658260e-05
  1.492012e-02    5.244213e-05
  1.521905e-02    4.855115e-05
  1.551798e-02    4.488709e-05
  1.581691e-02    4.229472e-05
  1.611584e-02    4.037776e-05
  1.641477e-02    3.763153e-05
  1.671370e-02    3.516281e-05
  1.701263e-02    3.296154e-05
  1.731156e-02    3.126887e-05
  1.761049e-02    2.940061e-05
  1.790942e-02    2.783366e-05
  1.820835e-02    2.638059e-05
  1.850728e-02    2.512391e-05
  1.880621e-02    2.415217e-05
  1.910514e-02    2.304015e-05
  1.940407e-02    2.176136e-05
  1.970300e-02    2.054193e-05
  2.000193e-02    1.988390e-05
  2.030086e-02    1.899820e-05
  2.059979e-02    1.812239e-05
  2.089873e-02    1.734678e-05
  2.119766e-02    1.713285e-05
  2.149659e-02    1.679830e-05
  2.179552e-02    1.597594e-05
  2.209445e-02    1.514111e-05
  2.239338e-02    1.460502e-05
  2.269231e-02    1.436311e-05
  2.299124e-02    1.396879e-05
  2.329017e-02    1.366531e-05
  2.358910e-02    1.346692e-05
  2.388803e-02    1.289005e-05
  2.418696e-02    1.247500e-05
  2.448589e-02    1.224081e-05
  2.478482e-02    1.192290e-05
  2.508375e-02    1.174964e-05
  2.538268e-02    1.136074e-05
  2.568161e-02    1.108150e-05
  2.598054e-02    1.093840e-05
  2.627947e-02    1.067393e-05
  2.657840e-02    1.059917e-05
  2.687733e-02    1.038794e-05
  2.717626e-02    1.009094e-05
  2.747519e-02    9.972872e-06
  2.777412e-02    9.896259e-06
  2.807305e-02    9.757381e-06
  2.837198e-02    9.531289e-06
  2.867092e-02    9.488776e-06
  2.896985e-02    9.413680e-06
  2.926878e-02    9.198582e-06
  2.956771e-02    8.997557e-06
  2.986664e-02    8.944469e-06
  3.016557e-02    8.972813e-06
  3.046450e-02    8.827933e-06
  3.076343e-02    8.641611e-06
  3.106236e-02    8.587407e-06
  3.136129e-02    8.406157e-06
  3.166022e-02    8.298443e-06
  3.195915e-02    8.130216e-06
  3.225808e-02    8.083736e-06
  3.255701e-02    8.026909e-06
  3.285594e-02    8.059532e-06
  3.315487e-02    8.032880e-06
  3.345380e-02    7.841138e-06
  3.375273e-02    7.668165e-06
  3.405166e-02    7.603777e-06
  3.435059e-02    7.476147e-06
  3.464952e-02    7.481402e-06
  3.494845e-02    7.373657e-06
  3.524738e-02    7.275190e-06
  3.554631e-02    6.977326e-06
  3.584524e-02    6.931458e-06
  3.614417e-02    6.932155e-06
  3.644310e-02    6.752070e-06
  3.674204e-02    6.794179e-06
  3.704097e-02    6.699798e-06
  3.733990e-02    6.525459e-06
  3.763883e-02    6.525602e-06
  3.793776e-02    6.426539e-06
  3.823669e-02    6.420480e-06
  3.853562e-02    6.383557e-06
  3.883455e-02    6.148084e-06
  3.913348e-02    6.197940e-06
  3.943241e-02    6.288697e-06
  3.973134e-02    6.158303e-06
  4.003027e-02    6.149782e-06
  4.032920e-02    6.158370e-06
  4.062813e-02    6.031595e-06
  4.092706e-02    5.884656e-06
  4.122599e-02    5.944242e-06
  4.152492e-02    6.042560e-06
  4.182385e-02    5.820431e-06
  4.212278e-02    5.750898e-06
  4.242171e-02    5.775868e-06
  4.272064e-02    5.704554e-06
  4.301957e-02    5.754596e-06
  4.331850e-02    5.838770e-06
  4.361743e-02    5.785404e-06
  4.391636e-02    5.810090e-06
  4.421529e-02    5.662082e-06
  4.451423e-02    5.509443e-06
  4.481316e-02    5.600413e-06
  4.511209e-02    5.569734e-06
  4.541102e-02    5.564235e-06
  4.570995e-02    5.565824e-06
  4.600888e-02    5.531966e-06
  4.630781e-02    5.559368e-06
  4.660674e-02    5.644927e-06
  4.690567e-02    5.589817e-06
  4.720460e-02    5.520485e-06
  4.750353e-02    5.520133e-06
  4.780246e-02    5.511076e-06
  4.810139e-02    5.440756e-06
  4.840032e-02    5.486257e-06
  4.869925e-02    5.445924e-06
  4.899818e-02    5.444292e-06
  4.929711e-02    5.334972e-06
  4.959604e-02    5.302771e-06
  4.989497e-02    5.332489e-06
  5.019390e-02    5.338268e-06
  5.049283e-02    5.489191e-06
  5.079176e-02    5.511660e-06
  5.109069e-02    5.489948e-06
  5.138962e-02    5.542392e-06
  5.168855e-02    5.713431e-06
  5.198748e-02    5.972082e-06
  5.228642e-02    5.718933e-06
  5.258535e-02    5.415292e-06
  5.288428e-02    5.348957e-06
  5.318321e-02    5.225599e-06
  5.348214e-02    5.306764e-06
  5.378107e-02    5.351887e-06
  5.408000e-02    5.282329e-06
  5.437893e-02    5.339819e-06
  5.467786e-02    5.324659e-06
  5.497679e-02    5.266129e-06
  5.527572e-02    5.280900e-06
  5.557465e-02    5.286548e-06
  5.587358e-02    5.211341e-06
  5.617251e-02    5.203935e-06
  5.647144e-02    5.403794e-06
  5.677037e-02    5.381870e-06
  5.706930e-02    5.279475e-06
  5.736823e-02    5.230559e-06
  5.766716e-02    5.208730e-06
  5.796609e-02    5.174076e-06
  5.826502e-02    5.291817e-06
  5.856395e-02    5.393635e-06
  5.886288e-02    5.314864e-06
  5.916181e-02    5.225267e-06
  5.946074e-02    5.258557e-06
  5.975967e-02    5.326829e-06
  6.005861e-02    5.301964e-06
  6.035754e-02    5.300712e-06
  6.065647e-02    5.215586e-06
  6.095540e-02    5.362314e-06
  6.125433e-02    5.480617e-06
  6.155326e-02    5.595155e-06
  6.185219e-02    5.546828e-06
  6.215112e-02    5.371798e-06
  6.245005e-02    5.380579e-06
  6.274898e-02    5.534780e-06
  6.304791e-02    5.494856e-06
  6.334684e-02    5.418049e-06
  6.364577e-02    5.341182e-06
  6.394470e-02    5.325294e-06
  6.424363e-02    5.307168e-06
  6.454256e-02    5.299898e-06
  6.484149e-02    5.281675e-06
  6.514042e-02    5.289715e-06
  6.543935e-02    5.322692e-06
  6.573828e-02    5.351576e-06
  6.603721e-02    5.301925e-06
  6.633614e-02    5.369082e-06
  6.663507e-02    5.447433e-06
  6.693400e-02    5.422931e-06
  6.723293e-02    5.365362e-06
  6.753186e-02    5.316705e-06
  6.783080e-02    5.441917e-06
  6.812973e-02    5.489130e-06
  6.842866e-02    5.466771e-06
  6.872759e-02    5.477037e-06
  6.902652e-02    5.474156e-06
  6.932545e-02    5.459464e-06
  6.962438e-02    5.500222e-06
  6.992331e-02    5.547585e-06
  7.022224e-02    5.412820e-06
  7.052117e-02    5.419793e-06
  7.082010e-02    5.442219e-06
  7.111903e-02    5.395533e-06
  7.141796e-02    5.361769e-06
  7.171689e-02    5.332239e-06
  7.201582e-02    5.414068e-06
  7.231475e-02    5.436438e-06
  7.261368e-02    5.524250e-06
  7.291261e-02    5.521858e-06
  7.321154e-02    5.498622e-06
  7.351047e-02    5.527323e-06
  7.380940e-02    5.561455e-06
  7.410833e-02    5.505289e-06
  7.440726e-02    5.457486e-06
  7.470619e-02    5.489717e-06
  7.500512e-02    5.386497e-06
  7.530405e-02    5.500626e-06
  7.560299e-02    5.569536e-06
  7.590192e-02    5.521582e-06
  7.620085e-02    5.491318e-06
  7.649978e-02    5.428969e-06
  7.679871e-02    5.452543e-06
  7.709764e-02    5.511163e-06
  7.739657e-02    5.418643e-06
  7.769550e-02    5.502014e-06
  7.799443e-02    5.510492e-06
  7.829336e-02    5.489149e-06
  7.859229e-02    5.501396e-06
  7.889122e-02    5.522863e-06
  7.919015e-02    5.457359e-06
  7.948908e-02    5.455702e-06
  7.978801e-02    5.366870e-06
  8.008694e-02    5.370573e-06
  8.038587e-02    5.474933e-06
  8.068480e-02    5.440796e-06
  8.098373e-02    5.484982e-06
  8.128266e-02    5.484421e-06
  8.158159e-02    5.478104e-06
  8.188052e-02    5.414817e-06
  8.217945e-02    5.393085e-06
  8.247838e-02    5.376847e-06
  8.277731e-02    5.344334e-06
  8.307624e-02    5.329819e-06
  8.337518e-02    5.306173e-06
  8.367411e-02    5.283269e-06
  8.397304e-02    5.337774e-06
  8.427197e-02    5.347431e-06
  8.457090e-02    5.308174e-06
  8.486983e-02    5.236283e-06
  8.516876e-02    5.258605e-06
  8.546769e-02    5.224943e-06
  8.576662e-02    5.185791e-06
  8.606555e-02    5.228906e-06
  8.636448e-02    5.257205e-06
  8.666341e-02    5.245401e-06
  8.696234e-02    5.211029e-06
  8.726127e-02    5.212003e-06
  8.756020e-02    5.177975e-06
  8.785913e-02    5.218774e-06
  8.815806e-02    5.169859e-06
  8.845699e-02    5.186643e-06
  8.875592e-02    5.211299e-06
  8.905485e-02    5.137156e-06
  8.935378e-02    5.095893e-06
  8.965271e-02    5.070618e-06
  8.995164e-02    5.056933e-06
  9.025057e-02    5.058881e-06
  9.054950e-02    5.074186e-06
  9.084843e-02    5.084589e-06
  9.114737e-02    5.003611e-06
  9.144630e-02    4.997799e-06
  9.174523e-02    4.982589e-06
  9.204416e-02    5.023629e-06
  9.234309e-02    5.016804e-06
  9.264202e-02    4.908173e-06
  9.294095e-02    4.951351e-06
  9.323988e-02    5.009269e-06
  9.353881e-02    5.023205e-06
  9.383774e-02    4.967151e-06
  9.413667e-02    4.950316e-06
  9.443560e-02    4.971047e-06
  9.473453e-02    4.949775e-06
  9.503346e-02    4.924823e-06
  9.533239e-02    4.837359e-06
  9.563132e-02    4.906793e-06
  9.593025e-02    4.964507e-06
  9.622918e-02    4.948894e-06
  9.652811e-02    5.007236e-06
  9.682704e-02    4.983376e-06
  9.712597e-02    4.925182e-06
  9.742490e-02    4.899095e-06
  9.772383e-02    4.909428e-06
  9.802276e-02    4.859631e-06
  9.832169e-02    4.799700e-06
  9.862062e-02    4.798628e-06
  9.891956e-02    4.780472e-06
  9.921849e-02    4.742514e-06
  9.951742e-02    4.738931e-06
  9.981635e-02    4.761259e-06
  1.001153e-01    4.792749e-06
  1.004142e-01    4.764553e-06
  1.007131e-01    4.708224e-06
  1.010121e-01    4.666180e-06
  1.013110e-01    4.661164e-06
  1.016099e-01    4.660663e-06
  1.019089e-01    4.724971e-06
  1.022078e-01    4.764968e-06
  1.025067e-01    4.696039e-06
  1.028057e-01    4.695112e-06
  1.031046e-01    4.704043e-06
  1.034035e-01    4.734352e-06
  1.037024e-01    4.646665e-06
  1.040014e-01    4.704718e-06
  1.043003e-01    4.741241e-06
  1.045992e-01    4.620306e-06
  1.048982e-01    4.652477e-06
  1.051971e-01    4.681410e-06
  1.054960e-01    4.601746e-06
  1.057950e-01    4.666515e-06
  1.060939e-01    4.662952e-06
  1.063928e-01    4.543350e-06
  1.066917e-01    4.537813e-06
  1.069907e-01    4.549322e-06
  1.072896e-01    4.469361e-06
  1.075885e-01    4.467408e-06
  1.078875e-01    4.540665e-06
  1.081864e-01    4.573255e-06
  1.084853e-01    4.498535e-06
  1.087843e-01    4.480219e-06
  1.090832e-01    4.543726e-06
  1.093821e-01    4.540171e-06
  1.096810e-01    4.491599e-06
  1.099800e-01    4.463018e-06
  1.102789e-01    4.494693e-06
  1.105778e-01    4.498050e-06
  1.108768e-01    4.471641e-06
  1.111757e-01    4.427863e-06
  1.114746e-01    4.305371e-06
  1.117736e-01    4.408044e-06
  1.120725e-01    4.441965e-06
  1.123714e-01    4.464516e-06
  1.126704e-01    4.439197e-06
  1.129693e-01    4.289537e-06
  1.132682e-01    4.225553e-06
  1.135671e-01    4.245568e-06
  1.138661e-01    4.278821e-06
  1.141650e-01    4.207628e-06
  1.144639e-01    4.300220e-06
  1.147629e-01    4.332886e-06
  1.150618e-01    4.279759e-06
  1.153607e-01    4.357519e-06
  1.156597e-01    4.274277e-06
  1.159586e-01    4.144757e-06
  1.162575e-01    4.082719e-06
  1.165564e-01    4.148949e-06
  1.168554e-01    4.287627e-06
  1.171543e-01    4.262617e-06
  1.174532e-01    4.185551e-06
  1.177522e-01    4.301903e-06
  1.180511e-01    4.263160e-06
  1.183500e-01    4.343263e-06
  1.186490e-01    4.218999e-06
  1.189479e-01    3.943838e-06
  1.192468e-01    4.237790e-06
  1.195458e-01    4.537198e-06
  1.198447e-01    4.523881e-06
  1.201436e-01    4.493540e-06
  1.204425e-01    4.146591e-06
  1.207415e-01    3.843804e-06
  1.210404e-01    1.953692e-06
  1.213393e-01    0.000000e+00
  1.216383e-01    0.000000e+00
  1.219372e-01    0.000000e+00
  1.222361e-01    0.000000e+00
  1.225351e-01    0.000000e+00
  1.228340e-01    0.000000e+00
  1.231329e-01    0.000000e+00
  1.234318e-01    0.000000e+00
  1.237308e-01    0.000000e+00
  1.240297e-01    0.000000e+00
  1.243286e-01    0.000000e+00
  1.246276e-01    0.000000e+00
  1.249265e-01    0.000000e+00
  1.252254e-01    0.000000e+00
  1.255244e-01    0.000000e+00
  1.258233e-01    0.000000e+00
  1.261222e-01    0.000000e+00
  1.264212e-01    0.000000e+00
  1.267201e-01    0.000000e+00
  1.270190e-01    0.000000e+00
  1.273179e-01    0.000000e+00
  1.276169e-01    0.000000e+00
  1.279158e-01    0.000000e+00
  1.282147e-01    0.000000e+00
  1.285137e-01    0.000000e+00
  1.288126e-01    0.000000e+00
  1.291115e-01    0.000000e+00
  1.294105e-01    0.000000e+00
  1.297094e-01    0.000000e+00
  1.300083e-01    0.000000e+00
  1.303072e-01    0.000000e+00
  1.306062e-01    0.000000e+00
  1.309051e-01    0.000000e+00
  1.312040e-01    0.000000e+00
  1.315030e-01    0.000000e+00
  1.318019e-01    0.000000e+00
  1.321008e-01    0.000000e+00
  1.323998e-01    0.000000e+00
  1.326987e-01    0.000000e+00
  1.329976e-01    0.000000e+00
  1.332965e-01    0.000000e+00
  1.335955e-01    0.000000e+00
  1.338944e-01    0.000000e+00
  1.341933e-01    0.000000e+00
  1.344923e-01    0.000000e+00
  1.347912e-01    0.000000e+00
  1.350901e-01    0.000000e+00
  1.353891e-01    0.000000e+00
  1.356880e-01    0.000000e+00
  1.359869e-01    0.000000e+00
  1.362859e-01    0.000000e+00
  1.365848e-01    0.000000e+00
  1.368837e-01    0.000000e+00
  1.371826e-01    0.000000e+00
  1.374816e-01    0.000000e+00
  1.377805e-01    0.000000e+00
  1.380794e-01    0.000000e+00
  1.383784e-01    0.000000e+00
  1.386773e-01    0.000000e+00
  1.389762e-01    0.000000e+00
  1.392752e-01    0.000000e+00
  1.395741e-01    0.000000e+00
  1.398730e-01    0.000000e+00
  1.401719e-01    0.000000e+00
  1.404709e-01    0.000000e+00
  1.407698e-01    0.000000e+00
  1.410687e-01    0.000000e+00
  1.413677e-01    0.000000e+00
  1.416666e-01    0.000000e+00
  1.419655e-01    0.000000e+00
  1.422645e-01    0.000000e+00
  1.425634e-01    0.000000e+00
  1.428623e-01    0.000000e+00
  1.431613e-01    0.000000e+00
  1.434602e-01    0.000000e+00
  1.437591e-01    0.000000e+00
  1.440580e-01    0.000000e+00
  1.443570e-01    0.000000e+00
  1.446559e-01    0.000000e+00
  1.449548e-01    0.000000e+00
  1.452538e-01    0.000000e+00
  1.455527e-01    0.000000e+00
  1.458516e-01    0.000000e+00
  1.461506e-01    0.000000e+00
  1.464495e-01    0.000000e+00
  1.467484e-01    0.000000e+00
  1.470473e-01    0.000000e+00
  1.473463e-01    0.000000e+00
  1.476452e-01    0.000000e+00
  1.479441e-01    0.000000e+00
  1.482431e-01    0.000000e+00
  1.485420e-01    0.000000e+00
  1.488409e-01    0.000000e+00
  1.491399e-01    0.000000e+00
  1.494388e-01    0.000000e+00
  1.497377e-01    0.000000e+00
  1.500367e-01    0.000000e+00
  1.503356e-01    0.000000e+00
  1.506345e-01    0.000000e+00
  1.509334e-01    0.000000e+00
  1.512324e-01    0.000000e+00
  1.515313e-01    0.000000e+00
  1.518302e-01    0.000000e+00
  1.521292e-01    0.000000e+00
  1.524281e-01    0.000000e+00
  1.527270e-01    0.000000e+00
  1.530260e-01    0.000000e+00
  1.533249e-01    0.000000e+00
  1.536238e-01    0.000000e+00
