# == pyFAI calibration ==
# Distance Sample to Detector: 2.266 m
# PONI: 5.659e-02, 4.293e-02 m
# Rotations: 0.000000 0.000000 0.000000 rad
# 
# == Fit2d calibration ==
# Distance Sample-beamCenter: 2266.000 mm
# Center: x=249.594, y=329.012 pix
# Tilt: 0.000 deg  TiltPlanRot: 0.000 deg
# 
# Detector Pilatus 300k	 PixelSize= 1.720e-04, 1.720e-04 m
#    Detector has a mask: True 
#    Detector has a dark current: False 
#    detector has a flat field: False 
# 
# Wavelength: 1.27818e-10 m
# Mask applied: user provided
# Dark current applied: False
# Flat field applied: False
# Polarization factor: None
# Normalization factor: 17969292.600000005
# --> MT-F127_68.222_hexanes_73.095_EtOH_92.944_NaCl_100.000mgml_2_r1d.csv
#        q_A^-1             I 
  4.457554e-03    1.862081e-03
  4.756484e-03    1.457513e-03
  5.055415e-03    1.041705e-03
  5.354345e-03    7.414414e-04
  5.653276e-03    5.782354e-04
  5.952206e-03    9.636108e-04
  6.251136e-03    8.782101e-04
  6.550067e-03    7.601946e-04
  6.848997e-03    6.444403e-04
  7.147927e-03    5.432753e-04
  7.446858e-03    4.630788e-04
  7.745788e-03    3.962801e-04
  8.044719e-03    3.410754e-04
  8.343649e-03    2.973665e-04
  8.642579e-03    2.598213e-04
  8.941510e-03    2.283049e-04
  9.240440e-03    2.021095e-04
  9.539371e-03    1.790935e-04
  9.838301e-03    1.595244e-04
  1.013723e-02    1.435231e-04
  1.043616e-02    1.291138e-04
  1.073509e-02    1.161492e-04
  1.103402e-02    1.049355e-04
  1.133295e-02    9.498647e-05
  1.163188e-02    8.638967e-05
  1.193081e-02    7.891130e-05
  1.222974e-02    7.245699e-05
  1.252867e-02    6.660103e-05
  1.282760e-02    6.140156e-05
  1.312654e-02    5.648026e-05
  1.342547e-02    5.222977e-05
  1.372440e-02    4.847187e-05
  1.402333e-02    4.509542e-05
  1.432226e-02    4.191200e-05
  1.462119e-02    3.908143e-05
  1.492012e-02    3.650501e-05
  1.521905e-02    3.403172e-05
  1.551798e-02    3.196279e-05
  1.581691e-02    3.007772e-05
  1.611584e-02    2.829680e-05
  1.641477e-02    2.682377e-05
  1.671370e-02    2.541939e-05
  1.701263e-02    2.396868e-05
  1.731156e-02    2.267042e-05
  1.761049e-02    2.157299e-05
  1.790942e-02    2.056470e-05
  1.820835e-02    1.961644e-05
  1.850728e-02    1.871207e-05
  1.880621e-02    1.793097e-05
  1.910514e-02    1.706241e-05
  1.940407e-02    1.630202e-05
  1.970300e-02    1.575031e-05
  2.000193e-02    1.507378e-05
  2.030086e-02    1.446086e-05
  2.059979e-02    1.398215e-05
  2.089873e-02    1.349601e-05
  2.119766e-02    1.308254e-05
  2.149659e-02    1.270001e-05
  2.179552e-02    1.225184e-05
  2.209445e-02    1.186936e-05
  2.239338e-02    1.152086e-05
  2.269231e-02    1.119064e-05
  2.299124e-02    1.087409e-05
  2.329017e-02    1.058898e-05
  2.358910e-02    1.033507e-05
  2.388803e-02    1.008525e-05
  2.418696e-02    9.807331e-06
  2.448589e-02    9.578734e-06
  2.478482e-02    9.389006e-06
  2.508375e-02    9.173313e-06
  2.538268e-02    8.969218e-06
  2.568161e-02    8.886104e-06
  2.598054e-02    8.709080e-06
  2.627947e-02    8.522803e-06
  2.657840e-02    8.402796e-06
  2.687733e-02    8.287397e-06
  2.717626e-02    8.169249e-06
  2.747519e-02    8.036513e-06
  2.777412e-02    7.909564e-06
  2.807305e-02    7.786274e-06
  2.837198e-02    7.693564e-06
  2.867092e-02    7.607327e-06
  2.896985e-02    7.503556e-06
  2.926878e-02    7.385906e-06
  2.956771e-02    7.295522e-06
  2.986664e-02    7.241186e-06
  3.016557e-02    7.141975e-06
  3.046450e-02    7.075492e-06
  3.076343e-02    7.000068e-06
  3.106236e-02    6.911171e-06
  3.136129e-02    6.855351e-06
  3.166022e-02    6.772221e-06
  3.195915e-02    6.667021e-06
  3.225808e-02    6.593291e-06
  3.255701e-02    6.584415e-06
  3.285594e-02    6.526055e-06
  3.315487e-02    6.450531e-06
  3.345380e-02    6.412222e-06
  3.375273e-02    6.368936e-06
  3.405166e-02    6.298089e-06
  3.435059e-02    6.208227e-06
  3.464952e-02    6.170285e-06
  3.494845e-02    6.148975e-06
  3.524738e-02    6.090740e-06
  3.554631e-02    6.024848e-06
  3.584524e-02    5.994282e-06
  3.614417e-02    5.944085e-06
  3.644310e-02    5.903628e-06
  3.674204e-02    5.848359e-06
  3.704097e-02    5.800291e-06
  3.733990e-02    5.765516e-06
  3.763883e-02    5.696570e-06
  3.793776e-02    5.636541e-06
  3.823669e-02    5.621267e-06
  3.853562e-02    5.605467e-06
  3.883455e-02    5.555553e-06
  3.913348e-02    5.520154e-06
  3.943241e-02    5.549771e-06
  3.973134e-02    5.498257e-06
  4.003027e-02    5.429821e-06
  4.032920e-02    5.420136e-06
  4.062813e-02    5.403882e-06
  4.092706e-02    5.379923e-06
  4.122599e-02    5.349841e-06
  4.152492e-02    5.318001e-06
  4.182385e-02    5.309251e-06
  4.212278e-02    5.291983e-06
  4.242171e-02    5.269127e-06
  4.272064e-02    5.247147e-06
  4.301957e-02    5.237119e-06
  4.331850e-02    5.245007e-06
  4.361743e-02    5.213545e-06
  4.391636e-02    5.204913e-06
  4.421529e-02    5.199004e-06
  4.451423e-02    5.182641e-06
  4.481316e-02    5.177180e-06
  4.511209e-02    5.160506e-06
  4.541102e-02    5.151914e-06
  4.570995e-02    5.160723e-06
  4.600888e-02    5.164297e-06
  4.630781e-02    5.158526e-06
  4.660674e-02    5.132064e-06
  4.690567e-02    5.139326e-06
  4.720460e-02    5.136349e-06
  4.750353e-02    5.144313e-06
  4.780246e-02    5.124097e-06
  4.810139e-02    5.121596e-06
  4.840032e-02    5.124360e-06
  4.869925e-02    5.116172e-06
  4.899818e-02    5.122994e-06
  4.929711e-02    5.111604e-06
  4.959604e-02    5.124956e-06
  4.989497e-02    5.122674e-06
  5.019390e-02    5.094948e-06
  5.049283e-02    5.103753e-06
  5.079176e-02    5.099532e-06
  5.109069e-02    5.105353e-06
  5.138962e-02    5.131548e-06
  5.168855e-02    5.217168e-06
  5.198748e-02    5.317732e-06
  5.228642e-02    5.293702e-06
  5.258535e-02    5.151830e-06
  5.288428e-02    5.081235e-06
  5.318321e-02    5.094420e-06
  5.348214e-02    5.105965e-06
  5.378107e-02    5.104624e-06
  5.408000e-02    5.098196e-06
  5.437893e-02    5.084445e-06
  5.467786e-02    5.091634e-06
  5.497679e-02    5.069242e-06
  5.527572e-02    5.066892e-06
  5.557465e-02    5.091185e-06
  5.587358e-02    5.119763e-06
  5.617251e-02    5.134498e-06
  5.647144e-02    5.141047e-06
  5.677037e-02    5.140194e-06
  5.706930e-02    5.143919e-06
  5.736823e-02    5.142760e-06
  5.766716e-02    5.159050e-06
  5.796609e-02    5.151115e-06
  5.826502e-02    5.160364e-06
  5.856395e-02    5.155576e-06
  5.886288e-02    5.167874e-06
  5.916181e-02    5.174242e-06
  5.946074e-02    5.186479e-06
  5.975967e-02    5.208041e-06
  6.005861e-02    5.216412e-06
  6.035754e-02    5.235676e-06
  6.065647e-02    5.251895e-06
  6.095540e-02    5.285669e-06
  6.125433e-02    5.330257e-06
  6.155326e-02    5.362741e-06
  6.185219e-02    5.323178e-06
  6.215112e-02    5.275022e-06
  6.245005e-02    5.290056e-06
  6.274898e-02    5.291090e-06
  6.304791e-02    5.278495e-06
  6.334684e-02    5.283486e-06
  6.364577e-02    5.313654e-06
  6.394470e-02    5.312827e-06
  6.424363e-02    5.326227e-06
  6.454256e-02    5.322175e-06
  6.484149e-02    5.296051e-06
  6.514042e-02    5.337957e-06
  6.543935e-02    5.357435e-06
  6.573828e-02    5.350012e-06
  6.603721e-02    5.352330e-06
  6.633614e-02    5.371634e-06
  6.663507e-02    5.406062e-06
  6.693400e-02    5.427210e-06
  6.723293e-02    5.441455e-06
  6.753186e-02    5.434203e-06
  6.783080e-02    5.440417e-06
  6.812973e-02    5.428549e-06
  6.842866e-02    5.443534e-06
  6.872759e-02    5.444865e-06
  6.902652e-02    5.443897e-06
  6.932545e-02    5.445640e-06
  6.962438e-02    5.475748e-06
  6.992331e-02    5.467948e-06
  7.022224e-02    5.492846e-06
  7.052117e-02    5.495896e-06
  7.082010e-02    5.495197e-06
  7.111903e-02    5.530014e-06
  7.141796e-02    5.520674e-06
  7.171689e-02    5.511049e-06
  7.201582e-02    5.539518e-06
  7.231475e-02    5.546434e-06
  7.261368e-02    5.554301e-06
  7.291261e-02    5.563662e-06
  7.321154e-02    5.568286e-06
  7.351047e-02    5.553937e-06
  7.380940e-02    5.552004e-06
  7.410833e-02    5.557314e-06
  7.440726e-02    5.565756e-06
  7.470619e-02    5.563847e-06
  7.500512e-02    5.590522e-06
  7.530405e-02    5.561099e-06
  7.560299e-02    5.552886e-06
  7.590192e-02    5.574140e-06
  7.620085e-02    5.577163e-06
  7.649978e-02    5.575708e-06
  7.679871e-02    5.575841e-06
  7.709764e-02    5.567483e-06
  7.739657e-02    5.567051e-06
  7.769550e-02    5.574175e-06
  7.799443e-02    5.601464e-06
  7.829336e-02    5.587500e-06
  7.859229e-02    5.595301e-06
  7.889122e-02    5.611356e-06
  7.919015e-02    5.604055e-06
  7.948908e-02    5.578222e-06
  7.978801e-02    5.576577e-06
  8.008694e-02    5.572711e-06
  8.038587e-02    5.574265e-06
  8.068480e-02    5.580697e-06
  8.098373e-02    5.571085e-06
  8.128266e-02    5.557643e-06
  8.158159e-02    5.536777e-06
  8.188052e-02    5.543425e-06
  8.217945e-02    5.547314e-06
  8.247838e-02    5.531230e-06
  8.277731e-02    5.530029e-06
  8.307624e-02    5.521401e-06
  8.337518e-02    5.529299e-06
  8.367411e-02    5.512079e-06
  8.397304e-02    5.484587e-06
  8.427197e-02    5.498524e-06
  8.457090e-02    5.499970e-06
  8.486983e-02    5.480883e-06
  8.516876e-02    5.460238e-06
  8.546769e-02    5.445037e-06
  8.576662e-02    5.455843e-06
  8.606555e-02    5.450762e-06
  8.636448e-02    5.446295e-06
  8.666341e-02    5.450407e-06
  8.696234e-02    5.429604e-06
  8.726127e-02    5.423905e-06
  8.756020e-02    5.430519e-06
  8.785913e-02    5.400035e-06
  8.815806e-02    5.383792e-06
  8.845699e-02    5.376393e-06
  8.875592e-02    5.379460e-06
  8.905485e-02    5.364633e-06
  8.935378e-02    5.341898e-06
  8.965271e-02    5.335758e-06
  8.995164e-02    5.339442e-06
  9.025057e-02    5.315128e-06
  9.054950e-02    5.321862e-06
  9.084843e-02    5.317745e-06
  9.114737e-02    5.303333e-06
  9.144630e-02    5.306051e-06
  9.174523e-02    5.289997e-06
  9.204416e-02    5.281100e-06
  9.234309e-02    5.274970e-06
  9.264202e-02    5.270259e-06
  9.294095e-02    5.249783e-06
  9.323988e-02    5.231554e-06
  9.353881e-02    5.225524e-06
  9.383774e-02    5.224064e-06
  9.413667e-02    5.217486e-06
  9.443560e-02    5.195233e-06
  9.473453e-02    5.202036e-06
  9.503346e-02    5.200626e-06
  9.533239e-02    5.194218e-06
  9.563132e-02    5.171169e-06
  9.593025e-02    5.162930e-06
  9.622918e-02    5.182868e-06
  9.652811e-02    5.191764e-06
  9.682704e-02    5.197742e-06
  9.712597e-02    5.178319e-06
  9.742490e-02    5.163491e-06
  9.772383e-02    5.162409e-06
  9.802276e-02    5.135041e-06
  9.832169e-02    5.092228e-06
  9.862062e-02    5.072069e-06
  9.891956e-02    5.072592e-06
  9.921849e-02    5.063755e-06
  9.951742e-02    5.047882e-06
  9.981635e-02    5.027553e-06
  1.001153e-01    5.020358e-06
  1.004142e-01    5.025370e-06
  1.007131e-01    5.002102e-06
  1.010121e-01    4.984727e-06
  1.013110e-01    4.966822e-06
  1.016099e-01    4.959254e-06
  1.019089e-01    4.957769e-06
  1.022078e-01    4.951910e-06
  1.025067e-01    4.933699e-06
  1.028057e-01    4.921475e-06
  1.031046e-01    4.915712e-06
  1.034035e-01    4.930469e-06
  1.037024e-01    4.916564e-06
  1.040014e-01    4.913452e-06
  1.043003e-01    4.885686e-06
  1.045992e-01    4.877470e-06
  1.048982e-01    4.886673e-06
  1.051971e-01    4.879247e-06
  1.054960e-01    4.862901e-06
  1.057950e-01    4.868505e-06
  1.060939e-01    4.853940e-06
  1.063928e-01    4.824548e-06
  1.066917e-01    4.817458e-06
  1.069907e-01    4.804788e-06
  1.072896e-01    4.803316e-06
  1.075885e-01    4.800198e-06
  1.078875e-01    4.793792e-06
  1.081864e-01    4.772367e-06
  1.084853e-01    4.763402e-06
  1.087843e-01    4.758949e-06
  1.090832e-01    4.738962e-06
  1.093821e-01    4.740266e-06
  1.096810e-01    4.701334e-06
  1.099800e-01    4.679165e-06
  1.102789e-01    4.705576e-06
  1.105778e-01    4.677648e-06
  1.108768e-01    4.650928e-06
  1.111757e-01    4.622107e-06
  1.114746e-01    4.616160e-06
  1.117736e-01    4.602715e-06
  1.120725e-01    4.593055e-06
  1.123714e-01    4.592740e-06
  1.126704e-01    4.580222e-06
  1.129693e-01    4.575091e-06
  1.132682e-01    4.545255e-06
  1.135671e-01    4.509095e-06
  1.138661e-01    4.533538e-06
  1.141650e-01    4.544240e-06
  1.144639e-01    4.481490e-06
  1.147629e-01    4.488364e-06
  1.150618e-01    4.524054e-06
  1.153607e-01    4.503722e-06
  1.156597e-01    4.487311e-06
  1.159586e-01    4.495227e-06
  1.162575e-01    4.516638e-06
  1.165564e-01    4.473381e-06
  1.168554e-01    4.451524e-06
  1.171543e-01    4.433190e-06
  1.174532e-01    4.450155e-06
  1.177522e-01    4.457411e-06
  1.180511e-01    4.423791e-06
  1.183500e-01    4.426136e-06
  1.186490e-01    4.447988e-06
  1.189479e-01    4.422682e-06
  1.192468e-01    4.442551e-06
  1.195458e-01    4.418004e-06
  1.198447e-01    4.452943e-06
  1.201436e-01    4.488974e-06
  1.204425e-01    4.376976e-06
  1.207415e-01    4.357879e-06
  1.210404e-01    4.344670e-06
  1.213393e-01    0.000000e+00
  1.216383e-01    0.000000e+00
  1.219372e-01    0.000000e+00
  1.222361e-01    0.000000e+00
  1.225351e-01    0.000000e+00
  1.228340e-01    0.000000e+00
  1.231329e-01    0.000000e+00
  1.234318e-01    0.000000e+00
  1.237308e-01    0.000000e+00
  1.240297e-01    0.000000e+00
  1.243286e-01    0.000000e+00
  1.246276e-01    0.000000e+00
  1.249265e-01    0.000000e+00
  1.252254e-01    0.000000e+00
  1.255244e-01    0.000000e+00
  1.258233e-01    0.000000e+00
  1.261222e-01    0.000000e+00
  1.264212e-01    0.000000e+00
  1.267201e-01    0.000000e+00
  1.270190e-01    0.000000e+00
  1.273179e-01    0.000000e+00
  1.276169e-01    0.000000e+00
  1.279158e-01    0.000000e+00
  1.282147e-01    0.000000e+00
  1.285137e-01    0.000000e+00
  1.288126e-01    0.000000e+00
  1.291115e-01    0.000000e+00
  1.294105e-01    0.000000e+00
  1.297094e-01    0.000000e+00
  1.300083e-01    0.000000e+00
  1.303072e-01    0.000000e+00
  1.306062e-01    0.000000e+00
  1.309051e-01    0.000000e+00
  1.312040e-01    0.000000e+00
  1.315030e-01    0.000000e+00
  1.318019e-01    0.000000e+00
  1.321008e-01    0.000000e+00
  1.323998e-01    0.000000e+00
  1.326987e-01    0.000000e+00
  1.329976e-01    0.000000e+00
  1.332965e-01    0.000000e+00
  1.335955e-01    0.000000e+00
  1.338944e-01    0.000000e+00
  1.341933e-01    0.000000e+00
  1.344923e-01    0.000000e+00
  1.347912e-01    0.000000e+00
  1.350901e-01    0.000000e+00
  1.353891e-01    0.000000e+00
  1.356880e-01    0.000000e+00
  1.359869e-01    0.000000e+00
  1.362859e-01    0.000000e+00
  1.365848e-01    0.000000e+00
  1.368837e-01    0.000000e+00
  1.371826e-01    0.000000e+00
  1.374816e-01    0.000000e+00
  1.377805e-01    0.000000e+00
  1.380794e-01    0.000000e+00
  1.383784e-01    0.000000e+00
  1.386773e-01    0.000000e+00
  1.389762e-01    0.000000e+00
  1.392752e-01    0.000000e+00
  1.395741e-01    0.000000e+00
  1.398730e-01    0.000000e+00
  1.401719e-01    0.000000e+00
  1.404709e-01    0.000000e+00
  1.407698e-01    0.000000e+00
  1.410687e-01    0.000000e+00
  1.413677e-01    0.000000e+00
  1.416666e-01    0.000000e+00
  1.419655e-01    0.000000e+00
  1.422645e-01    0.000000e+00
  1.425634e-01    0.000000e+00
  1.428623e-01    0.000000e+00
  1.431613e-01    0.000000e+00
  1.434602e-01    0.000000e+00
  1.437591e-01    0.000000e+00
  1.440580e-01    0.000000e+00
  1.443570e-01    0.000000e+00
  1.446559e-01    0.000000e+00
  1.449548e-01    0.000000e+00
  1.452538e-01    0.000000e+00
  1.455527e-01    0.000000e+00
  1.458516e-01    0.000000e+00
  1.461506e-01    0.000000e+00
  1.464495e-01    0.000000e+00
  1.467484e-01    0.000000e+00
  1.470473e-01    0.000000e+00
  1.473463e-01    0.000000e+00
  1.476452e-01    0.000000e+00
  1.479441e-01    0.000000e+00
  1.482431e-01    0.000000e+00
  1.485420e-01    0.000000e+00
  1.488409e-01    0.000000e+00
  1.491399e-01    0.000000e+00
  1.494388e-01    0.000000e+00
  1.497377e-01    0.000000e+00
  1.500367e-01    0.000000e+00
  1.503356e-01    0.000000e+00
  1.506345e-01    0.000000e+00
  1.509334e-01    0.000000e+00
  1.512324e-01    0.000000e+00
  1.515313e-01    0.000000e+00
  1.518302e-01    0.000000e+00
  1.521292e-01    0.000000e+00
  1.524281e-01    0.000000e+00
  1.527270e-01    0.000000e+00
  1.530260e-01    0.000000e+00
  1.533249e-01    0.000000e+00
  1.536238e-01    0.000000e+00
