# == pyFAI calibration ==
# Distance Sample to Detector: 2.266 m
# PONI: 5.659e-02, 4.293e-02 m
# Rotations: 0.000000 0.000000 0.000000 rad
# 
# == Fit2d calibration ==
# Distance Sample-beamCenter: 2266.000 mm
# Center: x=249.594, y=329.012 pix
# Tilt: 0.000 deg  TiltPlanRot: 0.000 deg
# 
# Detector Pilatus 300k	 PixelSize= 1.720e-04, 1.720e-04 m
#    Detector has a mask: True 
#    Detector has a dark current: False 
#    detector has a flat field: False 
# 
# Wavelength: 1.27818e-10 m
# Mask applied: user provided
# Dark current applied: False
# Flat field applied: False
# Polarization factor: None
# Normalization factor: 3887195.0
# --> MT-F127_23.045_hexanes_57.612_NaCl_33.667mgml_r1d.csv
#        q_A^-1             I 
  4.457554e-03    2.411070e-03
  4.756484e-03    1.888649e-03
  5.055415e-03    1.327855e-03
  5.354345e-03    9.160418e-04
  5.653276e-03    6.984877e-04
  5.952206e-03    1.120999e-03
  6.251136e-03    1.023142e-03
  6.550067e-03    8.933928e-04
  6.848997e-03    7.626088e-04
  7.147927e-03    6.436320e-04
  7.446858e-03    5.490456e-04
  7.745788e-03    4.695848e-04
  8.044719e-03    4.041967e-04
  8.343649e-03    3.532991e-04
  8.642579e-03    3.079866e-04
  8.941510e-03    2.709816e-04
  9.240440e-03    2.400580e-04
  9.539371e-03    2.127654e-04
  9.838301e-03    1.895349e-04
  1.013723e-02    1.702947e-04
  1.043616e-02    1.534663e-04
  1.073509e-02    1.376291e-04
  1.103402e-02    1.244264e-04
  1.133295e-02    1.125958e-04
  1.163188e-02    1.023238e-04
  1.193081e-02    9.301709e-05
  1.222974e-02    8.487038e-05
  1.252867e-02    7.828523e-05
  1.282760e-02    7.229193e-05
  1.312654e-02    6.655061e-05
  1.342547e-02    6.194544e-05
  1.372440e-02    5.718649e-05
  1.402333e-02    5.251995e-05
  1.432226e-02    4.898824e-05
  1.462119e-02    4.572908e-05
  1.492012e-02    4.288522e-05
  1.521905e-02    4.004311e-05
  1.551798e-02    3.734346e-05
  1.581691e-02    3.521373e-05
  1.611584e-02    3.311939e-05
  1.641477e-02    3.107218e-05
  1.671370e-02    2.942191e-05
  1.701263e-02    2.784296e-05
  1.731156e-02    2.642810e-05
  1.761049e-02    2.507812e-05
  1.790942e-02    2.372556e-05
  1.820835e-02    2.276888e-05
  1.850728e-02    2.163982e-05
  1.880621e-02    2.066779e-05
  1.910514e-02    1.991076e-05
  1.940407e-02    1.887162e-05
  1.970300e-02    1.804711e-05
  2.000193e-02    1.739205e-05
  2.030086e-02    1.689384e-05
  2.059979e-02    1.629755e-05
  2.089873e-02    1.562263e-05
  2.119766e-02    1.502841e-05
  2.149659e-02    1.461936e-05
  2.179552e-02    1.420825e-05
  2.209445e-02    1.374764e-05
  2.239338e-02    1.340102e-05
  2.269231e-02    1.299050e-05
  2.299124e-02    1.261388e-05
  2.329017e-02    1.234094e-05
  2.358910e-02    1.198126e-05
  2.388803e-02    1.162718e-05
  2.418696e-02    1.135721e-05
  2.448589e-02    1.113598e-05
  2.478482e-02    1.085184e-05
  2.508375e-02    1.073574e-05
  2.538268e-02    1.053315e-05
  2.568161e-02    1.032984e-05
  2.598054e-02    1.011176e-05
  2.627947e-02    9.946254e-06
  2.657840e-02    9.802418e-06
  2.687733e-02    9.602630e-06
  2.717626e-02    9.467414e-06
  2.747519e-02    9.407293e-06
  2.777412e-02    9.252615e-06
  2.807305e-02    9.085221e-06
  2.837198e-02    9.013735e-06
  2.867092e-02    8.889192e-06
  2.896985e-02    8.780657e-06
  2.926878e-02    8.665121e-06
  2.956771e-02    8.515472e-06
  2.986664e-02    8.429638e-06
  3.016557e-02    8.439751e-06
  3.046450e-02    8.312562e-06
  3.076343e-02    8.162448e-06
  3.106236e-02    8.046808e-06
  3.136129e-02    8.061593e-06
  3.166022e-02    7.990465e-06
  3.195915e-02    7.915331e-06
  3.225808e-02    7.851446e-06
  3.255701e-02    7.786643e-06
  3.285594e-02    7.768931e-06
  3.315487e-02    7.589632e-06
  3.345380e-02    7.458972e-06
  3.375273e-02    7.409803e-06
  3.405166e-02    7.331653e-06
  3.435059e-02    7.270259e-06
  3.464952e-02    7.207313e-06
  3.494845e-02    7.150603e-06
  3.524738e-02    7.064455e-06
  3.554631e-02    7.016841e-06
  3.584524e-02    6.986345e-06
  3.614417e-02    6.843474e-06
  3.644310e-02    6.817676e-06
  3.674204e-02    6.732698e-06
  3.704097e-02    6.704618e-06
  3.733990e-02    6.638116e-06
  3.763883e-02    6.611251e-06
  3.793776e-02    6.560673e-06
  3.823669e-02    6.494871e-06
  3.853562e-02    6.431051e-06
  3.883455e-02    6.371032e-06
  3.913348e-02    6.348676e-06
  3.943241e-02    6.243349e-06
  3.973134e-02    6.225402e-06
  4.003027e-02    6.271776e-06
  4.032920e-02    6.187448e-06
  4.062813e-02    6.103492e-06
  4.092706e-02    6.061630e-06
  4.122599e-02    6.048018e-06
  4.152492e-02    6.099935e-06
  4.182385e-02    6.065764e-06
  4.212278e-02    5.995561e-06
  4.242171e-02    5.990450e-06
  4.272064e-02    5.938801e-06
  4.301957e-02    5.915647e-06
  4.331850e-02    5.902813e-06
  4.361743e-02    5.818321e-06
  4.391636e-02    5.842261e-06
  4.421529e-02    5.818349e-06
  4.451423e-02    5.846564e-06
  4.481316e-02    5.884741e-06
  4.511209e-02    5.832928e-06
  4.541102e-02    5.758851e-06
  4.570995e-02    5.796877e-06
  4.600888e-02    5.875173e-06
  4.630781e-02    5.839450e-06
  4.660674e-02    5.788052e-06
  4.690567e-02    5.765449e-06
  4.720460e-02    5.742937e-06
  4.750353e-02    5.781580e-06
  4.780246e-02    5.751989e-06
  4.810139e-02    5.736596e-06
  4.840032e-02    5.709483e-06
  4.869925e-02    5.693183e-06
  4.899818e-02    5.671297e-06
  4.929711e-02    5.679954e-06
  4.959604e-02    5.748464e-06
  4.989497e-02    5.679866e-06
  5.019390e-02    5.650887e-06
  5.049283e-02    5.718121e-06
  5.079176e-02    5.766507e-06
  5.109069e-02    5.819536e-06
  5.138962e-02    5.905129e-06
  5.168855e-02    6.051529e-06
  5.198748e-02    6.134114e-06
  5.228642e-02    5.978657e-06
  5.258535e-02    5.787572e-06
  5.288428e-02    5.670152e-06
  5.318321e-02    5.668017e-06
  5.348214e-02    5.692350e-06
  5.378107e-02    5.729824e-06
  5.408000e-02    5.669271e-06
  5.437893e-02    5.661931e-06
  5.467786e-02    5.693797e-06
  5.497679e-02    5.652025e-06
  5.527572e-02    5.643814e-06
  5.557465e-02    5.651188e-06
  5.587358e-02    5.629841e-06
  5.617251e-02    5.708044e-06
  5.647144e-02    5.717996e-06
  5.677037e-02    5.716895e-06
  5.706930e-02    5.690847e-06
  5.736823e-02    5.677738e-06
  5.766716e-02    5.667008e-06
  5.796609e-02    5.643517e-06
  5.826502e-02    5.674188e-06
  5.856395e-02    5.684805e-06
  5.886288e-02    5.682433e-06
  5.916181e-02    5.733068e-06
  5.946074e-02    5.748876e-06
  5.975967e-02    5.684842e-06
  6.005861e-02    5.731182e-06
  6.035754e-02    5.812676e-06
  6.065647e-02    5.809816e-06
  6.095540e-02    5.822718e-06
  6.125433e-02    5.936589e-06
  6.155326e-02    5.975365e-06
  6.185219e-02    5.860500e-06
  6.215112e-02    5.792681e-06
  6.245005e-02    5.798731e-06
  6.274898e-02    5.779571e-06
  6.304791e-02    5.821239e-06
  6.334684e-02    5.858714e-06
  6.364577e-02    5.805706e-06
  6.394470e-02    5.846273e-06
  6.424363e-02    5.866234e-06
  6.454256e-02    5.863854e-06
  6.484149e-02    5.862824e-06
  6.514042e-02    5.833282e-06
  6.543935e-02    5.833667e-06
  6.573828e-02    5.877459e-06
  6.603721e-02    5.848100e-06
  6.633614e-02    5.872644e-06
  6.663507e-02    5.868472e-06
  6.693400e-02    5.880695e-06
  6.723293e-02    5.849555e-06
  6.753186e-02    5.895726e-06
  6.783080e-02    5.911130e-06
  6.812973e-02    5.936730e-06
  6.842866e-02    5.956490e-06
  6.872759e-02    5.962072e-06
  6.902652e-02    5.969496e-06
  6.932545e-02    5.981649e-06
  6.962438e-02    5.975731e-06
  6.992331e-02    5.947833e-06
  7.022224e-02    5.946945e-06
  7.052117e-02    5.981839e-06
  7.082010e-02    6.023784e-06
  7.111903e-02    5.989845e-06
  7.141796e-02    5.947576e-06
  7.171689e-02    5.965353e-06
  7.201582e-02    5.985552e-06
  7.231475e-02    6.014908e-06
  7.261368e-02    6.047460e-06
  7.291261e-02    6.027006e-06
  7.321154e-02    6.087787e-06
  7.351047e-02    6.036431e-06
  7.380940e-02    5.991872e-06
  7.410833e-02    6.022815e-06
  7.440726e-02    6.046525e-06
  7.470619e-02    6.051437e-06
  7.500512e-02    6.079367e-06
  7.530405e-02    6.054579e-06
  7.560299e-02    6.035939e-06
  7.590192e-02    6.063215e-06
  7.620085e-02    6.024187e-06
  7.649978e-02    6.042628e-06
  7.679871e-02    6.040570e-06
  7.709764e-02    6.001839e-06
  7.739657e-02    5.964292e-06
  7.769550e-02    6.048716e-06
  7.799443e-02    5.990500e-06
  7.829336e-02    5.975525e-06
  7.859229e-02    5.975067e-06
  7.889122e-02    5.991155e-06
  7.919015e-02    6.007307e-06
  7.948908e-02    5.997390e-06
  7.978801e-02    5.998564e-06
  8.008694e-02    5.997885e-06
  8.038587e-02    5.962543e-06
  8.068480e-02    5.973533e-06
  8.098373e-02    5.964800e-06
  8.128266e-02    5.949053e-06
  8.158159e-02    5.939200e-06
  8.188052e-02    5.914971e-06
  8.217945e-02    5.923083e-06
  8.247838e-02    5.906073e-06
  8.277731e-02    5.907523e-06
  8.307624e-02    5.897096e-06
  8.337518e-02    5.908159e-06
  8.367411e-02    5.892679e-06
  8.397304e-02    5.852911e-06
  8.427197e-02    5.850693e-06
  8.457090e-02    5.845180e-06
  8.486983e-02    5.864425e-06
  8.516876e-02    5.866305e-06
  8.546769e-02    5.823074e-06
  8.576662e-02    5.806679e-06
  8.606555e-02    5.810938e-06
  8.636448e-02    5.804259e-06
  8.666341e-02    5.819641e-06
  8.696234e-02    5.792032e-06
  8.726127e-02    5.791730e-06
  8.756020e-02    5.788125e-06
  8.785913e-02    5.728521e-06
  8.815806e-02    5.737756e-06
  8.845699e-02    5.734224e-06
  8.875592e-02    5.682264e-06
  8.905485e-02    5.729832e-06
  8.935378e-02    5.735340e-06
  8.965271e-02    5.717621e-06
  8.995164e-02    5.700198e-06
  9.025057e-02    5.694565e-06
  9.054950e-02    5.645013e-06
  9.084843e-02    5.625626e-06
  9.114737e-02    5.610347e-06
  9.144630e-02    5.595198e-06
  9.174523e-02    5.585503e-06
  9.204416e-02    5.609127e-06
  9.234309e-02    5.589086e-06
  9.264202e-02    5.602199e-06
  9.294095e-02    5.550510e-06
  9.323988e-02    5.533685e-06
  9.353881e-02    5.545272e-06
  9.383774e-02    5.538452e-06
  9.413667e-02    5.511711e-06
  9.443560e-02    5.532717e-06
  9.473453e-02    5.527353e-06
  9.503346e-02    5.488570e-06
  9.533239e-02    5.480434e-06
  9.563132e-02    5.458629e-06
  9.593025e-02    5.466208e-06
  9.622918e-02    5.465582e-06
  9.652811e-02    5.494363e-06
  9.682704e-02    5.518244e-06
  9.712597e-02    5.499858e-06
  9.742490e-02    5.524336e-06
  9.772383e-02    5.486475e-06
  9.802276e-02    5.454815e-06
  9.832169e-02    5.395056e-06
  9.862062e-02    5.377365e-06
  9.891956e-02    5.352977e-06
  9.921849e-02    5.319397e-06
  9.951742e-02    5.266419e-06
  9.981635e-02    5.310396e-06
  1.001153e-01    5.310571e-06
  1.004142e-01    5.308676e-06
  1.007131e-01    5.293654e-06
  1.010121e-01    5.258738e-06
  1.013110e-01    5.265902e-06
  1.016099e-01    5.281144e-06
  1.019089e-01    5.245421e-06
  1.022078e-01    5.225364e-06
  1.025067e-01    5.233004e-06
  1.028057e-01    5.208507e-06
  1.031046e-01    5.175762e-06
  1.034035e-01    5.155514e-06
  1.037024e-01    5.193607e-06
  1.040014e-01    5.211242e-06
  1.043003e-01    5.167971e-06
  1.045992e-01    5.147474e-06
  1.048982e-01    5.160260e-06
  1.051971e-01    5.119012e-06
  1.054960e-01    5.096798e-06
  1.057950e-01    5.098494e-06
  1.060939e-01    5.073593e-06
  1.063928e-01    5.072076e-06
  1.066917e-01    5.068732e-06
  1.069907e-01    5.115524e-06
  1.072896e-01    5.083782e-06
  1.075885e-01    5.062408e-06
  1.078875e-01    5.074779e-06
  1.081864e-01    5.054319e-06
  1.084853e-01    5.065550e-06
  1.087843e-01    5.028482e-06
  1.090832e-01    5.033010e-06
  1.093821e-01    5.009790e-06
  1.096810e-01    4.993180e-06
  1.099800e-01    4.973154e-06
  1.102789e-01    4.958245e-06
  1.105778e-01    4.949245e-06
  1.108768e-01    4.929454e-06
  1.111757e-01    4.916271e-06
  1.114746e-01    4.917878e-06
  1.117736e-01    4.892433e-06
  1.120725e-01    4.839489e-06
  1.123714e-01    4.836997e-06
  1.126704e-01    4.813283e-06
  1.129693e-01    4.831083e-06
  1.132682e-01    4.796535e-06
  1.135671e-01    4.719061e-06
  1.138661e-01    4.687988e-06
  1.141650e-01    4.732385e-06
  1.144639e-01    4.788798e-06
  1.147629e-01    4.800468e-06
  1.150618e-01    4.764463e-06
  1.153607e-01    4.734122e-06
  1.156597e-01    4.865575e-06
  1.159586e-01    4.812141e-06
  1.162575e-01    4.774589e-06
  1.165564e-01    4.782041e-06
  1.168554e-01    4.829123e-06
  1.171543e-01    4.783490e-06
  1.174532e-01    4.751724e-06
  1.177522e-01    4.849217e-06
  1.180511e-01    4.799301e-06
  1.183500e-01    4.712355e-06
  1.186490e-01    4.693840e-06
  1.189479e-01    4.719092e-06
  1.192468e-01    4.590997e-06
  1.195458e-01    4.484227e-06
  1.198447e-01    4.453302e-06
  1.201436e-01    4.404381e-06
  1.204425e-01    4.577498e-06
  1.207415e-01    5.013880e-06
  1.210404e-01    4.634783e-06
  1.213393e-01    0.000000e+00
  1.216383e-01    0.000000e+00
  1.219372e-01    0.000000e+00
  1.222361e-01    0.000000e+00
  1.225351e-01    0.000000e+00
  1.228340e-01    0.000000e+00
  1.231329e-01    0.000000e+00
  1.234318e-01    0.000000e+00
  1.237308e-01    0.000000e+00
  1.240297e-01    0.000000e+00
  1.243286e-01    0.000000e+00
  1.246276e-01    0.000000e+00
  1.249265e-01    0.000000e+00
  1.252254e-01    0.000000e+00
  1.255244e-01    0.000000e+00
  1.258233e-01    0.000000e+00
  1.261222e-01    0.000000e+00
  1.264212e-01    0.000000e+00
  1.267201e-01    0.000000e+00
  1.270190e-01    0.000000e+00
  1.273179e-01    0.000000e+00
  1.276169e-01    0.000000e+00
  1.279158e-01    0.000000e+00
  1.282147e-01    0.000000e+00
  1.285137e-01    0.000000e+00
  1.288126e-01    0.000000e+00
  1.291115e-01    0.000000e+00
  1.294105e-01    0.000000e+00
  1.297094e-01    0.000000e+00
  1.300083e-01    0.000000e+00
  1.303072e-01    0.000000e+00
  1.306062e-01    0.000000e+00
  1.309051e-01    0.000000e+00
  1.312040e-01    0.000000e+00
  1.315030e-01    0.000000e+00
  1.318019e-01    0.000000e+00
  1.321008e-01    0.000000e+00
  1.323998e-01    0.000000e+00
  1.326987e-01    0.000000e+00
  1.329976e-01    0.000000e+00
  1.332965e-01    0.000000e+00
  1.335955e-01    0.000000e+00
  1.338944e-01    0.000000e+00
  1.341933e-01    0.000000e+00
  1.344923e-01    0.000000e+00
  1.347912e-01    0.000000e+00
  1.350901e-01    0.000000e+00
  1.353891e-01    0.000000e+00
  1.356880e-01    0.000000e+00
  1.359869e-01    0.000000e+00
  1.362859e-01    0.000000e+00
  1.365848e-01    0.000000e+00
  1.368837e-01    0.000000e+00
  1.371826e-01    0.000000e+00
  1.374816e-01    0.000000e+00
  1.377805e-01    0.000000e+00
  1.380794e-01    0.000000e+00
  1.383784e-01    0.000000e+00
  1.386773e-01    0.000000e+00
  1.389762e-01    0.000000e+00
  1.392752e-01    0.000000e+00
  1.395741e-01    0.000000e+00
  1.398730e-01    0.000000e+00
  1.401719e-01    0.000000e+00
  1.404709e-01    0.000000e+00
  1.407698e-01    0.000000e+00
  1.410687e-01    0.000000e+00
  1.413677e-01    0.000000e+00
  1.416666e-01    0.000000e+00
  1.419655e-01    0.000000e+00
  1.422645e-01    0.000000e+00
  1.425634e-01    0.000000e+00
  1.428623e-01    0.000000e+00
  1.431613e-01    0.000000e+00
  1.434602e-01    0.000000e+00
  1.437591e-01    0.000000e+00
  1.440580e-01    0.000000e+00
  1.443570e-01    0.000000e+00
  1.446559e-01    0.000000e+00
  1.449548e-01    0.000000e+00
  1.452538e-01    0.000000e+00
  1.455527e-01    0.000000e+00
  1.458516e-01    0.000000e+00
  1.461506e-01    0.000000e+00
  1.464495e-01    0.000000e+00
  1.467484e-01    0.000000e+00
  1.470473e-01    0.000000e+00
  1.473463e-01    0.000000e+00
  1.476452e-01    0.000000e+00
  1.479441e-01    0.000000e+00
  1.482431e-01    0.000000e+00
  1.485420e-01    0.000000e+00
  1.488409e-01    0.000000e+00
  1.491399e-01    0.000000e+00
  1.494388e-01    0.000000e+00
  1.497377e-01    0.000000e+00
  1.500367e-01    0.000000e+00
  1.503356e-01    0.000000e+00
  1.506345e-01    0.000000e+00
  1.509334e-01    0.000000e+00
  1.512324e-01    0.000000e+00
  1.515313e-01    0.000000e+00
  1.518302e-01    0.000000e+00
  1.521292e-01    0.000000e+00
  1.524281e-01    0.000000e+00
  1.527270e-01    0.000000e+00
  1.530260e-01    0.000000e+00
  1.533249e-01    0.000000e+00
  1.536238e-01    0.000000e+00
