# == pyFAI calibration ==
# Distance Sample to Detector: 2.266 m
# PONI: 5.659e-02, 4.293e-02 m
# Rotations: 0.000000 0.000000 0.000000 rad
# 
# == Fit2d calibration ==
# Distance Sample-beamCenter: 2266.000 mm
# Center: x=249.594, y=329.012 pix
# Tilt: 0.000 deg  TiltPlanRot: 0.000 deg
# 
# Detector Pilatus 300k	 PixelSize= 1.720e-04, 1.720e-04 m
#    Detector has a mask: True 
#    Detector has a dark current: False 
#    detector has a flat field: False 
# 
# Wavelength: 1.27818e-10 m
# Mask applied: user provided
# Dark current applied: False
# Flat field applied: False
# Polarization factor: None
# Normalization factor: 65870.99
# --> MT-latex_CL3252_TiO2_R706_phiT_0.070_PVC_0.000_DOP_0.000_0_r1d.csv
#        q_A^-1             I 
  4.457554e-03    2.825032e-02
  4.756484e-03    2.204922e-02
  5.055415e-03    1.573061e-02
  5.354345e-03    1.103034e-02
  5.653276e-03    8.533332e-03
  5.952206e-03    1.387062e-02
  6.251136e-03    1.270080e-02
  6.550067e-03    1.104124e-02
  6.848997e-03    9.341962e-03
  7.147927e-03    7.891231e-03
  7.446858e-03    6.744083e-03
  7.745788e-03    5.754819e-03
  8.044719e-03    4.962476e-03
  8.343649e-03    4.326596e-03
  8.642579e-03    3.790363e-03
  8.941510e-03    3.342925e-03
  9.240440e-03    2.966541e-03
  9.539371e-03    2.621169e-03
  9.838301e-03    2.332334e-03
  1.013723e-02    2.090943e-03
  1.043616e-02    1.871071e-03
  1.073509e-02    1.691909e-03
  1.103402e-02    1.540644e-03
  1.133295e-02    1.391810e-03
  1.163188e-02    1.274636e-03
  1.193081e-02    1.162721e-03
  1.222974e-02    1.056484e-03
  1.252867e-02    9.690502e-04
  1.282760e-02    8.923883e-04
  1.312654e-02    8.210888e-04
  1.342547e-02    7.678103e-04
  1.372440e-02    7.156521e-04
  1.402333e-02    6.662032e-04
  1.432226e-02    6.189072e-04
  1.462119e-02    5.762932e-04
  1.492012e-02    5.334803e-04
  1.521905e-02    4.980116e-04
  1.551798e-02    4.702219e-04
  1.581691e-02    4.472104e-04
  1.611584e-02    4.184251e-04
  1.641477e-02    3.876766e-04
  1.671370e-02    3.686697e-04
  1.701263e-02    3.518244e-04
  1.731156e-02    3.334131e-04
  1.761049e-02    3.199589e-04
  1.790942e-02    3.057464e-04
  1.820835e-02    2.950251e-04
  1.850728e-02    2.784737e-04
  1.880621e-02    2.633996e-04
  1.910514e-02    2.522290e-04
  1.940407e-02    2.417664e-04
  1.970300e-02    2.319794e-04
  2.000193e-02    2.238971e-04
  2.030086e-02    2.159562e-04
  2.059979e-02    2.065129e-04
  2.089873e-02    2.018405e-04
  2.119766e-02    1.970239e-04
  2.149659e-02    1.853161e-04
  2.179552e-02    1.814338e-04
  2.209445e-02    1.785042e-04
  2.239338e-02    1.707640e-04
  2.269231e-02    1.659749e-04
  2.299124e-02    1.623194e-04
  2.329017e-02    1.589337e-04
  2.358910e-02    1.546399e-04
  2.388803e-02    1.531298e-04
  2.418696e-02    1.507038e-04
  2.448589e-02    1.426492e-04
  2.478482e-02    1.396325e-04
  2.508375e-02    1.377443e-04
  2.538268e-02    1.337995e-04
  2.568161e-02    1.324229e-04
  2.598054e-02    1.315451e-04
  2.627947e-02    1.297899e-04
  2.657840e-02    1.263983e-04
  2.687733e-02    1.252430e-04
  2.717626e-02    1.241673e-04
  2.747519e-02    1.215092e-04
  2.777412e-02    1.215853e-04
  2.807305e-02    1.202616e-04
  2.837198e-02    1.170644e-04
  2.867092e-02    1.140043e-04
  2.896985e-02    1.136578e-04
  2.926878e-02    1.129637e-04
  2.956771e-02    1.125265e-04
  2.986664e-02    1.102190e-04
  3.016557e-02    1.083111e-04
  3.046450e-02    1.078468e-04
  3.076343e-02    1.085956e-04
  3.106236e-02    1.057383e-04
  3.136129e-02    1.045801e-04
  3.166022e-02    1.029334e-04
  3.195915e-02    1.030137e-04
  3.225808e-02    1.024893e-04
  3.255701e-02    1.016767e-04
  3.285594e-02    1.011991e-04
  3.315487e-02    9.832766e-05
  3.345380e-02    9.532208e-05
  3.375273e-02    9.471815e-05
  3.405166e-02    9.411357e-05
  3.435059e-02    9.424000e-05
  3.464952e-02    9.295855e-05
  3.494845e-02    9.416376e-05
  3.524738e-02    9.216226e-05
  3.554631e-02    9.086492e-05
  3.584524e-02    8.928723e-05
  3.614417e-02    8.758848e-05
  3.644310e-02    8.791987e-05
  3.674204e-02    8.855357e-05
  3.704097e-02    8.936985e-05
  3.733990e-02    8.871648e-05
  3.763883e-02    8.637812e-05
  3.793776e-02    8.625105e-05
  3.823669e-02    8.569049e-05
  3.853562e-02    8.666331e-05
  3.883455e-02    8.459380e-05
  3.913348e-02    8.334326e-05
  3.943241e-02    8.403316e-05
  3.973134e-02    8.433758e-05
  4.003027e-02    8.355505e-05
  4.032920e-02    8.317992e-05
  4.062813e-02    8.178325e-05
  4.092706e-02    8.367842e-05
  4.122599e-02    8.361299e-05
  4.152492e-02    8.286833e-05
  4.182385e-02    8.204098e-05
  4.212278e-02    8.177777e-05
  4.242171e-02    8.221405e-05
  4.272064e-02    8.091587e-05
  4.301957e-02    8.161602e-05
  4.331850e-02    8.193967e-05
  4.361743e-02    7.985120e-05
  4.391636e-02    7.950838e-05
  4.421529e-02    7.898939e-05
  4.451423e-02    7.799995e-05
  4.481316e-02    8.041631e-05
  4.511209e-02    8.037208e-05
  4.541102e-02    7.873319e-05
  4.570995e-02    7.934093e-05
  4.600888e-02    8.063432e-05
  4.630781e-02    7.717292e-05
  4.660674e-02    7.681666e-05
  4.690567e-02    7.814095e-05
  4.720460e-02    7.825689e-05
  4.750353e-02    7.770818e-05
  4.780246e-02    7.731853e-05
  4.810139e-02    7.850596e-05
  4.840032e-02    7.842400e-05
  4.869925e-02    7.755808e-05
  4.899818e-02    7.731048e-05
  4.929711e-02    7.812858e-05
  4.959604e-02    7.940928e-05
  4.989497e-02    7.820697e-05
  5.019390e-02    7.681465e-05
  5.049283e-02    7.709098e-05
  5.079176e-02    7.745477e-05
  5.109069e-02    7.840108e-05
  5.138962e-02    7.917258e-05
  5.168855e-02    7.863989e-05
  5.198748e-02    7.902282e-05
  5.228642e-02    8.002491e-05
  5.258535e-02    7.839735e-05
  5.288428e-02    7.777815e-05
  5.318321e-02    7.682286e-05
  5.348214e-02    7.793878e-05
  5.378107e-02    7.857294e-05
  5.408000e-02    7.823596e-05
  5.437893e-02    7.841927e-05
  5.467786e-02    7.904419e-05
  5.497679e-02    7.896191e-05
  5.527572e-02    7.865697e-05
  5.557465e-02    7.933288e-05
  5.587358e-02    7.914974e-05
  5.617251e-02    7.665788e-05
  5.647144e-02    7.734657e-05
  5.677037e-02    7.851007e-05
  5.706930e-02    7.798611e-05
  5.736823e-02    7.874137e-05
  5.766716e-02    7.982789e-05
  5.796609e-02    7.867636e-05
  5.826502e-02    7.841537e-05
  5.856395e-02    7.972681e-05
  5.886288e-02    7.990986e-05
  5.916181e-02    7.932436e-05
  5.946074e-02    7.888415e-05
  5.975967e-02    7.971688e-05
  6.005861e-02    7.797477e-05
  6.035754e-02    7.826792e-05
  6.065647e-02    7.987526e-05
  6.095540e-02    7.960967e-05
  6.125433e-02    8.015171e-05
  6.155326e-02    8.107486e-05
  6.185219e-02    8.124336e-05
  6.215112e-02    8.196636e-05
  6.245005e-02    8.074497e-05
  6.274898e-02    7.991447e-05
  6.304791e-02    8.015709e-05
  6.334684e-02    7.978451e-05
  6.364577e-02    7.952254e-05
  6.394470e-02    8.053186e-05
  6.424363e-02    8.118503e-05
  6.454256e-02    8.024096e-05
  6.484149e-02    8.001918e-05
  6.514042e-02    8.021384e-05
  6.543935e-02    7.983430e-05
  6.573828e-02    8.111639e-05
  6.603721e-02    8.137190e-05
  6.633614e-02    8.158241e-05
  6.663507e-02    8.128868e-05
  6.693400e-02    8.278585e-05
  6.723293e-02    8.273742e-05
  6.753186e-02    8.271387e-05
  6.783080e-02    8.183516e-05
  6.812973e-02    8.254353e-05
  6.842866e-02    8.324816e-05
  6.872759e-02    8.273940e-05
  6.902652e-02    8.264918e-05
  6.932545e-02    8.373874e-05
  6.962438e-02    8.387501e-05
  6.992331e-02    8.303156e-05
  7.022224e-02    8.253071e-05
  7.052117e-02    8.390056e-05
  7.082010e-02    8.246909e-05
  7.111903e-02    8.149035e-05
  7.141796e-02    8.286568e-05
  7.171689e-02    8.180515e-05
  7.201582e-02    8.172399e-05
  7.231475e-02    8.315737e-05
  7.261368e-02    8.416589e-05
  7.291261e-02    8.283876e-05
  7.321154e-02    8.294488e-05
  7.351047e-02    8.124422e-05
  7.380940e-02    8.078958e-05
  7.410833e-02    8.224494e-05
  7.440726e-02    8.361858e-05
  7.470619e-02    8.298438e-05
  7.500512e-02    8.275239e-05
  7.530405e-02    8.295839e-05
  7.560299e-02    8.402750e-05
  7.590192e-02    8.487654e-05
  7.620085e-02    8.344847e-05
  7.649978e-02    8.319265e-05
  7.679871e-02    8.383933e-05
  7.709764e-02    8.414918e-05
  7.739657e-02    8.286202e-05
  7.769550e-02    8.278740e-05
  7.799443e-02    8.224483e-05
  7.829336e-02    8.289905e-05
  7.859229e-02    8.445456e-05
  7.889122e-02    8.347001e-05
  7.919015e-02    8.326169e-05
  7.948908e-02    8.374951e-05
  7.978801e-02    8.369568e-05
  8.008694e-02    8.334433e-05
  8.038587e-02    8.315354e-05
  8.068480e-02    8.476309e-05
  8.098373e-02    8.367659e-05
  8.128266e-02    8.101377e-05
  8.158159e-02    8.115489e-05
  8.188052e-02    8.108157e-05
  8.217945e-02    8.114272e-05
  8.247838e-02    8.141405e-05
  8.277731e-02    8.085475e-05
  8.307624e-02    8.250171e-05
  8.337518e-02    8.222339e-05
  8.367411e-02    8.104733e-05
  8.397304e-02    8.232407e-05
  8.427197e-02    8.287117e-05
  8.457090e-02    8.117565e-05
  8.486983e-02    8.097133e-05
  8.516876e-02    8.184709e-05
  8.546769e-02    8.117082e-05
  8.576662e-02    8.106484e-05
  8.606555e-02    8.160860e-05
  8.636448e-02    8.028482e-05
  8.666341e-02    8.045263e-05
  8.696234e-02    8.137285e-05
  8.726127e-02    8.167701e-05
  8.756020e-02    8.096981e-05
  8.785913e-02    7.980872e-05
  8.815806e-02    7.966800e-05
  8.845699e-02    7.977048e-05
  8.875592e-02    7.937220e-05
  8.905485e-02    8.011291e-05
  8.935378e-02    8.020434e-05
  8.965271e-02    7.994212e-05
  8.995164e-02    7.890481e-05
  9.025057e-02    7.844246e-05
  9.054950e-02    7.896187e-05
  9.084843e-02    7.881844e-05
  9.114737e-02    7.781138e-05
  9.144630e-02    7.786595e-05
  9.174523e-02    7.877302e-05
  9.204416e-02    7.816022e-05
  9.234309e-02    7.762853e-05
  9.264202e-02    7.766218e-05
  9.294095e-02    7.746868e-05
  9.323988e-02    7.905761e-05
  9.353881e-02    7.872918e-05
  9.383774e-02    7.798582e-05
  9.413667e-02    7.777754e-05
  9.443560e-02    7.749166e-05
  9.473453e-02    7.602359e-05
  9.503346e-02    7.813911e-05
  9.533239e-02    7.688027e-05
  9.563132e-02    7.656489e-05
  9.593025e-02    7.690975e-05
  9.622918e-02    7.717407e-05
  9.652811e-02    7.728118e-05
  9.682704e-02    7.623374e-05
  9.712597e-02    7.618895e-05
  9.742490e-02    7.647597e-05
  9.772383e-02    7.502115e-05
  9.802276e-02    7.400795e-05
  9.832169e-02    7.441125e-05
  9.862062e-02    7.523195e-05
  9.891956e-02    7.512464e-05
  9.921849e-02    7.529842e-05
  9.951742e-02    7.532795e-05
  9.981635e-02    7.442628e-05
  1.001153e-01    7.463284e-05
  1.004142e-01    7.482434e-05
  1.007131e-01    7.448101e-05
  1.010121e-01    7.471044e-05
  1.013110e-01    7.397924e-05
  1.016099e-01    7.330447e-05
  1.019089e-01    7.303234e-05
  1.022078e-01    7.391396e-05
  1.025067e-01    7.309282e-05
  1.028057e-01    7.280320e-05
  1.031046e-01    7.398650e-05
  1.034035e-01    7.403327e-05
  1.037024e-01    7.510695e-05
  1.040014e-01    7.470936e-05
  1.043003e-01    7.378992e-05
  1.045992e-01    7.388644e-05
  1.048982e-01    7.291023e-05
  1.051971e-01    7.229255e-05
  1.054960e-01    7.158898e-05
  1.057950e-01    7.170951e-05
  1.060939e-01    7.288812e-05
  1.063928e-01    7.244338e-05
  1.066917e-01    7.041780e-05
  1.069907e-01    7.081890e-05
  1.072896e-01    7.309965e-05
  1.075885e-01    7.273283e-05
  1.078875e-01    7.133505e-05
  1.081864e-01    7.147714e-05
  1.084853e-01    7.037842e-05
  1.087843e-01    7.079013e-05
  1.090832e-01    7.011638e-05
  1.093821e-01    6.995915e-05
  1.096810e-01    6.998434e-05
  1.099800e-01    7.028769e-05
  1.102789e-01    7.105830e-05
  1.105778e-01    7.075234e-05
  1.108768e-01    6.957448e-05
  1.111757e-01    6.884089e-05
  1.114746e-01    6.890667e-05
  1.117736e-01    6.881023e-05
  1.120725e-01    6.781240e-05
  1.123714e-01    6.770492e-05
  1.126704e-01    6.950146e-05
  1.129693e-01    6.796481e-05
  1.132682e-01    6.599738e-05
  1.135671e-01    6.592654e-05
  1.138661e-01    6.948136e-05
  1.141650e-01    6.914880e-05
  1.144639e-01    6.696089e-05
  1.147629e-01    6.693957e-05
  1.150618e-01    6.684048e-05
  1.153607e-01    6.699775e-05
  1.156597e-01    6.693235e-05
  1.159586e-01    6.858191e-05
  1.162575e-01    6.840380e-05
  1.165564e-01    6.859326e-05
  1.168554e-01    6.731876e-05
  1.171543e-01    6.615111e-05
  1.174532e-01    6.808258e-05
  1.177522e-01    6.845271e-05
  1.180511e-01    6.700707e-05
  1.183500e-01    6.631444e-05
  1.186490e-01    6.467809e-05
  1.189479e-01    6.508274e-05
  1.192468e-01    6.541277e-05
  1.195458e-01    6.395144e-05
  1.198447e-01    6.349025e-05
  1.201436e-01    6.182988e-05
  1.204425e-01    5.968405e-05
  1.207415e-01    5.156540e-05
  1.210404e-01    7.597471e-05
  1.213393e-01    0.000000e+00
  1.216383e-01    0.000000e+00
  1.219372e-01    0.000000e+00
  1.222361e-01    0.000000e+00
  1.225351e-01    0.000000e+00
  1.228340e-01    0.000000e+00
  1.231329e-01    0.000000e+00
  1.234318e-01    0.000000e+00
  1.237308e-01    0.000000e+00
  1.240297e-01    0.000000e+00
  1.243286e-01    0.000000e+00
  1.246276e-01    0.000000e+00
  1.249265e-01    0.000000e+00
  1.252254e-01    0.000000e+00
  1.255244e-01    0.000000e+00
  1.258233e-01    0.000000e+00
  1.261222e-01    0.000000e+00
  1.264212e-01    0.000000e+00
  1.267201e-01    0.000000e+00
  1.270190e-01    0.000000e+00
  1.273179e-01    0.000000e+00
  1.276169e-01    0.000000e+00
  1.279158e-01    0.000000e+00
  1.282147e-01    0.000000e+00
  1.285137e-01    0.000000e+00
  1.288126e-01    0.000000e+00
  1.291115e-01    0.000000e+00
  1.294105e-01    0.000000e+00
  1.297094e-01    0.000000e+00
  1.300083e-01    0.000000e+00
  1.303072e-01    0.000000e+00
  1.306062e-01    0.000000e+00
  1.309051e-01    0.000000e+00
  1.312040e-01    0.000000e+00
  1.315030e-01    0.000000e+00
  1.318019e-01    0.000000e+00
  1.321008e-01    0.000000e+00
  1.323998e-01    0.000000e+00
  1.326987e-01    0.000000e+00
  1.329976e-01    0.000000e+00
  1.332965e-01    0.000000e+00
  1.335955e-01    0.000000e+00
  1.338944e-01    0.000000e+00
  1.341933e-01    0.000000e+00
  1.344923e-01    0.000000e+00
  1.347912e-01    0.000000e+00
  1.350901e-01    0.000000e+00
  1.353891e-01    0.000000e+00
  1.356880e-01    0.000000e+00
  1.359869e-01    0.000000e+00
  1.362859e-01    0.000000e+00
  1.365848e-01    0.000000e+00
  1.368837e-01    0.000000e+00
  1.371826e-01    0.000000e+00
  1.374816e-01    0.000000e+00
  1.377805e-01    0.000000e+00
  1.380794e-01    0.000000e+00
  1.383784e-01    0.000000e+00
  1.386773e-01    0.000000e+00
  1.389762e-01    0.000000e+00
  1.392752e-01    0.000000e+00
  1.395741e-01    0.000000e+00
  1.398730e-01    0.000000e+00
  1.401719e-01    0.000000e+00
  1.404709e-01    0.000000e+00
  1.407698e-01    0.000000e+00
  1.410687e-01    0.000000e+00
  1.413677e-01    0.000000e+00
  1.416666e-01    0.000000e+00
  1.419655e-01    0.000000e+00
  1.422645e-01    0.000000e+00
  1.425634e-01    0.000000e+00
  1.428623e-01    0.000000e+00
  1.431613e-01    0.000000e+00
  1.434602e-01    0.000000e+00
  1.437591e-01    0.000000e+00
  1.440580e-01    0.000000e+00
  1.443570e-01    0.000000e+00
  1.446559e-01    0.000000e+00
  1.449548e-01    0.000000e+00
  1.452538e-01    0.000000e+00
  1.455527e-01    0.000000e+00
  1.458516e-01    0.000000e+00
  1.461506e-01    0.000000e+00
  1.464495e-01    0.000000e+00
  1.467484e-01    0.000000e+00
  1.470473e-01    0.000000e+00
  1.473463e-01    0.000000e+00
  1.476452e-01    0.000000e+00
  1.479441e-01    0.000000e+00
  1.482431e-01    0.000000e+00
  1.485420e-01    0.000000e+00
  1.488409e-01    0.000000e+00
  1.491399e-01    0.000000e+00
  1.494388e-01    0.000000e+00
  1.497377e-01    0.000000e+00
  1.500367e-01    0.000000e+00
  1.503356e-01    0.000000e+00
  1.506345e-01    0.000000e+00
  1.509334e-01    0.000000e+00
  1.512324e-01    0.000000e+00
  1.515313e-01    0.000000e+00
  1.518302e-01    0.000000e+00
  1.521292e-01    0.000000e+00
  1.524281e-01    0.000000e+00
  1.527270e-01    0.000000e+00
  1.530260e-01    0.000000e+00
  1.533249e-01    0.000000e+00
  1.536238e-01    0.000000e+00
