# == pyFAI calibration ==
# Distance Sample to Detector: 2.266 m
# PONI: 5.659e-02, 4.293e-02 m
# Rotations: 0.000000 0.000000 0.000000 rad
# 
# == Fit2d calibration ==
# Distance Sample-beamCenter: 2266.000 mm
# Center: x=249.594, y=329.012 pix
# Tilt: 0.000 deg  TiltPlanRot: 0.000 deg
# 
# Detector Pilatus 300k	 PixelSize= 1.720e-04, 1.720e-04 m
#    Detector has a mask: True 
#    Detector has a dark current: False 
#    detector has a flat field: False 
# 
# Wavelength: 1.27818e-10 m
# Mask applied: user provided
# Dark current applied: False
# Flat field applied: False
# Polarization factor: None
# Normalization factor: 6201.5
# --> MT-latex_CL3252_TiO2_R706_phiT_0.090_PVC_0.200_DOP_0.010_2_r1d.csv
#        q_A^-1             I 
  4.457554e-03    6.520305e-02
  4.756484e-03    5.363163e-02
  5.055415e-03    3.898980e-02
  5.354345e-03    2.915686e-02
  5.653276e-03    2.256791e-02
  5.952206e-03    4.020007e-02
  6.251136e-03    3.710927e-02
  6.550067e-03    3.201759e-02
  6.848997e-03    2.706135e-02
  7.147927e-03    2.245430e-02
  7.446858e-03    1.900989e-02
  7.745788e-03    1.616726e-02
  8.044719e-03    1.368515e-02
  8.343649e-03    1.173388e-02
  8.642579e-03    1.030158e-02
  8.941510e-03    9.007241e-03
  9.240440e-03    7.860156e-03
  9.539371e-03    6.993068e-03
  9.838301e-03    6.091291e-03
  1.013723e-02    5.226814e-03
  1.043616e-02    4.713270e-03
  1.073509e-02    4.229425e-03
  1.103402e-02    3.700208e-03
  1.133295e-02    3.355686e-03
  1.163188e-02    3.103920e-03
  1.193081e-02    2.854518e-03
  1.222974e-02    2.597827e-03
  1.252867e-02    2.358463e-03
  1.282760e-02    2.164584e-03
  1.312654e-02    1.910142e-03
  1.342547e-02    1.718162e-03
  1.372440e-02    1.619747e-03
  1.402333e-02    1.501619e-03
  1.432226e-02    1.413013e-03
  1.462119e-02    1.329867e-03
  1.492012e-02    1.205910e-03
  1.521905e-02    1.136093e-03
  1.551798e-02    1.036252e-03
  1.581691e-02    9.881761e-04
  1.611584e-02    9.104378e-04
  1.641477e-02    8.304496e-04
  1.671370e-02    7.927328e-04
  1.701263e-02    7.684983e-04
  1.731156e-02    7.104610e-04
  1.761049e-02    6.642829e-04
  1.790942e-02    6.277894e-04
  1.820835e-02    5.782531e-04
  1.850728e-02    5.429097e-04
  1.880621e-02    5.314047e-04
  1.910514e-02    5.350214e-04
  1.940407e-02    5.010630e-04
  1.970300e-02    4.439098e-04
  2.000193e-02    4.438289e-04
  2.030086e-02    4.155293e-04
  2.059979e-02    3.777973e-04
  2.089873e-02    3.702397e-04
  2.119766e-02    3.582443e-04
  2.149659e-02    3.445809e-04
  2.179552e-02    3.325933e-04
  2.209445e-02    3.200616e-04
  2.239338e-02    3.178113e-04
  2.269231e-02    3.131766e-04
  2.299124e-02    2.934255e-04
  2.329017e-02    2.796593e-04
  2.358910e-02    2.683960e-04
  2.388803e-02    2.504882e-04
  2.418696e-02    2.588478e-04
  2.448589e-02    2.603062e-04
  2.478482e-02    2.523364e-04
  2.508375e-02    2.406647e-04
  2.538268e-02    2.304843e-04
  2.568161e-02    2.273600e-04
  2.598054e-02    2.303436e-04
  2.627947e-02    2.239703e-04
  2.657840e-02    2.284907e-04
  2.687733e-02    2.262830e-04
  2.717626e-02    2.131042e-04
  2.747519e-02    2.060511e-04
  2.777412e-02    2.058037e-04
  2.807305e-02    2.033303e-04
  2.837198e-02    1.976982e-04
  2.867092e-02    1.869025e-04
  2.896985e-02    1.864123e-04
  2.926878e-02    1.767092e-04
  2.956771e-02    1.801522e-04
  2.986664e-02    1.909198e-04
  3.016557e-02    1.807921e-04
  3.046450e-02    1.784256e-04
  3.076343e-02    1.758191e-04
  3.106236e-02    1.586561e-04
  3.136129e-02    1.606556e-04
  3.166022e-02    1.730806e-04
  3.195915e-02    1.585016e-04
  3.225808e-02    1.531093e-04
  3.255701e-02    1.537466e-04
  3.285594e-02    1.520761e-04
  3.315487e-02    1.571755e-04
  3.345380e-02    1.554093e-04
  3.375273e-02    1.493273e-04
  3.405166e-02    1.418839e-04
  3.435059e-02    1.418891e-04
  3.464952e-02    1.465144e-04
  3.494845e-02    1.393643e-04
  3.524738e-02    1.347559e-04
  3.554631e-02    1.316147e-04
  3.584524e-02    1.367356e-04
  3.614417e-02    1.344197e-04
  3.644310e-02    1.412895e-04
  3.674204e-02    1.408412e-04
  3.704097e-02    1.289730e-04
  3.733990e-02    1.228979e-04
  3.763883e-02    1.277619e-04
  3.793776e-02    1.302334e-04
  3.823669e-02    1.247989e-04
  3.853562e-02    1.223784e-04
  3.883455e-02    1.237828e-04
  3.913348e-02    1.304287e-04
  3.943241e-02    1.222888e-04
  3.973134e-02    1.204807e-04
  4.003027e-02    1.162106e-04
  4.032920e-02    1.180959e-04
  4.062813e-02    1.147108e-04
  4.092706e-02    1.159508e-04
  4.122599e-02    1.233094e-04
  4.152492e-02    1.257263e-04
  4.182385e-02    1.134842e-04
  4.212278e-02    1.126878e-04
  4.242171e-02    1.174484e-04
  4.272064e-02    1.173637e-04
  4.301957e-02    1.145392e-04
  4.331850e-02    1.170647e-04
  4.361743e-02    1.105289e-04
  4.391636e-02    1.103532e-04
  4.421529e-02    1.166812e-04
  4.451423e-02    1.124015e-04
  4.481316e-02    1.146622e-04
  4.511209e-02    1.171445e-04
  4.541102e-02    1.138699e-04
  4.570995e-02    1.140179e-04
  4.600888e-02    1.131675e-04
  4.630781e-02    1.138912e-04
  4.660674e-02    1.135345e-04
  4.690567e-02    1.085892e-04
  4.720460e-02    1.069123e-04
  4.750353e-02    1.089471e-04
  4.780246e-02    1.110742e-04
  4.810139e-02    1.117060e-04
  4.840032e-02    1.123908e-04
  4.869925e-02    1.123503e-04
  4.899818e-02    1.113194e-04
  4.929711e-02    1.105231e-04
  4.959604e-02    1.098053e-04
  4.989497e-02    1.047562e-04
  5.019390e-02    1.095402e-04
  5.049283e-02    1.110705e-04
  5.079176e-02    1.093821e-04
  5.109069e-02    1.112565e-04
  5.138962e-02    1.093591e-04
  5.168855e-02    1.166990e-04
  5.198748e-02    1.196480e-04
  5.228642e-02    1.170780e-04
  5.258535e-02    1.041107e-04
  5.288428e-02    1.071513e-04
  5.318321e-02    1.120900e-04
  5.348214e-02    1.097620e-04
  5.378107e-02    1.054556e-04
  5.408000e-02    1.116777e-04
  5.437893e-02    1.080325e-04
  5.467786e-02    1.077965e-04
  5.497679e-02    1.036975e-04
  5.527572e-02    1.017307e-04
  5.557465e-02    1.033567e-04
  5.587358e-02    1.089822e-04
  5.617251e-02    1.090977e-04
  5.647144e-02    1.065590e-04
  5.677037e-02    1.043740e-04
  5.706930e-02    1.020726e-04
  5.736823e-02    1.042905e-04
  5.766716e-02    1.078610e-04
  5.796609e-02    1.061514e-04
  5.826502e-02    1.081709e-04
  5.856395e-02    1.109686e-04
  5.886288e-02    1.044756e-04
  5.916181e-02    1.052885e-04
  5.946074e-02    1.089693e-04
  5.975967e-02    1.080632e-04
  6.005861e-02    1.053000e-04
  6.035754e-02    1.059666e-04
  6.065647e-02    1.030009e-04
  6.095540e-02    1.108068e-04
  6.125433e-02    1.090915e-04
  6.155326e-02    1.123086e-04
  6.185219e-02    1.123674e-04
  6.215112e-02    1.068907e-04
  6.245005e-02    1.059312e-04
  6.274898e-02    1.089522e-04
  6.304791e-02    1.068641e-04
  6.334684e-02    1.050922e-04
  6.364577e-02    1.118541e-04
  6.394470e-02    1.131786e-04
  6.424363e-02    1.069657e-04
  6.454256e-02    1.080773e-04
  6.484149e-02    1.131270e-04
  6.514042e-02    1.131386e-04
  6.543935e-02    1.073133e-04
  6.573828e-02    1.059552e-04
  6.603721e-02    1.094676e-04
  6.633614e-02    1.113422e-04
  6.663507e-02    1.100264e-04
  6.693400e-02    1.107324e-04
  6.723293e-02    1.048836e-04
  6.753186e-02    1.041863e-04
  6.783080e-02    1.096316e-04
  6.812973e-02    1.127516e-04
  6.842866e-02    1.144739e-04
  6.872759e-02    1.097331e-04
  6.902652e-02    1.061067e-04
  6.932545e-02    1.083355e-04
  6.962438e-02    1.095471e-04
  6.992331e-02    1.128017e-04
  7.022224e-02    1.123403e-04
  7.052117e-02    1.111875e-04
  7.082010e-02    1.142744e-04
  7.111903e-02    1.156275e-04
  7.141796e-02    1.158042e-04
  7.171689e-02    1.119164e-04
  7.201582e-02    1.145339e-04
  7.231475e-02    1.166562e-04
  7.261368e-02    1.143778e-04
  7.291261e-02    1.101898e-04
  7.321154e-02    1.120404e-04
  7.351047e-02    1.107799e-04
  7.380940e-02    1.060766e-04
  7.410833e-02    1.070050e-04
  7.440726e-02    1.081688e-04
  7.470619e-02    1.088601e-04
  7.500512e-02    1.117317e-04
  7.530405e-02    1.095349e-04
  7.560299e-02    1.121736e-04
  7.590192e-02    1.128173e-04
  7.620085e-02    1.048967e-04
  7.649978e-02    1.109275e-04
  7.679871e-02    1.120222e-04
  7.709764e-02    1.116867e-04
  7.739657e-02    1.147504e-04
  7.769550e-02    1.160735e-04
  7.799443e-02    1.113768e-04
  7.829336e-02    1.063403e-04
  7.859229e-02    1.082555e-04
  7.889122e-02    1.052774e-04
  7.919015e-02    1.043391e-04
  7.948908e-02    1.087224e-04
  7.978801e-02    1.104185e-04
  8.008694e-02    1.078811e-04
  8.038587e-02    1.101218e-04
  8.068480e-02    1.085084e-04
  8.098373e-02    1.030265e-04
  8.128266e-02    1.145093e-04
  8.158159e-02    1.169446e-04
  8.188052e-02    1.155349e-04
  8.217945e-02    1.122858e-04
  8.247838e-02    1.103480e-04
  8.277731e-02    1.072633e-04
  8.307624e-02    1.086140e-04
  8.337518e-02    1.084308e-04
  8.367411e-02    1.057580e-04
  8.397304e-02    1.074600e-04
  8.427197e-02    1.100775e-04
  8.457090e-02    1.044152e-04
  8.486983e-02    1.082783e-04
  8.516876e-02    1.108863e-04
  8.546769e-02    1.029444e-04
  8.576662e-02    1.047777e-04
  8.606555e-02    1.070827e-04
  8.636448e-02    1.003077e-04
  8.666341e-02    1.001937e-04
  8.696234e-02    1.033579e-04
  8.726127e-02    1.036437e-04
  8.756020e-02    1.046914e-04
  8.785913e-02    1.100378e-04
  8.815806e-02    1.123759e-04
  8.845699e-02    1.069280e-04
  8.875592e-02    1.023449e-04
  8.905485e-02    1.027938e-04
  8.935378e-02    9.998916e-05
  8.965271e-02    9.831564e-05
  8.995164e-02    1.018550e-04
  9.025057e-02    1.045240e-04
  9.054950e-02    1.019596e-04
  9.084843e-02    1.051358e-04
  9.114737e-02    1.014058e-04
  9.144630e-02    1.011134e-04
  9.174523e-02    1.020398e-04
  9.204416e-02    1.000275e-04
  9.234309e-02    1.011575e-04
  9.264202e-02    1.035704e-04
  9.294095e-02    1.034514e-04
  9.323988e-02    1.077562e-04
  9.353881e-02    1.033875e-04
  9.383774e-02    1.014389e-04
  9.413667e-02    1.008787e-04
  9.443560e-02    1.004252e-04
  9.473453e-02    1.068667e-04
  9.503346e-02    1.048995e-04
  9.533239e-02    9.962234e-05
  9.563132e-02    9.869075e-05
  9.593025e-02    1.010315e-04
  9.622918e-02    1.024648e-04
  9.652811e-02    1.039915e-04
  9.682704e-02    1.039966e-04
  9.712597e-02    1.067727e-04
  9.742490e-02    1.031049e-04
  9.772383e-02    9.489193e-05
  9.802276e-02    9.284076e-05
  9.832169e-02    9.415836e-05
  9.862062e-02    9.563473e-05
  9.891956e-02    9.632255e-05
  9.921849e-02    9.851394e-05
  9.951742e-02    9.206653e-05
  9.981635e-02    9.278688e-05
  1.001153e-01    9.762296e-05
  1.004142e-01    9.911507e-05
  1.007131e-01    9.738158e-05
  1.010121e-01    9.670363e-05
  1.013110e-01    9.641973e-05
  1.016099e-01    9.288167e-05
  1.019089e-01    9.487383e-05
  1.022078e-01    9.758656e-05
  1.025067e-01    9.987683e-05
  1.028057e-01    9.622113e-05
  1.031046e-01    9.571305e-05
  1.034035e-01    9.590337e-05
  1.037024e-01    9.307948e-05
  1.040014e-01    9.263756e-05
  1.043003e-01    8.914719e-05
  1.045992e-01    9.214323e-05
  1.048982e-01    9.833079e-05
  1.051971e-01    9.870248e-05
  1.054960e-01    9.724922e-05
  1.057950e-01    9.354443e-05
  1.060939e-01    9.300194e-05
  1.063928e-01    9.385515e-05
  1.066917e-01    9.414156e-05
  1.069907e-01    9.243267e-05
  1.072896e-01    9.331622e-05
  1.075885e-01    9.290580e-05
  1.078875e-01    9.293385e-05
  1.081864e-01    9.466520e-05
  1.084853e-01    9.212484e-05
  1.087843e-01    9.304447e-05
  1.090832e-01    9.284025e-05
  1.093821e-01    9.429987e-05
  1.096810e-01    9.479695e-05
  1.099800e-01    8.770359e-05
  1.102789e-01    8.695509e-05
  1.105778e-01    9.233664e-05
  1.108768e-01    9.490707e-05
  1.111757e-01    8.914697e-05
  1.114746e-01    8.725554e-05
  1.117736e-01    9.301058e-05
  1.120725e-01    9.167215e-05
  1.123714e-01    9.137582e-05
  1.126704e-01    8.980984e-05
  1.129693e-01    8.407932e-05
  1.132682e-01    8.798057e-05
  1.135671e-01    8.795971e-05
  1.138661e-01    8.060189e-05
  1.141650e-01    7.777647e-05
  1.144639e-01    8.082340e-05
  1.147629e-01    8.592200e-05
  1.150618e-01    8.261318e-05
  1.153607e-01    8.090943e-05
  1.156597e-01    8.121771e-05
  1.159586e-01    8.643458e-05
  1.162575e-01    8.294264e-05
  1.165564e-01    8.512488e-05
  1.168554e-01    8.871649e-05
  1.171543e-01    9.594885e-05
  1.174532e-01    9.106146e-05
  1.177522e-01    8.468458e-05
  1.180511e-01    8.839653e-05
  1.183500e-01    8.599123e-05
  1.186490e-01    8.041500e-05
  1.189479e-01    9.261853e-05
  1.192468e-01    9.761396e-05
  1.195458e-01    9.857165e-05
  1.198447e-01    9.546908e-05
  1.201436e-01    1.009381e-04
  1.204425e-01    1.241431e-04
  1.207415e-01    7.467601e-05
  1.210404e-01    0.000000e+00
  1.213393e-01    0.000000e+00
  1.216383e-01    0.000000e+00
  1.219372e-01    0.000000e+00
  1.222361e-01    0.000000e+00
  1.225351e-01    0.000000e+00
  1.228340e-01    0.000000e+00
  1.231329e-01    0.000000e+00
  1.234318e-01    0.000000e+00
  1.237308e-01    0.000000e+00
  1.240297e-01    0.000000e+00
  1.243286e-01    0.000000e+00
  1.246276e-01    0.000000e+00
  1.249265e-01    0.000000e+00
  1.252254e-01    0.000000e+00
  1.255244e-01    0.000000e+00
  1.258233e-01    0.000000e+00
  1.261222e-01    0.000000e+00
  1.264212e-01    0.000000e+00
  1.267201e-01    0.000000e+00
  1.270190e-01    0.000000e+00
  1.273179e-01    0.000000e+00
  1.276169e-01    0.000000e+00
  1.279158e-01    0.000000e+00
  1.282147e-01    0.000000e+00
  1.285137e-01    0.000000e+00
  1.288126e-01    0.000000e+00
  1.291115e-01    0.000000e+00
  1.294105e-01    0.000000e+00
  1.297094e-01    0.000000e+00
  1.300083e-01    0.000000e+00
  1.303072e-01    0.000000e+00
  1.306062e-01    0.000000e+00
  1.309051e-01    0.000000e+00
  1.312040e-01    0.000000e+00
  1.315030e-01    0.000000e+00
  1.318019e-01    0.000000e+00
  1.321008e-01    0.000000e+00
  1.323998e-01    0.000000e+00
  1.326987e-01    0.000000e+00
  1.329976e-01    0.000000e+00
  1.332965e-01    0.000000e+00
  1.335955e-01    0.000000e+00
  1.338944e-01    0.000000e+00
  1.341933e-01    0.000000e+00
  1.344923e-01    0.000000e+00
  1.347912e-01    0.000000e+00
  1.350901e-01    0.000000e+00
  1.353891e-01    0.000000e+00
  1.356880e-01    0.000000e+00
  1.359869e-01    0.000000e+00
  1.362859e-01    0.000000e+00
  1.365848e-01    0.000000e+00
  1.368837e-01    0.000000e+00
  1.371826e-01    0.000000e+00
  1.374816e-01    0.000000e+00
  1.377805e-01    0.000000e+00
  1.380794e-01    0.000000e+00
  1.383784e-01    0.000000e+00
  1.386773e-01    0.000000e+00
  1.389762e-01    0.000000e+00
  1.392752e-01    0.000000e+00
  1.395741e-01    0.000000e+00
  1.398730e-01    0.000000e+00
  1.401719e-01    0.000000e+00
  1.404709e-01    0.000000e+00
  1.407698e-01    0.000000e+00
  1.410687e-01    0.000000e+00
  1.413677e-01    0.000000e+00
  1.416666e-01    0.000000e+00
  1.419655e-01    0.000000e+00
  1.422645e-01    0.000000e+00
  1.425634e-01    0.000000e+00
  1.428623e-01    0.000000e+00
  1.431613e-01    0.000000e+00
  1.434602e-01    0.000000e+00
  1.437591e-01    0.000000e+00
  1.440580e-01    0.000000e+00
  1.443570e-01    0.000000e+00
  1.446559e-01    0.000000e+00
  1.449548e-01    0.000000e+00
  1.452538e-01    0.000000e+00
  1.455527e-01    0.000000e+00
  1.458516e-01    0.000000e+00
  1.461506e-01    0.000000e+00
  1.464495e-01    0.000000e+00
  1.467484e-01    0.000000e+00
  1.470473e-01    0.000000e+00
  1.473463e-01    0.000000e+00
  1.476452e-01    0.000000e+00
  1.479441e-01    0.000000e+00
  1.482431e-01    0.000000e+00
  1.485420e-01    0.000000e+00
  1.488409e-01    0.000000e+00
  1.491399e-01    0.000000e+00
  1.494388e-01    0.000000e+00
  1.497377e-01    0.000000e+00
  1.500367e-01    0.000000e+00
  1.503356e-01    0.000000e+00
  1.506345e-01    0.000000e+00
  1.509334e-01    0.000000e+00
  1.512324e-01    0.000000e+00
  1.515313e-01    0.000000e+00
  1.518302e-01    0.000000e+00
  1.521292e-01    0.000000e+00
  1.524281e-01    0.000000e+00
  1.527270e-01    0.000000e+00
  1.530260e-01    0.000000e+00
  1.533249e-01    0.000000e+00
  1.536238e-01    0.000000e+00
