# == pyFAI calibration ==
# Distance Sample to Detector: 2.266 m
# PONI: 5.659e-02, 4.293e-02 m
# Rotations: 0.000000 0.000000 0.000000 rad
# 
# == Fit2d calibration ==
# Distance Sample-beamCenter: 2266.000 mm
# Center: x=249.594, y=329.012 pix
# Tilt: 0.000 deg  TiltPlanRot: 0.000 deg
# 
# Detector Pilatus 300k	 PixelSize= 1.720e-04, 1.720e-04 m
#    Detector has a mask: True 
#    Detector has a dark current: False 
#    detector has a flat field: False 
# 
# Wavelength: 1.27818e-10 m
# Mask applied: user provided
# Dark current applied: False
# Flat field applied: False
# Polarization factor: None
# Normalization factor: 40803.5
# --> MT-latex_CL3252_TiO2_R706_phiT_0.010_PVC_0.800_DOP_0.000_0_r1d.csv
#        q_A^-1             I 
  4.457554e-03    3.013653e-02
  4.756484e-03    2.309677e-02
  5.055415e-03    1.615106e-02
  5.354345e-03    1.150327e-02
  5.653276e-03    8.946516e-03
  5.952206e-03    1.368791e-02
  6.251136e-03    1.249625e-02
  6.550067e-03    1.090506e-02
  6.848997e-03    9.292665e-03
  7.147927e-03    7.881776e-03
  7.446858e-03    6.681610e-03
  7.745788e-03    5.725465e-03
  8.044719e-03    4.957160e-03
  8.343649e-03    4.265146e-03
  8.642579e-03    3.770098e-03
  8.941510e-03    3.319295e-03
  9.240440e-03    2.937458e-03
  9.539371e-03    2.585515e-03
  9.838301e-03    2.283128e-03
  1.013723e-02    2.066212e-03
  1.043616e-02    1.885266e-03
  1.073509e-02    1.696686e-03
  1.103402e-02    1.544636e-03
  1.133295e-02    1.379081e-03
  1.163188e-02    1.247087e-03
  1.193081e-02    1.137847e-03
  1.222974e-02    1.049965e-03
  1.252867e-02    9.538304e-04
  1.282760e-02    8.792462e-04
  1.312654e-02    8.092527e-04
  1.342547e-02    7.536400e-04
  1.372440e-02    6.976198e-04
  1.402333e-02    6.517174e-04
  1.432226e-02    6.030791e-04
  1.462119e-02    5.516396e-04
  1.492012e-02    5.219080e-04
  1.521905e-02    4.867257e-04
  1.551798e-02    4.535829e-04
  1.581691e-02    4.234398e-04
  1.611584e-02    3.880206e-04
  1.641477e-02    3.670158e-04
  1.671370e-02    3.513642e-04
  1.701263e-02    3.370618e-04
  1.731156e-02    3.238130e-04
  1.761049e-02    3.020397e-04
  1.790942e-02    2.895825e-04
  1.820835e-02    2.723436e-04
  1.850728e-02    2.615092e-04
  1.880621e-02    2.567779e-04
  1.910514e-02    2.474244e-04
  1.940407e-02    2.335675e-04
  1.970300e-02    2.232733e-04
  2.000193e-02    2.187897e-04
  2.030086e-02    2.138643e-04
  2.059979e-02    2.002521e-04
  2.089873e-02    1.892638e-04
  2.119766e-02    1.804175e-04
  2.149659e-02    1.776493e-04
  2.179552e-02    1.726781e-04
  2.209445e-02    1.665647e-04
  2.239338e-02    1.631279e-04
  2.269231e-02    1.564561e-04
  2.299124e-02    1.555269e-04
  2.329017e-02    1.538892e-04
  2.358910e-02    1.476366e-04
  2.388803e-02    1.454689e-04
  2.418696e-02    1.393101e-04
  2.448589e-02    1.365432e-04
  2.478482e-02    1.303376e-04
  2.508375e-02    1.273378e-04
  2.538268e-02    1.297523e-04
  2.568161e-02    1.306131e-04
  2.598054e-02    1.250243e-04
  2.627947e-02    1.209252e-04
  2.657840e-02    1.188073e-04
  2.687733e-02    1.182820e-04
  2.717626e-02    1.164092e-04
  2.747519e-02    1.114761e-04
  2.777412e-02    1.094982e-04
  2.807305e-02    1.093872e-04
  2.837198e-02    1.068117e-04
  2.867092e-02    1.049602e-04
  2.896985e-02    1.034991e-04
  2.926878e-02    1.062471e-04
  2.956771e-02    1.037774e-04
  2.986664e-02    1.006575e-04
  3.016557e-02    1.010011e-04
  3.046450e-02    9.896066e-05
  3.076343e-02    9.600480e-05
  3.106236e-02    9.434831e-05
  3.136129e-02    9.509069e-05
  3.166022e-02    9.553931e-05
  3.195915e-02    9.628670e-05
  3.225808e-02    9.643118e-05
  3.255701e-02    9.379999e-05
  3.285594e-02    9.113540e-05
  3.315487e-02    9.025066e-05
  3.345380e-02    8.974400e-05
  3.375273e-02    8.815721e-05
  3.405166e-02    8.873214e-05
  3.435059e-02    8.791743e-05
  3.464952e-02    8.861865e-05
  3.494845e-02    8.805477e-05
  3.524738e-02    8.829690e-05
  3.554631e-02    8.657848e-05
  3.584524e-02    8.426690e-05
  3.614417e-02    8.304502e-05
  3.644310e-02    8.133461e-05
  3.674204e-02    8.082826e-05
  3.704097e-02    8.088750e-05
  3.733990e-02    8.104902e-05
  3.763883e-02    7.917003e-05
  3.793776e-02    7.795741e-05
  3.823669e-02    7.720613e-05
  3.853562e-02    7.614739e-05
  3.883455e-02    7.973253e-05
  3.913348e-02    7.810022e-05
  3.943241e-02    7.573772e-05
  3.973134e-02    7.716517e-05
  4.003027e-02    7.647120e-05
  4.032920e-02    7.495272e-05
  4.062813e-02    7.408900e-05
  4.092706e-02    7.211966e-05
  4.122599e-02    7.181126e-05
  4.152492e-02    7.233304e-05
  4.182385e-02    7.163759e-05
  4.212278e-02    6.940446e-05
  4.242171e-02    7.248351e-05
  4.272064e-02    7.299586e-05
  4.301957e-02    7.338579e-05
  4.331850e-02    7.377168e-05
  4.361743e-02    7.198090e-05
  4.391636e-02    7.233290e-05
  4.421529e-02    7.262477e-05
  4.451423e-02    7.103193e-05
  4.481316e-02    7.051913e-05
  4.511209e-02    6.997990e-05
  4.541102e-02    7.116217e-05
  4.570995e-02    7.226276e-05
  4.600888e-02    7.020336e-05
  4.630781e-02    7.104149e-05
  4.660674e-02    7.128099e-05
  4.690567e-02    7.223230e-05
  4.720460e-02    7.145303e-05
  4.750353e-02    7.148475e-05
  4.780246e-02    7.181650e-05
  4.810139e-02    7.280560e-05
  4.840032e-02    7.210163e-05
  4.869925e-02    6.984702e-05
  4.899818e-02    7.129807e-05
  4.929711e-02    7.158967e-05
  4.959604e-02    7.255245e-05
  4.989497e-02    7.366969e-05
  5.019390e-02    7.035558e-05
  5.049283e-02    6.978755e-05
  5.079176e-02    7.027850e-05
  5.109069e-02    7.125836e-05
  5.138962e-02    7.159397e-05
  5.168855e-02    7.353368e-05
  5.198748e-02    7.458177e-05
  5.228642e-02    7.258657e-05
  5.258535e-02    7.101292e-05
  5.288428e-02    7.003335e-05
  5.318321e-02    6.865780e-05
  5.348214e-02    7.082259e-05
  5.378107e-02    7.115093e-05
  5.408000e-02    7.213472e-05
  5.437893e-02    7.163070e-05
  5.467786e-02    7.016413e-05
  5.497679e-02    6.881045e-05
  5.527572e-02    7.150997e-05
  5.557465e-02    7.310946e-05
  5.587358e-02    7.165902e-05
  5.617251e-02    7.140067e-05
  5.647144e-02    7.076551e-05
  5.677037e-02    7.150451e-05
  5.706930e-02    7.116858e-05
  5.736823e-02    6.937047e-05
  5.766716e-02    6.951176e-05
  5.796609e-02    7.152570e-05
  5.826502e-02    7.261585e-05
  5.856395e-02    7.214263e-05
  5.886288e-02    7.048867e-05
  5.916181e-02    7.053311e-05
  5.946074e-02    7.098237e-05
  5.975967e-02    7.197622e-05
  6.005861e-02    7.095424e-05
  6.035754e-02    7.254018e-05
  6.065647e-02    7.394118e-05
  6.095540e-02    7.204877e-05
  6.125433e-02    7.240411e-05
  6.155326e-02    7.345202e-05
  6.185219e-02    7.457293e-05
  6.215112e-02    7.347684e-05
  6.245005e-02    7.216065e-05
  6.274898e-02    7.292226e-05
  6.304791e-02    7.198431e-05
  6.334684e-02    7.185363e-05
  6.364577e-02    7.254986e-05
  6.394470e-02    7.287601e-05
  6.424363e-02    7.239976e-05
  6.454256e-02    7.266819e-05
  6.484149e-02    7.244617e-05
  6.514042e-02    7.190105e-05
  6.543935e-02    7.312361e-05
  6.573828e-02    7.323093e-05
  6.603721e-02    7.251603e-05
  6.633614e-02    7.231950e-05
  6.663507e-02    7.193329e-05
  6.693400e-02    7.385518e-05
  6.723293e-02    7.357198e-05
  6.753186e-02    7.225551e-05
  6.783080e-02    7.325629e-05
  6.812973e-02    7.304228e-05
  6.842866e-02    7.379673e-05
  6.872759e-02    7.498153e-05
  6.902652e-02    7.453991e-05
  6.932545e-02    7.357785e-05
  6.962438e-02    7.400187e-05
  6.992331e-02    7.338155e-05
  7.022224e-02    7.544463e-05
  7.052117e-02    7.574886e-05
  7.082010e-02    7.371794e-05
  7.111903e-02    7.399179e-05
  7.141796e-02    7.311566e-05
  7.171689e-02    7.301755e-05
  7.201582e-02    7.528861e-05
  7.231475e-02    7.486692e-05
  7.261368e-02    7.323222e-05
  7.291261e-02    7.313771e-05
  7.321154e-02    7.467240e-05
  7.351047e-02    7.415680e-05
  7.380940e-02    7.393809e-05
  7.410833e-02    7.689500e-05
  7.440726e-02    7.552638e-05
  7.470619e-02    7.457638e-05
  7.500512e-02    7.281905e-05
  7.530405e-02    7.337148e-05
  7.560299e-02    7.330612e-05
  7.590192e-02    7.461775e-05
  7.620085e-02    7.506232e-05
  7.649978e-02    7.470803e-05
  7.679871e-02    7.539401e-05
  7.709764e-02    7.511640e-05
  7.739657e-02    7.464956e-05
  7.769550e-02    7.434866e-05
  7.799443e-02    7.333649e-05
  7.829336e-02    7.401087e-05
  7.859229e-02    7.496597e-05
  7.889122e-02    7.347092e-05
  7.919015e-02    7.453661e-05
  7.948908e-02    7.348903e-05
  7.978801e-02    7.386859e-05
  8.008694e-02    7.311815e-05
  8.038587e-02    7.370283e-05
  8.068480e-02    7.428048e-05
  8.098373e-02    7.386863e-05
  8.128266e-02    7.480562e-05
  8.158159e-02    7.460250e-05
  8.188052e-02    7.440385e-05
  8.217945e-02    7.335714e-05
  8.247838e-02    7.255680e-05
  8.277731e-02    7.374094e-05
  8.307624e-02    7.165414e-05
  8.337518e-02    7.266658e-05
  8.367411e-02    7.391843e-05
  8.397304e-02    7.253310e-05
  8.427197e-02    6.963324e-05
  8.457090e-02    7.080112e-05
  8.486983e-02    7.182624e-05
  8.516876e-02    7.110771e-05
  8.546769e-02    7.069695e-05
  8.576662e-02    7.195075e-05
  8.606555e-02    7.136133e-05
  8.636448e-02    7.271487e-05
  8.666341e-02    7.398666e-05
  8.696234e-02    7.348407e-05
  8.726127e-02    7.207235e-05
  8.756020e-02    7.269814e-05
  8.785913e-02    7.186561e-05
  8.815806e-02    7.119654e-05
  8.845699e-02    7.096172e-05
  8.875592e-02    7.054993e-05
  8.905485e-02    7.113752e-05
  8.935378e-02    7.097820e-05
  8.965271e-02    6.962576e-05
  8.995164e-02    6.979393e-05
  9.025057e-02    6.995696e-05
  9.054950e-02    6.994086e-05
  9.084843e-02    6.984250e-05
  9.114737e-02    7.000520e-05
  9.144630e-02    6.752531e-05
  9.174523e-02    6.811043e-05
  9.204416e-02    6.901297e-05
  9.234309e-02    6.792786e-05
  9.264202e-02    6.881831e-05
  9.294095e-02    6.811313e-05
  9.323988e-02    6.702882e-05
  9.353881e-02    6.725798e-05
  9.383774e-02    6.778139e-05
  9.413667e-02    6.823500e-05
  9.443560e-02    6.816716e-05
  9.473453e-02    6.794384e-05
  9.503346e-02    6.696081e-05
  9.533239e-02    6.632537e-05
  9.563132e-02    6.588222e-05
  9.593025e-02    6.780327e-05
  9.622918e-02    6.924034e-05
  9.652811e-02    6.874618e-05
  9.682704e-02    6.980567e-05
  9.712597e-02    6.765714e-05
  9.742490e-02    6.803725e-05
  9.772383e-02    6.817723e-05
  9.802276e-02    6.645738e-05
  9.832169e-02    6.512516e-05
  9.862062e-02    6.536364e-05
  9.891956e-02    6.631412e-05
  9.921849e-02    6.580004e-05
  9.951742e-02    6.629769e-05
  9.981635e-02    6.673380e-05
  1.001153e-01    6.602798e-05
  1.004142e-01    6.640160e-05
  1.007131e-01    6.570644e-05
  1.010121e-01    6.542582e-05
  1.013110e-01    6.475854e-05
  1.016099e-01    6.527987e-05
  1.019089e-01    6.540990e-05
  1.022078e-01    6.519238e-05
  1.025067e-01    6.468030e-05
  1.028057e-01    6.489678e-05
  1.031046e-01    6.527980e-05
  1.034035e-01    6.561282e-05
  1.037024e-01    6.482642e-05
  1.040014e-01    6.433114e-05
  1.043003e-01    6.428482e-05
  1.045992e-01    6.266487e-05
  1.048982e-01    6.330136e-05
  1.051971e-01    6.519311e-05
  1.054960e-01    6.359033e-05
  1.057950e-01    6.283919e-05
  1.060939e-01    6.320239e-05
  1.063928e-01    6.261026e-05
  1.066917e-01    6.346893e-05
  1.069907e-01    6.314935e-05
  1.072896e-01    6.311717e-05
  1.075885e-01    6.347876e-05
  1.078875e-01    6.448841e-05
  1.081864e-01    6.331125e-05
  1.084853e-01    6.258552e-05
  1.087843e-01    6.320373e-05
  1.090832e-01    6.208583e-05
  1.093821e-01    6.184614e-05
  1.096810e-01    6.346632e-05
  1.099800e-01    6.372841e-05
  1.102789e-01    6.226699e-05
  1.105778e-01    6.174485e-05
  1.108768e-01    6.095423e-05
  1.111757e-01    6.013360e-05
  1.114746e-01    6.077776e-05
  1.117736e-01    6.103807e-05
  1.120725e-01    6.201279e-05
  1.123714e-01    6.166387e-05
  1.126704e-01    5.839374e-05
  1.129693e-01    5.961725e-05
  1.132682e-01    6.000042e-05
  1.135671e-01    5.957558e-05
  1.138661e-01    6.084902e-05
  1.141650e-01    5.891711e-05
  1.144639e-01    6.095640e-05
  1.147629e-01    6.231682e-05
  1.150618e-01    5.862963e-05
  1.153607e-01    5.779504e-05
  1.156597e-01    6.156378e-05
  1.159586e-01    5.901335e-05
  1.162575e-01    5.738371e-05
  1.165564e-01    5.806582e-05
  1.168554e-01    5.896247e-05
  1.171543e-01    6.031310e-05
  1.174532e-01    5.903946e-05
  1.177522e-01    5.936201e-05
  1.180511e-01    5.693535e-05
  1.183500e-01    5.885583e-05
  1.186490e-01    6.139123e-05
  1.189479e-01    6.281868e-05
  1.192468e-01    6.265569e-05
  1.195458e-01    6.130792e-05
  1.198447e-01    6.084440e-05
  1.201436e-01    5.478727e-05
  1.204425e-01    5.284089e-05
  1.207415e-01    7.113132e-05
  1.210404e-01    9.811961e-05
  1.213393e-01    0.000000e+00
  1.216383e-01    0.000000e+00
  1.219372e-01    0.000000e+00
  1.222361e-01    0.000000e+00
  1.225351e-01    0.000000e+00
  1.228340e-01    0.000000e+00
  1.231329e-01    0.000000e+00
  1.234318e-01    0.000000e+00
  1.237308e-01    0.000000e+00
  1.240297e-01    0.000000e+00
  1.243286e-01    0.000000e+00
  1.246276e-01    0.000000e+00
  1.249265e-01    0.000000e+00
  1.252254e-01    0.000000e+00
  1.255244e-01    0.000000e+00
  1.258233e-01    0.000000e+00
  1.261222e-01    0.000000e+00
  1.264212e-01    0.000000e+00
  1.267201e-01    0.000000e+00
  1.270190e-01    0.000000e+00
  1.273179e-01    0.000000e+00
  1.276169e-01    0.000000e+00
  1.279158e-01    0.000000e+00
  1.282147e-01    0.000000e+00
  1.285137e-01    0.000000e+00
  1.288126e-01    0.000000e+00
  1.291115e-01    0.000000e+00
  1.294105e-01    0.000000e+00
  1.297094e-01    0.000000e+00
  1.300083e-01    0.000000e+00
  1.303072e-01    0.000000e+00
  1.306062e-01    0.000000e+00
  1.309051e-01    0.000000e+00
  1.312040e-01    0.000000e+00
  1.315030e-01    0.000000e+00
  1.318019e-01    0.000000e+00
  1.321008e-01    0.000000e+00
  1.323998e-01    0.000000e+00
  1.326987e-01    0.000000e+00
  1.329976e-01    0.000000e+00
  1.332965e-01    0.000000e+00
  1.335955e-01    0.000000e+00
  1.338944e-01    0.000000e+00
  1.341933e-01    0.000000e+00
  1.344923e-01    0.000000e+00
  1.347912e-01    0.000000e+00
  1.350901e-01    0.000000e+00
  1.353891e-01    0.000000e+00
  1.356880e-01    0.000000e+00
  1.359869e-01    0.000000e+00
  1.362859e-01    0.000000e+00
  1.365848e-01    0.000000e+00
  1.368837e-01    0.000000e+00
  1.371826e-01    0.000000e+00
  1.374816e-01    0.000000e+00
  1.377805e-01    0.000000e+00
  1.380794e-01    0.000000e+00
  1.383784e-01    0.000000e+00
  1.386773e-01    0.000000e+00
  1.389762e-01    0.000000e+00
  1.392752e-01    0.000000e+00
  1.395741e-01    0.000000e+00
  1.398730e-01    0.000000e+00
  1.401719e-01    0.000000e+00
  1.404709e-01    0.000000e+00
  1.407698e-01    0.000000e+00
  1.410687e-01    0.000000e+00
  1.413677e-01    0.000000e+00
  1.416666e-01    0.000000e+00
  1.419655e-01    0.000000e+00
  1.422645e-01    0.000000e+00
  1.425634e-01    0.000000e+00
  1.428623e-01    0.000000e+00
  1.431613e-01    0.000000e+00
  1.434602e-01    0.000000e+00
  1.437591e-01    0.000000e+00
  1.440580e-01    0.000000e+00
  1.443570e-01    0.000000e+00
  1.446559e-01    0.000000e+00
  1.449548e-01    0.000000e+00
  1.452538e-01    0.000000e+00
  1.455527e-01    0.000000e+00
  1.458516e-01    0.000000e+00
  1.461506e-01    0.000000e+00
  1.464495e-01    0.000000e+00
  1.467484e-01    0.000000e+00
  1.470473e-01    0.000000e+00
  1.473463e-01    0.000000e+00
  1.476452e-01    0.000000e+00
  1.479441e-01    0.000000e+00
  1.482431e-01    0.000000e+00
  1.485420e-01    0.000000e+00
  1.488409e-01    0.000000e+00
  1.491399e-01    0.000000e+00
  1.494388e-01    0.000000e+00
  1.497377e-01    0.000000e+00
  1.500367e-01    0.000000e+00
  1.503356e-01    0.000000e+00
  1.506345e-01    0.000000e+00
  1.509334e-01    0.000000e+00
  1.512324e-01    0.000000e+00
  1.515313e-01    0.000000e+00
  1.518302e-01    0.000000e+00
  1.521292e-01    0.000000e+00
  1.524281e-01    0.000000e+00
  1.527270e-01    0.000000e+00
  1.530260e-01    0.000000e+00
  1.533249e-01    0.000000e+00
  1.536238e-01    0.000000e+00
