# == pyFAI calibration ==
# Distance Sample to Detector: 2.266 m
# PONI: 5.659e-02, 4.293e-02 m
# Rotations: 0.000000 0.000000 0.000000 rad
# 
# == Fit2d calibration ==
# Distance Sample-beamCenter: 2266.000 mm
# Center: x=249.594, y=329.012 pix
# Tilt: 0.000 deg  TiltPlanRot: 0.000 deg
# 
# Detector Pilatus 300k	 PixelSize= 1.720e-04, 1.720e-04 m
#    Detector has a mask: True 
#    Detector has a dark current: False 
#    detector has a flat field: False 
# 
# Wavelength: 1.27818e-10 m
# Mask applied: user provided
# Dark current applied: False
# Flat field applied: False
# Polarization factor: None
# Normalization factor: 39238.509999999995
# --> MT-latex_CL3252_TiO2_R706_phiT_0.070_PVC_0.600_DOP_0.010_0_r1d.csv
#        q_A^-1             I 
  4.457554e-03    2.978780e-02
  4.756484e-03    2.333827e-02
  5.055415e-03    1.661998e-02
  5.354345e-03    1.151533e-02
  5.653276e-03    8.594749e-03
  5.952206e-03    1.405801e-02
  6.251136e-03    1.277468e-02
  6.550067e-03    1.105270e-02
  6.848997e-03    9.434025e-03
  7.147927e-03    7.993895e-03
  7.446858e-03    6.788510e-03
  7.745788e-03    5.795681e-03
  8.044719e-03    4.996371e-03
  8.343649e-03    4.360380e-03
  8.642579e-03    3.847707e-03
  8.941510e-03    3.359115e-03
  9.240440e-03    2.941085e-03
  9.539371e-03    2.608438e-03
  9.838301e-03    2.332474e-03
  1.013723e-02    2.079452e-03
  1.043616e-02    1.888595e-03
  1.073509e-02    1.687307e-03
  1.103402e-02    1.514257e-03
  1.133295e-02    1.381275e-03
  1.163188e-02    1.249848e-03
  1.193081e-02    1.127952e-03
  1.222974e-02    1.028431e-03
  1.252867e-02    9.492157e-04
  1.282760e-02    8.871399e-04
  1.312654e-02    8.303902e-04
  1.342547e-02    7.602783e-04
  1.372440e-02    6.973935e-04
  1.402333e-02    6.470343e-04
  1.432226e-02    6.119474e-04
  1.462119e-02    5.692098e-04
  1.492012e-02    5.306446e-04
  1.521905e-02    4.934488e-04
  1.551798e-02    4.562529e-04
  1.581691e-02    4.273754e-04
  1.611584e-02    4.054578e-04
  1.641477e-02    3.857433e-04
  1.671370e-02    3.680633e-04
  1.701263e-02    3.471140e-04
  1.731156e-02    3.261083e-04
  1.761049e-02    3.136973e-04
  1.790942e-02    2.954878e-04
  1.820835e-02    2.796014e-04
  1.850728e-02    2.684261e-04
  1.880621e-02    2.578037e-04
  1.910514e-02    2.460691e-04
  1.940407e-02    2.392893e-04
  1.970300e-02    2.271002e-04
  2.000193e-02    2.222578e-04
  2.030086e-02    2.126648e-04
  2.059979e-02    2.026795e-04
  2.089873e-02    1.948729e-04
  2.119766e-02    1.925209e-04
  2.149659e-02    1.872062e-04
  2.179552e-02    1.772678e-04
  2.209445e-02    1.709069e-04
  2.239338e-02    1.657048e-04
  2.269231e-02    1.602109e-04
  2.299124e-02    1.559723e-04
  2.329017e-02    1.515194e-04
  2.358910e-02    1.509388e-04
  2.388803e-02    1.497607e-04
  2.418696e-02    1.450718e-04
  2.448589e-02    1.396354e-04
  2.478482e-02    1.363348e-04
  2.508375e-02    1.364559e-04
  2.538268e-02    1.327706e-04
  2.568161e-02    1.283338e-04
  2.598054e-02    1.272626e-04
  2.627947e-02    1.231861e-04
  2.657840e-02    1.199024e-04
  2.687733e-02    1.229935e-04
  2.717626e-02    1.214617e-04
  2.747519e-02    1.186151e-04
  2.777412e-02    1.165205e-04
  2.807305e-02    1.162364e-04
  2.837198e-02    1.134571e-04
  2.867092e-02    1.069658e-04
  2.896985e-02    1.075435e-04
  2.926878e-02    1.093690e-04
  2.956771e-02    1.066928e-04
  2.986664e-02    1.054397e-04
  3.016557e-02    1.047239e-04
  3.046450e-02    1.052461e-04
  3.076343e-02    1.021230e-04
  3.106236e-02    9.864309e-05
  3.136129e-02    9.839329e-05
  3.166022e-02    9.798062e-05
  3.195915e-02    9.973850e-05
  3.225808e-02    9.615288e-05
  3.255701e-02    9.467056e-05
  3.285594e-02    9.461833e-05
  3.315487e-02    9.263107e-05
  3.345380e-02    9.367379e-05
  3.375273e-02    9.094596e-05
  3.405166e-02    8.937903e-05
  3.435059e-02    9.196727e-05
  3.464952e-02    9.257022e-05
  3.494845e-02    9.083787e-05
  3.524738e-02    8.881197e-05
  3.554631e-02    8.872614e-05
  3.584524e-02    9.032123e-05
  3.614417e-02    8.615432e-05
  3.644310e-02    8.683556e-05
  3.674204e-02    8.572193e-05
  3.704097e-02    8.274824e-05
  3.733990e-02    8.462419e-05
  3.763883e-02    8.503269e-05
  3.793776e-02    8.247832e-05
  3.823669e-02    8.111457e-05
  3.853562e-02    8.106230e-05
  3.883455e-02    7.997225e-05
  3.913348e-02    7.802365e-05
  3.943241e-02    7.943815e-05
  3.973134e-02    8.026607e-05
  4.003027e-02    8.110535e-05
  4.032920e-02    8.035970e-05
  4.062813e-02    7.941885e-05
  4.092706e-02    7.921933e-05
  4.122599e-02    7.898859e-05
  4.152492e-02    7.905548e-05
  4.182385e-02    7.722790e-05
  4.212278e-02    7.636724e-05
  4.242171e-02    7.821408e-05
  4.272064e-02    7.823680e-05
  4.301957e-02    7.852177e-05
  4.331850e-02    7.835353e-05
  4.361743e-02    7.454381e-05
  4.391636e-02    7.623176e-05
  4.421529e-02    7.664620e-05
  4.451423e-02    7.562690e-05
  4.481316e-02    7.409436e-05
  4.511209e-02    7.557416e-05
  4.541102e-02    7.598233e-05
  4.570995e-02    7.413060e-05
  4.600888e-02    7.212249e-05
  4.630781e-02    7.361161e-05
  4.660674e-02    7.441595e-05
  4.690567e-02    7.437659e-05
  4.720460e-02    7.556405e-05
  4.750353e-02    7.556188e-05
  4.780246e-02    7.395168e-05
  4.810139e-02    7.424549e-05
  4.840032e-02    7.631617e-05
  4.869925e-02    7.344458e-05
  4.899818e-02    7.358281e-05
  4.929711e-02    7.429771e-05
  4.959604e-02    7.300280e-05
  4.989497e-02    7.568547e-05
  5.019390e-02    7.470482e-05
  5.049283e-02    7.522495e-05
  5.079176e-02    7.343829e-05
  5.109069e-02    7.404605e-05
  5.138962e-02    7.765166e-05
  5.168855e-02    7.860934e-05
  5.198748e-02    7.917596e-05
  5.228642e-02    7.699907e-05
  5.258535e-02    7.653247e-05
  5.288428e-02    7.602143e-05
  5.318321e-02    7.493569e-05
  5.348214e-02    7.458619e-05
  5.378107e-02    7.139060e-05
  5.408000e-02    7.159528e-05
  5.437893e-02    7.382657e-05
  5.467786e-02    7.431354e-05
  5.497679e-02    7.551475e-05
  5.527572e-02    7.466489e-05
  5.557465e-02    7.487970e-05
  5.587358e-02    7.416025e-05
  5.617251e-02    7.427970e-05
  5.647144e-02    7.430506e-05
  5.677037e-02    7.572407e-05
  5.706930e-02    7.570857e-05
  5.736823e-02    7.526442e-05
  5.766716e-02    7.397771e-05
  5.796609e-02    7.324512e-05
  5.826502e-02    7.498773e-05
  5.856395e-02    7.525420e-05
  5.886288e-02    7.429856e-05
  5.916181e-02    7.408732e-05
  5.946074e-02    7.492229e-05
  5.975967e-02    7.587382e-05
  6.005861e-02    7.595782e-05
  6.035754e-02    7.580448e-05
  6.065647e-02    7.552785e-05
  6.095540e-02    7.584566e-05
  6.125433e-02    7.702343e-05
  6.155326e-02    7.786903e-05
  6.185219e-02    7.885545e-05
  6.215112e-02    7.848312e-05
  6.245005e-02    7.627660e-05
  6.274898e-02    7.404151e-05
  6.304791e-02    7.594951e-05
  6.334684e-02    7.728703e-05
  6.364577e-02    7.736443e-05
  6.394470e-02    7.944484e-05
  6.424363e-02    7.805807e-05
  6.454256e-02    7.712575e-05
  6.484149e-02    7.918181e-05
  6.514042e-02    7.835884e-05
  6.543935e-02    7.740364e-05
  6.573828e-02    7.805333e-05
  6.603721e-02    7.716630e-05
  6.633614e-02    7.550784e-05
  6.663507e-02    7.611324e-05
  6.693400e-02    7.653456e-05
  6.723293e-02    7.838925e-05
  6.753186e-02    7.825001e-05
  6.783080e-02    7.743739e-05
  6.812973e-02    7.824571e-05
  6.842866e-02    7.819149e-05
  6.872759e-02    7.832229e-05
  6.902652e-02    7.746682e-05
  6.932545e-02    7.617886e-05
  6.962438e-02    7.727166e-05
  6.992331e-02    7.795524e-05
  7.022224e-02    7.819575e-05
  7.052117e-02    7.880805e-05
  7.082010e-02    7.914873e-05
  7.111903e-02    7.877931e-05
  7.141796e-02    7.791226e-05
  7.171689e-02    7.824599e-05
  7.201582e-02    7.938551e-05
  7.231475e-02    8.023126e-05
  7.261368e-02    8.236322e-05
  7.291261e-02    8.141826e-05
  7.321154e-02    7.974394e-05
  7.351047e-02    7.903766e-05
  7.380940e-02    7.943311e-05
  7.410833e-02    7.899026e-05
  7.440726e-02    7.831185e-05
  7.470619e-02    7.972222e-05
  7.500512e-02    7.915183e-05
  7.530405e-02    7.956265e-05
  7.560299e-02    8.055603e-05
  7.590192e-02    7.881707e-05
  7.620085e-02    7.844868e-05
  7.649978e-02    7.883248e-05
  7.679871e-02    7.969535e-05
  7.709764e-02    7.955562e-05
  7.739657e-02    7.953861e-05
  7.769550e-02    7.869010e-05
  7.799443e-02    7.721312e-05
  7.829336e-02    7.780504e-05
  7.859229e-02    7.946257e-05
  7.889122e-02    7.769185e-05
  7.919015e-02    7.734635e-05
  7.948908e-02    7.791862e-05
  7.978801e-02    7.836984e-05
  8.008694e-02    7.958270e-05
  8.038587e-02    7.849815e-05
  8.068480e-02    7.883181e-05
  8.098373e-02    7.794866e-05
  8.128266e-02    7.616141e-05
  8.158159e-02    7.681294e-05
  8.188052e-02    7.808261e-05
  8.217945e-02    7.889064e-05
  8.247838e-02    7.950410e-05
  8.277731e-02    7.875745e-05
  8.307624e-02    7.922985e-05
  8.337518e-02    7.898140e-05
  8.367411e-02    7.850229e-05
  8.397304e-02    7.664745e-05
  8.427197e-02    7.674468e-05
  8.457090e-02    7.667291e-05
  8.486983e-02    7.759936e-05
  8.516876e-02    7.899101e-05
  8.546769e-02    7.659912e-05
  8.576662e-02    7.593964e-05
  8.606555e-02    7.611921e-05
  8.636448e-02    7.773233e-05
  8.666341e-02    7.606691e-05
  8.696234e-02    7.567753e-05
  8.726127e-02    7.499160e-05
  8.756020e-02    7.407302e-05
  8.785913e-02    7.584170e-05
  8.815806e-02    7.599650e-05
  8.845699e-02    7.646778e-05
  8.875592e-02    7.574481e-05
  8.905485e-02    7.643692e-05
  8.935378e-02    7.579399e-05
  8.965271e-02    7.443893e-05
  8.995164e-02    7.495291e-05
  9.025057e-02    7.462290e-05
  9.054950e-02    7.423007e-05
  9.084843e-02    7.237031e-05
  9.114737e-02    7.249042e-05
  9.144630e-02    7.294416e-05
  9.174523e-02    7.367299e-05
  9.204416e-02    7.446259e-05
  9.234309e-02    7.487057e-05
  9.264202e-02    7.554146e-05
  9.294095e-02    7.382445e-05
  9.323988e-02    7.222519e-05
  9.353881e-02    7.271836e-05
  9.383774e-02    7.442775e-05
  9.413667e-02    7.350701e-05
  9.443560e-02    7.204337e-05
  9.473453e-02    7.159547e-05
  9.503346e-02    7.283392e-05
  9.533239e-02    7.202825e-05
  9.563132e-02    7.203711e-05
  9.593025e-02    7.299033e-05
  9.622918e-02    7.344059e-05
  9.652811e-02    7.212332e-05
  9.682704e-02    7.331211e-05
  9.712597e-02    7.185611e-05
  9.742490e-02    7.240478e-05
  9.772383e-02    7.259812e-05
  9.802276e-02    7.029274e-05
  9.832169e-02    6.940080e-05
  9.862062e-02    7.042626e-05
  9.891956e-02    7.051663e-05
  9.921849e-02    7.026874e-05
  9.951742e-02    7.022003e-05
  9.981635e-02    6.911548e-05
  1.001153e-01    6.962305e-05
  1.004142e-01    7.038644e-05
  1.007131e-01    7.040506e-05
  1.010121e-01    7.022309e-05
  1.013110e-01    7.115252e-05
  1.016099e-01    6.952257e-05
  1.019089e-01    6.885862e-05
  1.022078e-01    7.032516e-05
  1.025067e-01    7.063570e-05
  1.028057e-01    7.052873e-05
  1.031046e-01    7.029073e-05
  1.034035e-01    6.869003e-05
  1.037024e-01    6.907622e-05
  1.040014e-01    6.831987e-05
  1.043003e-01    6.799376e-05
  1.045992e-01    6.838836e-05
  1.048982e-01    6.720779e-05
  1.051971e-01    6.710561e-05
  1.054960e-01    6.593381e-05
  1.057950e-01    6.565344e-05
  1.060939e-01    6.872164e-05
  1.063928e-01    6.952624e-05
  1.066917e-01    6.901804e-05
  1.069907e-01    6.766435e-05
  1.072896e-01    6.579310e-05
  1.075885e-01    6.762831e-05
  1.078875e-01    6.922028e-05
  1.081864e-01    6.791418e-05
  1.084853e-01    6.683155e-05
  1.087843e-01    6.651526e-05
  1.090832e-01    6.595979e-05
  1.093821e-01    6.502334e-05
  1.096810e-01    6.541777e-05
  1.099800e-01    6.656061e-05
  1.102789e-01    6.719941e-05
  1.105778e-01    6.561604e-05
  1.108768e-01    6.417307e-05
  1.111757e-01    6.481084e-05
  1.114746e-01    6.598073e-05
  1.117736e-01    6.348516e-05
  1.120725e-01    6.322537e-05
  1.123714e-01    6.470841e-05
  1.126704e-01    6.498882e-05
  1.129693e-01    6.496828e-05
  1.132682e-01    6.291865e-05
  1.135671e-01    6.201921e-05
  1.138661e-01    6.323573e-05
  1.141650e-01    6.217852e-05
  1.144639e-01    6.053856e-05
  1.147629e-01    6.130424e-05
  1.150618e-01    6.547451e-05
  1.153607e-01    6.767446e-05
  1.156597e-01    6.475164e-05
  1.159586e-01    5.993706e-05
  1.162575e-01    6.309480e-05
  1.165564e-01    6.546052e-05
  1.168554e-01    6.534426e-05
  1.171543e-01    6.511899e-05
  1.174532e-01    6.280764e-05
  1.177522e-01    6.205139e-05
  1.180511e-01    6.250435e-05
  1.183500e-01    6.454449e-05
  1.186490e-01    6.248290e-05
  1.189479e-01    5.884523e-05
  1.192468e-01    5.806561e-05
  1.195458e-01    6.273321e-05
  1.198447e-01    6.490144e-05
  1.201436e-01    5.939188e-05
  1.204425e-01    6.002581e-05
  1.207415e-01    5.200612e-05
  1.210404e-01    2.550825e-05
  1.213393e-01    0.000000e+00
  1.216383e-01    0.000000e+00
  1.219372e-01    0.000000e+00
  1.222361e-01    0.000000e+00
  1.225351e-01    0.000000e+00
  1.228340e-01    0.000000e+00
  1.231329e-01    0.000000e+00
  1.234318e-01    0.000000e+00
  1.237308e-01    0.000000e+00
  1.240297e-01    0.000000e+00
  1.243286e-01    0.000000e+00
  1.246276e-01    0.000000e+00
  1.249265e-01    0.000000e+00
  1.252254e-01    0.000000e+00
  1.255244e-01    0.000000e+00
  1.258233e-01    0.000000e+00
  1.261222e-01    0.000000e+00
  1.264212e-01    0.000000e+00
  1.267201e-01    0.000000e+00
  1.270190e-01    0.000000e+00
  1.273179e-01    0.000000e+00
  1.276169e-01    0.000000e+00
  1.279158e-01    0.000000e+00
  1.282147e-01    0.000000e+00
  1.285137e-01    0.000000e+00
  1.288126e-01    0.000000e+00
  1.291115e-01    0.000000e+00
  1.294105e-01    0.000000e+00
  1.297094e-01    0.000000e+00
  1.300083e-01    0.000000e+00
  1.303072e-01    0.000000e+00
  1.306062e-01    0.000000e+00
  1.309051e-01    0.000000e+00
  1.312040e-01    0.000000e+00
  1.315030e-01    0.000000e+00
  1.318019e-01    0.000000e+00
  1.321008e-01    0.000000e+00
  1.323998e-01    0.000000e+00
  1.326987e-01    0.000000e+00
  1.329976e-01    0.000000e+00
  1.332965e-01    0.000000e+00
  1.335955e-01    0.000000e+00
  1.338944e-01    0.000000e+00
  1.341933e-01    0.000000e+00
  1.344923e-01    0.000000e+00
  1.347912e-01    0.000000e+00
  1.350901e-01    0.000000e+00
  1.353891e-01    0.000000e+00
  1.356880e-01    0.000000e+00
  1.359869e-01    0.000000e+00
  1.362859e-01    0.000000e+00
  1.365848e-01    0.000000e+00
  1.368837e-01    0.000000e+00
  1.371826e-01    0.000000e+00
  1.374816e-01    0.000000e+00
  1.377805e-01    0.000000e+00
  1.380794e-01    0.000000e+00
  1.383784e-01    0.000000e+00
  1.386773e-01    0.000000e+00
  1.389762e-01    0.000000e+00
  1.392752e-01    0.000000e+00
  1.395741e-01    0.000000e+00
  1.398730e-01    0.000000e+00
  1.401719e-01    0.000000e+00
  1.404709e-01    0.000000e+00
  1.407698e-01    0.000000e+00
  1.410687e-01    0.000000e+00
  1.413677e-01    0.000000e+00
  1.416666e-01    0.000000e+00
  1.419655e-01    0.000000e+00
  1.422645e-01    0.000000e+00
  1.425634e-01    0.000000e+00
  1.428623e-01    0.000000e+00
  1.431613e-01    0.000000e+00
  1.434602e-01    0.000000e+00
  1.437591e-01    0.000000e+00
  1.440580e-01    0.000000e+00
  1.443570e-01    0.000000e+00
  1.446559e-01    0.000000e+00
  1.449548e-01    0.000000e+00
  1.452538e-01    0.000000e+00
  1.455527e-01    0.000000e+00
  1.458516e-01    0.000000e+00
  1.461506e-01    0.000000e+00
  1.464495e-01    0.000000e+00
  1.467484e-01    0.000000e+00
  1.470473e-01    0.000000e+00
  1.473463e-01    0.000000e+00
  1.476452e-01    0.000000e+00
  1.479441e-01    0.000000e+00
  1.482431e-01    0.000000e+00
  1.485420e-01    0.000000e+00
  1.488409e-01    0.000000e+00
  1.491399e-01    0.000000e+00
  1.494388e-01    0.000000e+00
  1.497377e-01    0.000000e+00
  1.500367e-01    0.000000e+00
  1.503356e-01    0.000000e+00
  1.506345e-01    0.000000e+00
  1.509334e-01    0.000000e+00
  1.512324e-01    0.000000e+00
  1.515313e-01    0.000000e+00
  1.518302e-01    0.000000e+00
  1.521292e-01    0.000000e+00
  1.524281e-01    0.000000e+00
  1.527270e-01    0.000000e+00
  1.530260e-01    0.000000e+00
  1.533249e-01    0.000000e+00
  1.536238e-01    0.000000e+00
