# == pyFAI calibration ==
# Distance Sample to Detector: 2.266 m
# PONI: 5.659e-02, 4.293e-02 m
# Rotations: 0.000000 0.000000 0.000000 rad
# 
# == Fit2d calibration ==
# Distance Sample-beamCenter: 2266.000 mm
# Center: x=249.594, y=329.012 pix
# Tilt: 0.000 deg  TiltPlanRot: 0.000 deg
# 
# Detector Pilatus 300k	 PixelSize= 1.720e-04, 1.720e-04 m
#    Detector has a mask: True 
#    Detector has a dark current: False 
#    detector has a flat field: False 
# 
# Wavelength: 1.27818e-10 m
# Mask applied: user provided
# Dark current applied: False
# Flat field applied: False
# Polarization factor: None
# Normalization factor: 32875.85
# --> MT-latex_CL3252_TiO2_R706_phiT_0.010_PVC_1.000_DOP_0.010_1_r1d.csv
#        q_A^-1             I 
  4.457554e-03    4.197631e-02
  4.756484e-03    3.404347e-02
  5.055415e-03    2.427859e-02
  5.354345e-03    1.677743e-02
  5.653276e-03    1.295150e-02
  5.952206e-03    2.114295e-02
  6.251136e-03    1.918848e-02
  6.550067e-03    1.661091e-02
  6.848997e-03    1.417133e-02
  7.147927e-03    1.184188e-02
  7.446858e-03    1.005520e-02
  7.745788e-03    8.600331e-03
  8.044719e-03    7.424151e-03
  8.343649e-03    6.457659e-03
  8.642579e-03    5.618741e-03
  8.941510e-03    4.935873e-03
  9.240440e-03    4.362604e-03
  9.539371e-03    3.879473e-03
  9.838301e-03    3.428796e-03
  1.013723e-02    3.108085e-03
  1.043616e-02    2.779091e-03
  1.073509e-02    2.490939e-03
  1.103402e-02    2.235692e-03
  1.133295e-02    2.023108e-03
  1.163188e-02    1.816964e-03
  1.193081e-02    1.665650e-03
  1.222974e-02    1.519226e-03
  1.252867e-02    1.385311e-03
  1.282760e-02    1.283980e-03
  1.312654e-02    1.179663e-03
  1.342547e-02    1.100945e-03
  1.372440e-02    1.012273e-03
  1.402333e-02    9.592770e-04
  1.432226e-02    8.899281e-04
  1.462119e-02    8.224805e-04
  1.492012e-02    7.757948e-04
  1.521905e-02    7.093286e-04
  1.551798e-02    6.625057e-04
  1.581691e-02    6.263224e-04
  1.611584e-02    5.876418e-04
  1.641477e-02    5.495446e-04
  1.671370e-02    5.216131e-04
  1.701263e-02    4.825219e-04
  1.731156e-02    4.624478e-04
  1.761049e-02    4.439827e-04
  1.790942e-02    4.213917e-04
  1.820835e-02    4.048385e-04
  1.850728e-02    3.811864e-04
  1.880621e-02    3.645322e-04
  1.910514e-02    3.483139e-04
  1.940407e-02    3.335493e-04
  1.970300e-02    3.223590e-04
  2.000193e-02    3.049030e-04
  2.030086e-02    2.902494e-04
  2.059979e-02    2.791534e-04
  2.089873e-02    2.701798e-04
  2.119766e-02    2.631132e-04
  2.149659e-02    2.543144e-04
  2.179552e-02    2.489895e-04
  2.209445e-02    2.385239e-04
  2.239338e-02    2.331655e-04
  2.269231e-02    2.276677e-04
  2.299124e-02    2.161765e-04
  2.329017e-02    2.106900e-04
  2.358910e-02    2.054820e-04
  2.388803e-02    1.974899e-04
  2.418696e-02    1.945559e-04
  2.448589e-02    1.963409e-04
  2.478482e-02    1.913545e-04
  2.508375e-02    1.879726e-04
  2.538268e-02    1.869370e-04
  2.568161e-02    1.789468e-04
  2.598054e-02    1.691996e-04
  2.627947e-02    1.702075e-04
  2.657840e-02    1.692197e-04
  2.687733e-02    1.645069e-04
  2.717626e-02    1.658574e-04
  2.747519e-02    1.622206e-04
  2.777412e-02    1.568319e-04
  2.807305e-02    1.518735e-04
  2.837198e-02    1.532232e-04
  2.867092e-02    1.510438e-04
  2.896985e-02    1.489111e-04
  2.926878e-02    1.462469e-04
  2.956771e-02    1.451917e-04
  2.986664e-02    1.436502e-04
  3.016557e-02    1.449750e-04
  3.046450e-02    1.425525e-04
  3.076343e-02    1.389808e-04
  3.106236e-02    1.364238e-04
  3.136129e-02    1.348199e-04
  3.166022e-02    1.368353e-04
  3.195915e-02    1.370139e-04
  3.225808e-02    1.360129e-04
  3.255701e-02    1.331998e-04
  3.285594e-02    1.297826e-04
  3.315487e-02    1.268670e-04
  3.345380e-02    1.272858e-04
  3.375273e-02    1.286848e-04
  3.405166e-02    1.225888e-04
  3.435059e-02    1.195401e-04
  3.464952e-02    1.207307e-04
  3.494845e-02    1.234204e-04
  3.524738e-02    1.223275e-04
  3.554631e-02    1.215169e-04
  3.584524e-02    1.180390e-04
  3.614417e-02    1.179660e-04
  3.644310e-02    1.149126e-04
  3.674204e-02    1.154169e-04
  3.704097e-02    1.133446e-04
  3.733990e-02    1.135372e-04
  3.763883e-02    1.142877e-04
  3.793776e-02    1.123074e-04
  3.823669e-02    1.124621e-04
  3.853562e-02    1.110710e-04
  3.883455e-02    1.105959e-04
  3.913348e-02    1.077549e-04
  3.943241e-02    1.090923e-04
  3.973134e-02    1.104693e-04
  4.003027e-02    1.104918e-04
  4.032920e-02    1.064183e-04
  4.062813e-02    1.060760e-04
  4.092706e-02    1.061039e-04
  4.122599e-02    1.026424e-04
  4.152492e-02    1.042127e-04
  4.182385e-02    1.039782e-04
  4.212278e-02    1.051075e-04
  4.242171e-02    1.063215e-04
  4.272064e-02    1.054782e-04
  4.301957e-02    1.042498e-04
  4.331850e-02    1.011873e-04
  4.361743e-02    9.995138e-05
  4.391636e-02    1.023282e-04
  4.421529e-02    1.032189e-04
  4.451423e-02    1.043188e-04
  4.481316e-02    1.043292e-04
  4.511209e-02    1.016086e-04
  4.541102e-02    9.757605e-05
  4.570995e-02    9.848257e-05
  4.600888e-02    9.955800e-05
  4.630781e-02    1.014048e-04
  4.660674e-02    1.010931e-04
  4.690567e-02    1.010849e-04
  4.720460e-02    1.004211e-04
  4.750353e-02    1.020988e-04
  4.780246e-02    1.021165e-04
  4.810139e-02    1.009942e-04
  4.840032e-02    1.008055e-04
  4.869925e-02    1.008211e-04
  4.899818e-02    1.016375e-04
  4.929711e-02    9.821171e-05
  4.959604e-02    9.937166e-05
  4.989497e-02    1.019640e-04
  5.019390e-02    1.035178e-04
  5.049283e-02    1.042430e-04
  5.079176e-02    1.032534e-04
  5.109069e-02    1.023796e-04
  5.138962e-02    1.006219e-04
  5.168855e-02    1.025191e-04
  5.198748e-02    1.062541e-04
  5.228642e-02    1.049224e-04
  5.258535e-02    1.037336e-04
  5.288428e-02    1.034309e-04
  5.318321e-02    1.015001e-04
  5.348214e-02    1.011144e-04
  5.378107e-02    1.018009e-04
  5.408000e-02    1.002760e-04
  5.437893e-02    1.010291e-04
  5.467786e-02    9.991164e-05
  5.497679e-02    1.000993e-04
  5.527572e-02    1.013577e-04
  5.557465e-02    9.817781e-05
  5.587358e-02    9.917919e-05
  5.617251e-02    1.004553e-04
  5.647144e-02    1.013114e-04
  5.677037e-02    1.033388e-04
  5.706930e-02    1.014231e-04
  5.736823e-02    1.000650e-04
  5.766716e-02    1.006126e-04
  5.796609e-02    1.000564e-04
  5.826502e-02    1.007771e-04
  5.856395e-02    1.029718e-04
  5.886288e-02    1.008332e-04
  5.916181e-02    1.022109e-04
  5.946074e-02    1.012774e-04
  5.975967e-02    1.023832e-04
  6.005861e-02    9.977951e-05
  6.035754e-02    1.007389e-04
  6.065647e-02    9.991171e-05
  6.095540e-02    1.010522e-04
  6.125433e-02    1.050031e-04
  6.155326e-02    1.083847e-04
  6.185219e-02    1.064321e-04
  6.215112e-02    1.025024e-04
  6.245005e-02    1.004633e-04
  6.274898e-02    1.024251e-04
  6.304791e-02    1.023802e-04
  6.334684e-02    1.018753e-04
  6.364577e-02    1.030056e-04
  6.394470e-02    1.033020e-04
  6.424363e-02    1.008583e-04
  6.454256e-02    1.031374e-04
  6.484149e-02    1.033058e-04
  6.514042e-02    1.034641e-04
  6.543935e-02    1.045892e-04
  6.573828e-02    1.036246e-04
  6.603721e-02    1.034900e-04
  6.633614e-02    1.031561e-04
  6.663507e-02    1.037712e-04
  6.693400e-02    1.043604e-04
  6.723293e-02    1.050278e-04
  6.753186e-02    1.049185e-04
  6.783080e-02    1.049616e-04
  6.812973e-02    1.077472e-04
  6.842866e-02    1.086754e-04
  6.872759e-02    1.056265e-04
  6.902652e-02    1.066180e-04
  6.932545e-02    1.062868e-04
  6.962438e-02    1.056228e-04
  6.992331e-02    1.051955e-04
  7.022224e-02    1.051729e-04
  7.052117e-02    1.072659e-04
  7.082010e-02    1.060389e-04
  7.111903e-02    1.062627e-04
  7.141796e-02    1.068537e-04
  7.171689e-02    1.050798e-04
  7.201582e-02    1.035110e-04
  7.231475e-02    1.051938e-04
  7.261368e-02    1.054197e-04
  7.291261e-02    1.052598e-04
  7.321154e-02    1.059996e-04
  7.351047e-02    1.064079e-04
  7.380940e-02    1.073132e-04
  7.410833e-02    1.074790e-04
  7.440726e-02    1.081126e-04
  7.470619e-02    1.077231e-04
  7.500512e-02    1.081609e-04
  7.530405e-02    1.082271e-04
  7.560299e-02    1.065296e-04
  7.590192e-02    1.081205e-04
  7.620085e-02    1.082596e-04
  7.649978e-02    1.081426e-04
  7.679871e-02    1.067422e-04
  7.709764e-02    1.067108e-04
  7.739657e-02    1.078337e-04
  7.769550e-02    1.071256e-04
  7.799443e-02    1.086408e-04
  7.829336e-02    1.083078e-04
  7.859229e-02    1.066729e-04
  7.889122e-02    1.060214e-04
  7.919015e-02    1.054332e-04
  7.948908e-02    1.074140e-04
  7.978801e-02    1.075299e-04
  8.008694e-02    1.059552e-04
  8.038587e-02    1.059558e-04
  8.068480e-02    1.049064e-04
  8.098373e-02    1.034500e-04
  8.128266e-02    1.060739e-04
  8.158159e-02    1.053655e-04
  8.188052e-02    1.039822e-04
  8.217945e-02    1.059767e-04
  8.247838e-02    1.057215e-04
  8.277731e-02    1.051307e-04
  8.307624e-02    1.046772e-04
  8.337518e-02    1.037410e-04
  8.367411e-02    1.037553e-04
  8.397304e-02    1.054538e-04
  8.427197e-02    1.032409e-04
  8.457090e-02    1.035168e-04
  8.486983e-02    1.039147e-04
  8.516876e-02    1.042470e-04
  8.546769e-02    1.033586e-04
  8.576662e-02    1.018509e-04
  8.606555e-02    1.018878e-04
  8.636448e-02    1.030867e-04
  8.666341e-02    1.026700e-04
  8.696234e-02    1.020468e-04
  8.726127e-02    1.019506e-04
  8.756020e-02    1.025449e-04
  8.785913e-02    1.021185e-04
  8.815806e-02    1.002408e-04
  8.845699e-02    9.921547e-05
  8.875592e-02    1.009016e-04
  8.905485e-02    1.013418e-04
  8.935378e-02    9.994217e-05
  8.965271e-02    1.013302e-04
  8.995164e-02    1.010359e-04
  9.025057e-02    1.005502e-04
  9.054950e-02    1.008151e-04
  9.084843e-02    1.014242e-04
  9.114737e-02    1.026726e-04
  9.144630e-02    1.015092e-04
  9.174523e-02    1.005012e-04
  9.204416e-02    9.973075e-05
  9.234309e-02    9.769176e-05
  9.264202e-02    9.850838e-05
  9.294095e-02    9.775627e-05
  9.323988e-02    9.693141e-05
  9.353881e-02    9.875908e-05
  9.383774e-02    9.811157e-05
  9.413667e-02    9.860057e-05
  9.443560e-02    9.835765e-05
  9.473453e-02    9.803467e-05
  9.503346e-02    9.702336e-05
  9.533239e-02    9.514354e-05
  9.563132e-02    9.599759e-05
  9.593025e-02    9.593000e-05
  9.622918e-02    9.721071e-05
  9.652811e-02    9.777160e-05
  9.682704e-02    9.718206e-05
  9.712597e-02    9.771573e-05
  9.742490e-02    9.826917e-05
  9.772383e-02    9.789692e-05
  9.802276e-02    9.810869e-05
  9.832169e-02    9.647249e-05
  9.862062e-02    9.340099e-05
  9.891956e-02    9.278877e-05
  9.921849e-02    9.451412e-05
  9.951742e-02    9.490102e-05
  9.981635e-02    9.381783e-05
  1.001153e-01    9.351312e-05
  1.004142e-01    9.565952e-05
  1.007131e-01    9.606576e-05
  1.010121e-01    9.407548e-05
  1.013110e-01    9.394984e-05
  1.016099e-01    9.271496e-05
  1.019089e-01    9.052313e-05
  1.022078e-01    9.125088e-05
  1.025067e-01    9.305768e-05
  1.028057e-01    9.386736e-05
  1.031046e-01    9.384580e-05
  1.034035e-01    9.384173e-05
  1.037024e-01    9.308341e-05
  1.040014e-01    9.247069e-05
  1.043003e-01    9.280074e-05
  1.045992e-01    9.426400e-05
  1.048982e-01    9.271360e-05
  1.051971e-01    9.216152e-05
  1.054960e-01    9.010792e-05
  1.057950e-01    8.918822e-05
  1.060939e-01    8.878145e-05
  1.063928e-01    9.018197e-05
  1.066917e-01    8.997550e-05
  1.069907e-01    9.025809e-05
  1.072896e-01    9.147931e-05
  1.075885e-01    9.090872e-05
  1.078875e-01    8.905294e-05
  1.081864e-01    8.800704e-05
  1.084853e-01    8.756379e-05
  1.087843e-01    8.857438e-05
  1.090832e-01    9.035170e-05
  1.093821e-01    8.922539e-05
  1.096810e-01    8.774437e-05
  1.099800e-01    8.692695e-05
  1.102789e-01    8.893388e-05
  1.105778e-01    8.792296e-05
  1.108768e-01    8.607806e-05
  1.111757e-01    8.612089e-05
  1.114746e-01    8.635344e-05
  1.117736e-01    8.962928e-05
  1.120725e-01    8.791404e-05
  1.123714e-01    8.785554e-05
  1.126704e-01    8.798436e-05
  1.129693e-01    8.564317e-05
  1.132682e-01    8.515915e-05
  1.135671e-01    8.682180e-05
  1.138661e-01    8.467067e-05
  1.141650e-01    8.277140e-05
  1.144639e-01    8.342296e-05
  1.147629e-01    8.461099e-05
  1.150618e-01    8.446685e-05
  1.153607e-01    8.695028e-05
  1.156597e-01    9.032445e-05
  1.159586e-01    8.722197e-05
  1.162575e-01    8.379704e-05
  1.165564e-01    8.437206e-05
  1.168554e-01    8.237939e-05
  1.171543e-01    8.092610e-05
  1.174532e-01    8.262515e-05
  1.177522e-01    8.534746e-05
  1.180511e-01    8.363006e-05
  1.183500e-01    8.216731e-05
  1.186490e-01    8.076430e-05
  1.189479e-01    8.350190e-05
  1.192468e-01    8.741427e-05
  1.195458e-01    8.626720e-05
  1.198447e-01    8.635780e-05
  1.201436e-01    8.446605e-05
  1.204425e-01    9.018389e-05
  1.207415e-01    1.047964e-04
  1.210404e-01    9.133505e-05
  1.213393e-01    0.000000e+00
  1.216383e-01    0.000000e+00
  1.219372e-01    0.000000e+00
  1.222361e-01    0.000000e+00
  1.225351e-01    0.000000e+00
  1.228340e-01    0.000000e+00
  1.231329e-01    0.000000e+00
  1.234318e-01    0.000000e+00
  1.237308e-01    0.000000e+00
  1.240297e-01    0.000000e+00
  1.243286e-01    0.000000e+00
  1.246276e-01    0.000000e+00
  1.249265e-01    0.000000e+00
  1.252254e-01    0.000000e+00
  1.255244e-01    0.000000e+00
  1.258233e-01    0.000000e+00
  1.261222e-01    0.000000e+00
  1.264212e-01    0.000000e+00
  1.267201e-01    0.000000e+00
  1.270190e-01    0.000000e+00
  1.273179e-01    0.000000e+00
  1.276169e-01    0.000000e+00
  1.279158e-01    0.000000e+00
  1.282147e-01    0.000000e+00
  1.285137e-01    0.000000e+00
  1.288126e-01    0.000000e+00
  1.291115e-01    0.000000e+00
  1.294105e-01    0.000000e+00
  1.297094e-01    0.000000e+00
  1.300083e-01    0.000000e+00
  1.303072e-01    0.000000e+00
  1.306062e-01    0.000000e+00
  1.309051e-01    0.000000e+00
  1.312040e-01    0.000000e+00
  1.315030e-01    0.000000e+00
  1.318019e-01    0.000000e+00
  1.321008e-01    0.000000e+00
  1.323998e-01    0.000000e+00
  1.326987e-01    0.000000e+00
  1.329976e-01    0.000000e+00
  1.332965e-01    0.000000e+00
  1.335955e-01    0.000000e+00
  1.338944e-01    0.000000e+00
  1.341933e-01    0.000000e+00
  1.344923e-01    0.000000e+00
  1.347912e-01    0.000000e+00
  1.350901e-01    0.000000e+00
  1.353891e-01    0.000000e+00
  1.356880e-01    0.000000e+00
  1.359869e-01    0.000000e+00
  1.362859e-01    0.000000e+00
  1.365848e-01    0.000000e+00
  1.368837e-01    0.000000e+00
  1.371826e-01    0.000000e+00
  1.374816e-01    0.000000e+00
  1.377805e-01    0.000000e+00
  1.380794e-01    0.000000e+00
  1.383784e-01    0.000000e+00
  1.386773e-01    0.000000e+00
  1.389762e-01    0.000000e+00
  1.392752e-01    0.000000e+00
  1.395741e-01    0.000000e+00
  1.398730e-01    0.000000e+00
  1.401719e-01    0.000000e+00
  1.404709e-01    0.000000e+00
  1.407698e-01    0.000000e+00
  1.410687e-01    0.000000e+00
  1.413677e-01    0.000000e+00
  1.416666e-01    0.000000e+00
  1.419655e-01    0.000000e+00
  1.422645e-01    0.000000e+00
  1.425634e-01    0.000000e+00
  1.428623e-01    0.000000e+00
  1.431613e-01    0.000000e+00
  1.434602e-01    0.000000e+00
  1.437591e-01    0.000000e+00
  1.440580e-01    0.000000e+00
  1.443570e-01    0.000000e+00
  1.446559e-01    0.000000e+00
  1.449548e-01    0.000000e+00
  1.452538e-01    0.000000e+00
  1.455527e-01    0.000000e+00
  1.458516e-01    0.000000e+00
  1.461506e-01    0.000000e+00
  1.464495e-01    0.000000e+00
  1.467484e-01    0.000000e+00
  1.470473e-01    0.000000e+00
  1.473463e-01    0.000000e+00
  1.476452e-01    0.000000e+00
  1.479441e-01    0.000000e+00
  1.482431e-01    0.000000e+00
  1.485420e-01    0.000000e+00
  1.488409e-01    0.000000e+00
  1.491399e-01    0.000000e+00
  1.494388e-01    0.000000e+00
  1.497377e-01    0.000000e+00
  1.500367e-01    0.000000e+00
  1.503356e-01    0.000000e+00
  1.506345e-01    0.000000e+00
  1.509334e-01    0.000000e+00
  1.512324e-01    0.000000e+00
  1.515313e-01    0.000000e+00
  1.518302e-01    0.000000e+00
  1.521292e-01    0.000000e+00
  1.524281e-01    0.000000e+00
  1.527270e-01    0.000000e+00
  1.530260e-01    0.000000e+00
  1.533249e-01    0.000000e+00
  1.536238e-01    0.000000e+00
