# == pyFAI calibration ==
# Distance Sample to Detector: 2.266 m
# PONI: 5.659e-02, 4.293e-02 m
# Rotations: 0.000000 0.000000 0.000000 rad
# 
# == Fit2d calibration ==
# Distance Sample-beamCenter: 2266.000 mm
# Center: x=249.594, y=329.012 pix
# Tilt: 0.000 deg  TiltPlanRot: 0.000 deg
# 
# Detector Pilatus 300k	 PixelSize= 1.720e-04, 1.720e-04 m
#    Detector has a mask: True 
#    Detector has a dark current: False 
#    detector has a flat field: False 
# 
# Wavelength: 1.27818e-10 m
# Mask applied: user provided
# Dark current applied: False
# Flat field applied: False
# Polarization factor: None
# Normalization factor: 63939.44
# --> MT-latex_CL3252_TiO2_R706_phiT_0.110_PVC_0.200_DOP_0.000_2_r1d.csv
#        q_A^-1             I 
  4.457554e-03    4.544011e-02
  4.756484e-03    3.615159e-02
  5.055415e-03    2.670173e-02
  5.354345e-03    1.998585e-02
  5.653276e-03    1.630797e-02
  5.952206e-03    2.708563e-02
  6.251136e-03    2.495667e-02
  6.550067e-03    2.153084e-02
  6.848997e-03    1.821332e-02
  7.147927e-03    1.530831e-02
  7.446858e-03    1.302862e-02
  7.745788e-03    1.114844e-02
  8.044719e-03    9.584798e-03
  8.343649e-03    8.315970e-03
  8.642579e-03    7.220048e-03
  8.941510e-03    6.336611e-03
  9.240440e-03    5.633796e-03
  9.539371e-03    4.987978e-03
  9.838301e-03    4.404662e-03
  1.013723e-02    3.908806e-03
  1.043616e-02    3.510300e-03
  1.073509e-02    3.118593e-03
  1.103402e-02    2.809417e-03
  1.133295e-02    2.552349e-03
  1.163188e-02    2.313833e-03
  1.193081e-02    2.110610e-03
  1.222974e-02    1.927737e-03
  1.252867e-02    1.752800e-03
  1.282760e-02    1.607314e-03
  1.312654e-02    1.482391e-03
  1.342547e-02    1.370162e-03
  1.372440e-02    1.264051e-03
  1.402333e-02    1.157425e-03
  1.432226e-02    1.065088e-03
  1.462119e-02    9.977163e-04
  1.492012e-02    9.329750e-04
  1.521905e-02    8.699066e-04
  1.551798e-02    8.040522e-04
  1.581691e-02    7.538626e-04
  1.611584e-02    7.094006e-04
  1.641477e-02    6.634103e-04
  1.671370e-02    6.282353e-04
  1.701263e-02    5.942204e-04
  1.731156e-02    5.555871e-04
  1.761049e-02    5.242914e-04
  1.790942e-02    4.933783e-04
  1.820835e-02    4.689058e-04
  1.850728e-02    4.505275e-04
  1.880621e-02    4.272909e-04
  1.910514e-02    4.102036e-04
  1.940407e-02    3.878637e-04
  1.970300e-02    3.681947e-04
  2.000193e-02    3.565210e-04
  2.030086e-02    3.400297e-04
  2.059979e-02    3.223797e-04
  2.089873e-02    3.101983e-04
  2.119766e-02    2.961141e-04
  2.149659e-02    2.826659e-04
  2.179552e-02    2.766838e-04
  2.209445e-02    2.696933e-04
  2.239338e-02    2.617151e-04
  2.269231e-02    2.549301e-04
  2.299124e-02    2.422748e-04
  2.329017e-02    2.327325e-04
  2.358910e-02    2.292205e-04
  2.388803e-02    2.220419e-04
  2.418696e-02    2.117202e-04
  2.448589e-02    2.057067e-04
  2.478482e-02    2.005206e-04
  2.508375e-02    1.993972e-04
  2.538268e-02    1.920146e-04
  2.568161e-02    1.875834e-04
  2.598054e-02    1.849730e-04
  2.627947e-02    1.806040e-04
  2.657840e-02    1.791302e-04
  2.687733e-02    1.719203e-04
  2.717626e-02    1.651203e-04
  2.747519e-02    1.656035e-04
  2.777412e-02    1.659234e-04
  2.807305e-02    1.614485e-04
  2.837198e-02    1.590346e-04
  2.867092e-02    1.564383e-04
  2.896985e-02    1.535183e-04
  2.926878e-02    1.522841e-04
  2.956771e-02    1.497916e-04
  2.986664e-02    1.450166e-04
  3.016557e-02    1.438912e-04
  3.046450e-02    1.448648e-04
  3.076343e-02    1.451072e-04
  3.106236e-02    1.442625e-04
  3.136129e-02    1.367484e-04
  3.166022e-02    1.311734e-04
  3.195915e-02    1.314571e-04
  3.225808e-02    1.342791e-04
  3.255701e-02    1.343863e-04
  3.285594e-02    1.292963e-04
  3.315487e-02    1.281841e-04
  3.345380e-02    1.289079e-04
  3.375273e-02    1.277209e-04
  3.405166e-02    1.245311e-04
  3.435059e-02    1.229699e-04
  3.464952e-02    1.215436e-04
  3.494845e-02    1.199943e-04
  3.524738e-02    1.197180e-04
  3.554631e-02    1.196489e-04
  3.584524e-02    1.179149e-04
  3.614417e-02    1.169636e-04
  3.644310e-02    1.139716e-04
  3.674204e-02    1.116730e-04
  3.704097e-02    1.122006e-04
  3.733990e-02    1.101392e-04
  3.763883e-02    1.099970e-04
  3.793776e-02    1.117039e-04
  3.823669e-02    1.116255e-04
  3.853562e-02    1.105278e-04
  3.883455e-02    1.080469e-04
  3.913348e-02    1.064912e-04
  3.943241e-02    1.089102e-04
  3.973134e-02    1.069452e-04
  4.003027e-02    1.050688e-04
  4.032920e-02    1.065416e-04
  4.062813e-02    1.062552e-04
  4.092706e-02    1.047802e-04
  4.122599e-02    1.049918e-04
  4.152492e-02    1.034592e-04
  4.182385e-02    1.026497e-04
  4.212278e-02    1.017600e-04
  4.242171e-02    1.024030e-04
  4.272064e-02    1.028711e-04
  4.301957e-02    1.030297e-04
  4.331850e-02    1.014144e-04
  4.361743e-02    1.026549e-04
  4.391636e-02    1.031014e-04
  4.421529e-02    1.011202e-04
  4.451423e-02    1.006441e-04
  4.481316e-02    9.990645e-05
  4.511209e-02    9.830845e-05
  4.541102e-02    9.763191e-05
  4.570995e-02    9.818000e-05
  4.600888e-02    1.004327e-04
  4.630781e-02    1.002005e-04
  4.660674e-02    9.939154e-05
  4.690567e-02    9.829872e-05
  4.720460e-02    9.828936e-05
  4.750353e-02    9.917675e-05
  4.780246e-02    9.991602e-05
  4.810139e-02    9.960758e-05
  4.840032e-02    1.011091e-04
  4.869925e-02    1.005899e-04
  4.899818e-02    9.989140e-05
  4.929711e-02    9.889923e-05
  4.959604e-02    9.847172e-05
  4.989497e-02    9.834124e-05
  5.019390e-02    9.697870e-05
  5.049283e-02    9.751716e-05
  5.079176e-02    9.869532e-05
  5.109069e-02    9.951374e-05
  5.138962e-02    9.993256e-05
  5.168855e-02    9.964025e-05
  5.198748e-02    1.017359e-04
  5.228642e-02    1.021476e-04
  5.258535e-02    1.009076e-04
  5.288428e-02    9.897925e-05
  5.318321e-02    9.957687e-05
  5.348214e-02    9.736506e-05
  5.378107e-02    9.814515e-05
  5.408000e-02    9.842014e-05
  5.437893e-02    9.788402e-05
  5.467786e-02    9.948762e-05
  5.497679e-02    9.854640e-05
  5.527572e-02    9.932891e-05
  5.557465e-02    9.775013e-05
  5.587358e-02    9.807107e-05
  5.617251e-02    9.974386e-05
  5.647144e-02    9.884327e-05
  5.677037e-02    9.836515e-05
  5.706930e-02    9.911646e-05
  5.736823e-02    1.010007e-04
  5.766716e-02    1.006689e-04
  5.796609e-02    1.009404e-04
  5.826502e-02    1.020351e-04
  5.856395e-02    1.006329e-04
  5.886288e-02    1.022330e-04
  5.916181e-02    1.016275e-04
  5.946074e-02    1.007546e-04
  5.975967e-02    9.991478e-05
  6.005861e-02    1.006874e-04
  6.035754e-02    1.019387e-04
  6.065647e-02    1.030496e-04
  6.095540e-02    1.048595e-04
  6.125433e-02    1.045325e-04
  6.155326e-02    1.032786e-04
  6.185219e-02    1.031444e-04
  6.215112e-02    1.025820e-04
  6.245005e-02    1.007733e-04
  6.274898e-02    1.021235e-04
  6.304791e-02    1.037170e-04
  6.334684e-02    1.033127e-04
  6.364577e-02    1.028924e-04
  6.394470e-02    1.028796e-04
  6.424363e-02    1.031139e-04
  6.454256e-02    1.046553e-04
  6.484149e-02    1.055942e-04
  6.514042e-02    1.055694e-04
  6.543935e-02    1.052216e-04
  6.573828e-02    1.047455e-04
  6.603721e-02    1.028256e-04
  6.633614e-02    1.035189e-04
  6.663507e-02    1.040395e-04
  6.693400e-02    1.039425e-04
  6.723293e-02    1.027952e-04
  6.753186e-02    1.045998e-04
  6.783080e-02    1.038081e-04
  6.812973e-02    1.040245e-04
  6.842866e-02    1.042576e-04
  6.872759e-02    1.045136e-04
  6.902652e-02    1.058593e-04
  6.932545e-02    1.068160e-04
  6.962438e-02    1.053867e-04
  6.992331e-02    1.064345e-04
  7.022224e-02    1.067672e-04
  7.052117e-02    1.049548e-04
  7.082010e-02    1.062168e-04
  7.111903e-02    1.075805e-04
  7.141796e-02    1.076820e-04
  7.171689e-02    1.087073e-04
  7.201582e-02    1.058709e-04
  7.231475e-02    1.066819e-04
  7.261368e-02    1.083158e-04
  7.291261e-02    1.076085e-04
  7.321154e-02    1.072014e-04
  7.351047e-02    1.067238e-04
  7.380940e-02    1.050726e-04
  7.410833e-02    1.046231e-04
  7.440726e-02    1.058727e-04
  7.470619e-02    1.072961e-04
  7.500512e-02    1.067365e-04
  7.530405e-02    1.063371e-04
  7.560299e-02    1.067828e-04
  7.590192e-02    1.070677e-04
  7.620085e-02    1.063697e-04
  7.649978e-02    1.064577e-04
  7.679871e-02    1.064868e-04
  7.709764e-02    1.065524e-04
  7.739657e-02    1.071612e-04
  7.769550e-02    1.078028e-04
  7.799443e-02    1.080713e-04
  7.829336e-02    1.076066e-04
  7.859229e-02    1.068295e-04
  7.889122e-02    1.068695e-04
  7.919015e-02    1.063241e-04
  7.948908e-02    1.061347e-04
  7.978801e-02    1.051808e-04
  8.008694e-02    1.031462e-04
  8.038587e-02    1.040947e-04
  8.068480e-02    1.054558e-04
  8.098373e-02    1.060985e-04
  8.128266e-02    1.051987e-04
  8.158159e-02    1.052613e-04
  8.188052e-02    1.046981e-04
  8.217945e-02    1.044774e-04
  8.247838e-02    1.050764e-04
  8.277731e-02    1.053409e-04
  8.307624e-02    1.052022e-04
  8.337518e-02    1.047629e-04
  8.367411e-02    1.040567e-04
  8.397304e-02    1.039754e-04
  8.427197e-02    1.042534e-04
  8.457090e-02    1.045776e-04
  8.486983e-02    1.039243e-04
  8.516876e-02    1.039346e-04
  8.546769e-02    1.042053e-04
  8.576662e-02    1.030623e-04
  8.606555e-02    1.032952e-04
  8.636448e-02    1.032244e-04
  8.666341e-02    1.037808e-04
  8.696234e-02    1.036101e-04
  8.726127e-02    1.032567e-04
  8.756020e-02    1.027348e-04
  8.785913e-02    1.023715e-04
  8.815806e-02    1.006639e-04
  8.845699e-02    1.010955e-04
  8.875592e-02    1.007204e-04
  8.905485e-02    1.003331e-04
  8.935378e-02    1.007368e-04
  8.965271e-02    1.007269e-04
  8.995164e-02    1.017142e-04
  9.025057e-02    1.012381e-04
  9.054950e-02    1.012906e-04
  9.084843e-02    1.002548e-04
  9.114737e-02    9.991922e-05
  9.144630e-02    1.017813e-04
  9.174523e-02    1.007356e-04
  9.204416e-02    9.918798e-05
  9.234309e-02    9.897138e-05
  9.264202e-02    9.870965e-05
  9.294095e-02    9.839201e-05
  9.323988e-02    9.859980e-05
  9.353881e-02    9.782288e-05
  9.383774e-02    9.824555e-05
  9.413667e-02    9.858286e-05
  9.443560e-02    9.818534e-05
  9.473453e-02    9.877590e-05
  9.503346e-02    9.880656e-05
  9.533239e-02    9.732987e-05
  9.563132e-02    9.582962e-05
  9.593025e-02    9.592501e-05
  9.622918e-02    9.576561e-05
  9.652811e-02    9.696202e-05
  9.682704e-02    9.657220e-05
  9.712597e-02    9.689201e-05
  9.742490e-02    9.821279e-05
  9.772383e-02    9.702670e-05
  9.802276e-02    9.600149e-05
  9.832169e-02    9.514068e-05
  9.862062e-02    9.435289e-05
  9.891956e-02    9.584100e-05
  9.921849e-02    9.534446e-05
  9.951742e-02    9.448924e-05
  9.981635e-02    9.593180e-05
  1.001153e-01    9.550917e-05
  1.004142e-01    9.521613e-05
  1.007131e-01    9.458464e-05
  1.010121e-01    9.481775e-05
  1.013110e-01    9.357066e-05
  1.016099e-01    9.162590e-05
  1.019089e-01    9.225961e-05
  1.022078e-01    9.222874e-05
  1.025067e-01    9.140383e-05
  1.028057e-01    9.180233e-05
  1.031046e-01    9.301317e-05
  1.034035e-01    9.277070e-05
  1.037024e-01    9.128796e-05
  1.040014e-01    9.123260e-05
  1.043003e-01    9.188469e-05
  1.045992e-01    9.209815e-05
  1.048982e-01    9.216551e-05
  1.051971e-01    9.090507e-05
  1.054960e-01    8.953441e-05
  1.057950e-01    8.990147e-05
  1.060939e-01    8.927934e-05
  1.063928e-01    9.049737e-05
  1.066917e-01    9.154765e-05
  1.069907e-01    9.123216e-05
  1.072896e-01    9.117650e-05
  1.075885e-01    8.985735e-05
  1.078875e-01    9.058258e-05
  1.081864e-01    9.133886e-05
  1.084853e-01    9.209650e-05
  1.087843e-01    9.089136e-05
  1.090832e-01    9.012598e-05
  1.093821e-01    9.107715e-05
  1.096810e-01    9.150484e-05
  1.099800e-01    8.944971e-05
  1.102789e-01    8.696174e-05
  1.105778e-01    8.700811e-05
  1.108768e-01    8.837576e-05
  1.111757e-01    8.753851e-05
  1.114746e-01    8.601329e-05
  1.117736e-01    8.585136e-05
  1.120725e-01    8.741207e-05
  1.123714e-01    8.800377e-05
  1.126704e-01    8.775053e-05
  1.129693e-01    8.686056e-05
  1.132682e-01    8.648213e-05
  1.135671e-01    8.702803e-05
  1.138661e-01    8.471063e-05
  1.141650e-01    8.401518e-05
  1.144639e-01    8.611140e-05
  1.147629e-01    8.561273e-05
  1.150618e-01    8.379335e-05
  1.153607e-01    8.223761e-05
  1.156597e-01    8.397915e-05
  1.159586e-01    8.456227e-05
  1.162575e-01    8.337951e-05
  1.165564e-01    8.695432e-05
  1.168554e-01    8.841109e-05
  1.171543e-01    8.598778e-05
  1.174532e-01    8.524882e-05
  1.177522e-01    8.603172e-05
  1.180511e-01    8.594253e-05
  1.183500e-01    8.249642e-05
  1.186490e-01    7.910736e-05
  1.189479e-01    8.013338e-05
  1.192468e-01    8.169703e-05
  1.195458e-01    8.191823e-05
  1.198447e-01    8.032905e-05
  1.201436e-01    8.017087e-05
  1.204425e-01    7.407102e-05
  1.207415e-01    7.069562e-05
  1.210404e-01    6.261587e-05
  1.213393e-01    0.000000e+00
  1.216383e-01    0.000000e+00
  1.219372e-01    0.000000e+00
  1.222361e-01    0.000000e+00
  1.225351e-01    0.000000e+00
  1.228340e-01    0.000000e+00
  1.231329e-01    0.000000e+00
  1.234318e-01    0.000000e+00
  1.237308e-01    0.000000e+00
  1.240297e-01    0.000000e+00
  1.243286e-01    0.000000e+00
  1.246276e-01    0.000000e+00
  1.249265e-01    0.000000e+00
  1.252254e-01    0.000000e+00
  1.255244e-01    0.000000e+00
  1.258233e-01    0.000000e+00
  1.261222e-01    0.000000e+00
  1.264212e-01    0.000000e+00
  1.267201e-01    0.000000e+00
  1.270190e-01    0.000000e+00
  1.273179e-01    0.000000e+00
  1.276169e-01    0.000000e+00
  1.279158e-01    0.000000e+00
  1.282147e-01    0.000000e+00
  1.285137e-01    0.000000e+00
  1.288126e-01    0.000000e+00
  1.291115e-01    0.000000e+00
  1.294105e-01    0.000000e+00
  1.297094e-01    0.000000e+00
  1.300083e-01    0.000000e+00
  1.303072e-01    0.000000e+00
  1.306062e-01    0.000000e+00
  1.309051e-01    0.000000e+00
  1.312040e-01    0.000000e+00
  1.315030e-01    0.000000e+00
  1.318019e-01    0.000000e+00
  1.321008e-01    0.000000e+00
  1.323998e-01    0.000000e+00
  1.326987e-01    0.000000e+00
  1.329976e-01    0.000000e+00
  1.332965e-01    0.000000e+00
  1.335955e-01    0.000000e+00
  1.338944e-01    0.000000e+00
  1.341933e-01    0.000000e+00
  1.344923e-01    0.000000e+00
  1.347912e-01    0.000000e+00
  1.350901e-01    0.000000e+00
  1.353891e-01    0.000000e+00
  1.356880e-01    0.000000e+00
  1.359869e-01    0.000000e+00
  1.362859e-01    0.000000e+00
  1.365848e-01    0.000000e+00
  1.368837e-01    0.000000e+00
  1.371826e-01    0.000000e+00
  1.374816e-01    0.000000e+00
  1.377805e-01    0.000000e+00
  1.380794e-01    0.000000e+00
  1.383784e-01    0.000000e+00
  1.386773e-01    0.000000e+00
  1.389762e-01    0.000000e+00
  1.392752e-01    0.000000e+00
  1.395741e-01    0.000000e+00
  1.398730e-01    0.000000e+00
  1.401719e-01    0.000000e+00
  1.404709e-01    0.000000e+00
  1.407698e-01    0.000000e+00
  1.410687e-01    0.000000e+00
  1.413677e-01    0.000000e+00
  1.416666e-01    0.000000e+00
  1.419655e-01    0.000000e+00
  1.422645e-01    0.000000e+00
  1.425634e-01    0.000000e+00
  1.428623e-01    0.000000e+00
  1.431613e-01    0.000000e+00
  1.434602e-01    0.000000e+00
  1.437591e-01    0.000000e+00
  1.440580e-01    0.000000e+00
  1.443570e-01    0.000000e+00
  1.446559e-01    0.000000e+00
  1.449548e-01    0.000000e+00
  1.452538e-01    0.000000e+00
  1.455527e-01    0.000000e+00
  1.458516e-01    0.000000e+00
  1.461506e-01    0.000000e+00
  1.464495e-01    0.000000e+00
  1.467484e-01    0.000000e+00
  1.470473e-01    0.000000e+00
  1.473463e-01    0.000000e+00
  1.476452e-01    0.000000e+00
  1.479441e-01    0.000000e+00
  1.482431e-01    0.000000e+00
  1.485420e-01    0.000000e+00
  1.488409e-01    0.000000e+00
  1.491399e-01    0.000000e+00
  1.494388e-01    0.000000e+00
  1.497377e-01    0.000000e+00
  1.500367e-01    0.000000e+00
  1.503356e-01    0.000000e+00
  1.506345e-01    0.000000e+00
  1.509334e-01    0.000000e+00
  1.512324e-01    0.000000e+00
  1.515313e-01    0.000000e+00
  1.518302e-01    0.000000e+00
  1.521292e-01    0.000000e+00
  1.524281e-01    0.000000e+00
  1.527270e-01    0.000000e+00
  1.530260e-01    0.000000e+00
  1.533249e-01    0.000000e+00
  1.536238e-01    0.000000e+00
