# == pyFAI calibration ==
# Distance Sample to Detector: 2.266 m
# PONI: 5.659e-02, 4.293e-02 m
# Rotations: 0.000000 0.000000 0.000000 rad
# 
# == Fit2d calibration ==
# Distance Sample-beamCenter: 2266.000 mm
# Center: x=249.594, y=329.012 pix
# Tilt: 0.000 deg  TiltPlanRot: 0.000 deg
# 
# Detector Pilatus 300k	 PixelSize= 1.720e-04, 1.720e-04 m
#    Detector has a mask: True 
#    Detector has a dark current: False 
#    detector has a flat field: False 
# 
# Wavelength: 1.27818e-10 m
# Mask applied: user provided
# Dark current applied: False
# Flat field applied: False
# Polarization factor: None
# Normalization factor: 10123.060000000001
# --> MT-latex_CL3252_TiO2_R706_phiT_0.050_PVC_0.600_DOP_0.015_2_r1d.csv
#        q_A^-1             I 
  4.457554e-03    5.425929e-02
  4.756484e-03    4.312661e-02
  5.055415e-03    3.056374e-02
  5.354345e-03    2.130141e-02
  5.653276e-03    1.712321e-02
  5.952206e-03    2.908478e-02
  6.251136e-03    2.640561e-02
  6.550067e-03    2.290427e-02
  6.848997e-03    1.943541e-02
  7.147927e-03    1.631566e-02
  7.446858e-03    1.389797e-02
  7.745788e-03    1.197210e-02
  8.044719e-03    1.013390e-02
  8.343649e-03    8.646667e-03
  8.642579e-03    7.578955e-03
  8.941510e-03    6.624329e-03
  9.240440e-03    5.903502e-03
  9.539371e-03    5.244040e-03
  9.838301e-03    4.611501e-03
  1.013723e-02    4.084995e-03
  1.043616e-02    3.674193e-03
  1.073509e-02    3.261953e-03
  1.103402e-02    2.937300e-03
  1.133295e-02    2.669625e-03
  1.163188e-02    2.395407e-03
  1.193081e-02    2.172492e-03
  1.222974e-02    1.990316e-03
  1.252867e-02    1.887123e-03
  1.282760e-02    1.730563e-03
  1.312654e-02    1.589141e-03
  1.342547e-02    1.445331e-03
  1.372440e-02    1.335693e-03
  1.402333e-02    1.209204e-03
  1.432226e-02    1.093303e-03
  1.462119e-02    1.042688e-03
  1.492012e-02    9.861619e-04
  1.521905e-02    8.842852e-04
  1.551798e-02    8.304769e-04
  1.581691e-02    7.722389e-04
  1.611584e-02    7.184757e-04
  1.641477e-02    6.953812e-04
  1.671370e-02    6.773622e-04
  1.701263e-02    6.224611e-04
  1.731156e-02    5.657655e-04
  1.761049e-02    5.482615e-04
  1.790942e-02    5.416493e-04
  1.820835e-02    4.884502e-04
  1.850728e-02    4.511079e-04
  1.880621e-02    4.325762e-04
  1.910514e-02    4.161028e-04
  1.940407e-02    4.037988e-04
  1.970300e-02    3.849226e-04
  2.000193e-02    3.822758e-04
  2.030086e-02    3.662211e-04
  2.059979e-02    3.508412e-04
  2.089873e-02    3.383349e-04
  2.119766e-02    3.160835e-04
  2.149659e-02    3.066482e-04
  2.179552e-02    2.946774e-04
  2.209445e-02    2.759568e-04
  2.239338e-02    2.701859e-04
  2.269231e-02    2.688196e-04
  2.299124e-02    2.650901e-04
  2.329017e-02    2.604760e-04
  2.358910e-02    2.527543e-04
  2.388803e-02    2.407806e-04
  2.418696e-02    2.281868e-04
  2.448589e-02    2.216328e-04
  2.478482e-02    2.168307e-04
  2.508375e-02    2.117590e-04
  2.538268e-02    2.069702e-04
  2.568161e-02    2.076062e-04
  2.598054e-02    1.981868e-04
  2.627947e-02    1.965273e-04
  2.657840e-02    2.051522e-04
  2.687733e-02    1.947269e-04
  2.717626e-02    1.860811e-04
  2.747519e-02    1.766916e-04
  2.777412e-02    1.755511e-04
  2.807305e-02    1.772735e-04
  2.837198e-02    1.822497e-04
  2.867092e-02    1.756988e-04
  2.896985e-02    1.760830e-04
  2.926878e-02    1.712437e-04
  2.956771e-02    1.685208e-04
  2.986664e-02    1.745849e-04
  3.016557e-02    1.720349e-04
  3.046450e-02    1.709464e-04
  3.076343e-02    1.692087e-04
  3.106236e-02    1.606550e-04
  3.136129e-02    1.597760e-04
  3.166022e-02    1.587088e-04
  3.195915e-02    1.563893e-04
  3.225808e-02    1.600012e-04
  3.255701e-02    1.605037e-04
  3.285594e-02    1.554476e-04
  3.315487e-02    1.449538e-04
  3.345380e-02    1.468182e-04
  3.375273e-02    1.422024e-04
  3.405166e-02    1.440113e-04
  3.435059e-02    1.453364e-04
  3.464952e-02    1.410629e-04
  3.494845e-02    1.382263e-04
  3.524738e-02    1.405960e-04
  3.554631e-02    1.353100e-04
  3.584524e-02    1.341933e-04
  3.614417e-02    1.326819e-04
  3.644310e-02    1.329701e-04
  3.674204e-02    1.281599e-04
  3.704097e-02    1.219183e-04
  3.733990e-02    1.323065e-04
  3.763883e-02    1.329017e-04
  3.793776e-02    1.231970e-04
  3.823669e-02    1.203367e-04
  3.853562e-02    1.242515e-04
  3.883455e-02    1.236699e-04
  3.913348e-02    1.265060e-04
  3.943241e-02    1.300826e-04
  3.973134e-02    1.264926e-04
  4.003027e-02    1.170172e-04
  4.032920e-02    1.153322e-04
  4.062813e-02    1.148390e-04
  4.092706e-02    1.153091e-04
  4.122599e-02    1.138270e-04
  4.152492e-02    1.104996e-04
  4.182385e-02    1.159684e-04
  4.212278e-02    1.141157e-04
  4.242171e-02    1.151797e-04
  4.272064e-02    1.198559e-04
  4.301957e-02    1.157316e-04
  4.331850e-02    1.145780e-04
  4.361743e-02    1.153779e-04
  4.391636e-02    1.155425e-04
  4.421529e-02    1.166404e-04
  4.451423e-02    1.143033e-04
  4.481316e-02    1.118725e-04
  4.511209e-02    1.132439e-04
  4.541102e-02    1.111783e-04
  4.570995e-02    1.141528e-04
  4.600888e-02    1.168283e-04
  4.630781e-02    1.175587e-04
  4.660674e-02    1.099986e-04
  4.690567e-02    1.112881e-04
  4.720460e-02    1.111926e-04
  4.750353e-02    1.063078e-04
  4.780246e-02    1.060229e-04
  4.810139e-02    1.067137e-04
  4.840032e-02    1.050689e-04
  4.869925e-02    1.071028e-04
  4.899818e-02    1.125449e-04
  4.929711e-02    1.101250e-04
  4.959604e-02    1.105559e-04
  4.989497e-02    1.136124e-04
  5.019390e-02    1.114333e-04
  5.049283e-02    1.108237e-04
  5.079176e-02    1.101433e-04
  5.109069e-02    1.122695e-04
  5.138962e-02    1.127041e-04
  5.168855e-02    1.134467e-04
  5.198748e-02    1.169833e-04
  5.228642e-02    1.163390e-04
  5.258535e-02    1.109528e-04
  5.288428e-02    1.076978e-04
  5.318321e-02    1.065117e-04
  5.348214e-02    1.097935e-04
  5.378107e-02    1.057482e-04
  5.408000e-02    1.075385e-04
  5.437893e-02    1.110587e-04
  5.467786e-02    1.079086e-04
  5.497679e-02    1.043997e-04
  5.527572e-02    1.049803e-04
  5.557465e-02    1.076521e-04
  5.587358e-02    1.069047e-04
  5.617251e-02    1.114044e-04
  5.647144e-02    1.109357e-04
  5.677037e-02    1.040435e-04
  5.706930e-02    1.017324e-04
  5.736823e-02    1.041052e-04
  5.766716e-02    1.086860e-04
  5.796609e-02    1.099095e-04
  5.826502e-02    1.111616e-04
  5.856395e-02    1.100082e-04
  5.886288e-02    1.058357e-04
  5.916181e-02    1.047762e-04
  5.946074e-02    1.094662e-04
  5.975967e-02    1.109455e-04
  6.005861e-02    1.113336e-04
  6.035754e-02    1.095297e-04
  6.065647e-02    1.072174e-04
  6.095540e-02    1.115782e-04
  6.125433e-02    1.145566e-04
  6.155326e-02    1.113991e-04
  6.185219e-02    1.094484e-04
  6.215112e-02    1.097403e-04
  6.245005e-02    1.098991e-04
  6.274898e-02    1.095973e-04
  6.304791e-02    1.134285e-04
  6.334684e-02    1.133552e-04
  6.364577e-02    1.136577e-04
  6.394470e-02    1.123889e-04
  6.424363e-02    1.110147e-04
  6.454256e-02    1.104641e-04
  6.484149e-02    1.142496e-04
  6.514042e-02    1.115465e-04
  6.543935e-02    1.092466e-04
  6.573828e-02    1.103582e-04
  6.603721e-02    1.113923e-04
  6.633614e-02    1.084965e-04
  6.663507e-02    1.093315e-04
  6.693400e-02    1.085872e-04
  6.723293e-02    1.082972e-04
  6.753186e-02    1.097379e-04
  6.783080e-02    1.116700e-04
  6.812973e-02    1.117492e-04
  6.842866e-02    1.138889e-04
  6.872759e-02    1.117880e-04
  6.902652e-02    1.074731e-04
  6.932545e-02    1.083339e-04
  6.962438e-02    1.147726e-04
  6.992331e-02    1.159970e-04
  7.022224e-02    1.120491e-04
  7.052117e-02    1.128734e-04
  7.082010e-02    1.149070e-04
  7.111903e-02    1.154380e-04
  7.141796e-02    1.140671e-04
  7.171689e-02    1.125669e-04
  7.201582e-02    1.107679e-04
  7.231475e-02    1.138732e-04
  7.261368e-02    1.129507e-04
  7.291261e-02    1.151458e-04
  7.321154e-02    1.168749e-04
  7.351047e-02    1.138400e-04
  7.380940e-02    1.132378e-04
  7.410833e-02    1.151996e-04
  7.440726e-02    1.154258e-04
  7.470619e-02    1.128016e-04
  7.500512e-02    1.129209e-04
  7.530405e-02    1.117761e-04
  7.560299e-02    1.122848e-04
  7.590192e-02    1.161286e-04
  7.620085e-02    1.134498e-04
  7.649978e-02    1.081601e-04
  7.679871e-02    1.125038e-04
  7.709764e-02    1.184940e-04
  7.739657e-02    1.139935e-04
  7.769550e-02    1.146730e-04
  7.799443e-02    1.178606e-04
  7.829336e-02    1.164584e-04
  7.859229e-02    1.142274e-04
  7.889122e-02    1.145231e-04
  7.919015e-02    1.176080e-04
  7.948908e-02    1.192509e-04
  7.978801e-02    1.179520e-04
  8.008694e-02    1.148446e-04
  8.038587e-02    1.141763e-04
  8.068480e-02    1.108751e-04
  8.098373e-02    1.121189e-04
  8.128266e-02    1.134627e-04
  8.158159e-02    1.131391e-04
  8.188052e-02    1.126203e-04
  8.217945e-02    1.116073e-04
  8.247838e-02    1.120873e-04
  8.277731e-02    1.153322e-04
  8.307624e-02    1.129320e-04
  8.337518e-02    1.136265e-04
  8.367411e-02    1.139018e-04
  8.397304e-02    1.122819e-04
  8.427197e-02    1.118052e-04
  8.457090e-02    1.107882e-04
  8.486983e-02    1.103734e-04
  8.516876e-02    1.088358e-04
  8.546769e-02    1.086004e-04
  8.576662e-02    1.111755e-04
  8.606555e-02    1.136446e-04
  8.636448e-02    1.076158e-04
  8.666341e-02    1.072846e-04
  8.696234e-02    1.114027e-04
  8.726127e-02    1.108657e-04
  8.756020e-02    1.138263e-04
  8.785913e-02    1.109941e-04
  8.815806e-02    1.090752e-04
  8.845699e-02    1.068200e-04
  8.875592e-02    1.067275e-04
  8.905485e-02    1.081758e-04
  8.935378e-02    1.072376e-04
  8.965271e-02    1.049606e-04
  8.995164e-02    1.094745e-04
  9.025057e-02    1.080107e-04
  9.054950e-02    1.075775e-04
  9.084843e-02    1.072320e-04
  9.114737e-02    1.102889e-04
  9.144630e-02    1.103594e-04
  9.174523e-02    1.088097e-04
  9.204416e-02    1.051377e-04
  9.234309e-02    1.040628e-04
  9.264202e-02    1.049091e-04
  9.294095e-02    1.043193e-04
  9.323988e-02    1.049931e-04
  9.353881e-02    1.041046e-04
  9.383774e-02    1.044895e-04
  9.413667e-02    1.034632e-04
  9.443560e-02    1.025202e-04
  9.473453e-02    1.035261e-04
  9.503346e-02    1.021338e-04
  9.533239e-02    9.746112e-05
  9.563132e-02    9.724305e-05
  9.593025e-02    1.031457e-04
  9.622918e-02    1.051052e-04
  9.652811e-02    1.029364e-04
  9.682704e-02    1.037057e-04
  9.712597e-02    1.011617e-04
  9.742490e-02    1.019890e-04
  9.772383e-02    1.031850e-04
  9.802276e-02    1.008335e-04
  9.832169e-02    9.974118e-05
  9.862062e-02    1.000354e-04
  9.891956e-02    1.028999e-04
  9.921849e-02    1.062487e-04
  9.951742e-02    1.024052e-04
  9.981635e-02    1.010950e-04
  1.001153e-01    9.849489e-05
  1.004142e-01    1.009731e-04
  1.007131e-01    9.763715e-05
  1.010121e-01    9.619261e-05
  1.013110e-01    1.027701e-04
  1.016099e-01    1.041707e-04
  1.019089e-01    1.029204e-04
  1.022078e-01    9.923003e-05
  1.025067e-01    9.563635e-05
  1.028057e-01    9.602537e-05
  1.031046e-01    9.792835e-05
  1.034035e-01    9.578316e-05
  1.037024e-01    9.623833e-05
  1.040014e-01    9.854654e-05
  1.043003e-01    1.011707e-04
  1.045992e-01    9.889199e-05
  1.048982e-01    9.673066e-05
  1.051971e-01    9.708922e-05
  1.054960e-01    9.751804e-05
  1.057950e-01    9.393432e-05
  1.060939e-01    9.418597e-05
  1.063928e-01    9.748069e-05
  1.066917e-01    9.497026e-05
  1.069907e-01    9.522214e-05
  1.072896e-01    9.600507e-05
  1.075885e-01    9.636404e-05
  1.078875e-01    9.909879e-05
  1.081864e-01    1.021178e-04
  1.084853e-01    9.513109e-05
  1.087843e-01    9.468887e-05
  1.090832e-01    9.720797e-05
  1.093821e-01    9.990705e-05
  1.096810e-01    9.733660e-05
  1.099800e-01    9.378039e-05
  1.102789e-01    9.233408e-05
  1.105778e-01    9.204289e-05
  1.108768e-01    9.170773e-05
  1.111757e-01    9.278965e-05
  1.114746e-01    9.650990e-05
  1.117736e-01    9.555210e-05
  1.120725e-01    9.152745e-05
  1.123714e-01    9.327172e-05
  1.126704e-01    9.618302e-05
  1.129693e-01    9.537454e-05
  1.132682e-01    9.564477e-05
  1.135671e-01    9.345729e-05
  1.138661e-01    9.512602e-05
  1.141650e-01    9.294724e-05
  1.144639e-01    8.869355e-05
  1.147629e-01    8.968847e-05
  1.150618e-01    9.092387e-05
  1.153607e-01    9.037368e-05
  1.156597e-01    8.548541e-05
  1.159586e-01    8.657247e-05
  1.162575e-01    8.336843e-05
  1.165564e-01    8.693305e-05
  1.168554e-01    9.693561e-05
  1.171543e-01    1.022402e-04
  1.174532e-01    1.005055e-04
  1.177522e-01    1.029762e-04
  1.180511e-01    9.532343e-05
  1.183500e-01    7.985705e-05
  1.186490e-01    8.697077e-05
  1.189479e-01    9.065928e-05
  1.192468e-01    8.177452e-05
  1.195458e-01    9.127513e-05
  1.198447e-01    1.012827e-04
  1.201436e-01    1.140291e-04
  1.204425e-01    8.905774e-05
  1.207415e-01    2.997090e-05
  1.210404e-01    0.000000e+00
  1.213393e-01    0.000000e+00
  1.216383e-01    0.000000e+00
  1.219372e-01    0.000000e+00
  1.222361e-01    0.000000e+00
  1.225351e-01    0.000000e+00
  1.228340e-01    0.000000e+00
  1.231329e-01    0.000000e+00
  1.234318e-01    0.000000e+00
  1.237308e-01    0.000000e+00
  1.240297e-01    0.000000e+00
  1.243286e-01    0.000000e+00
  1.246276e-01    0.000000e+00
  1.249265e-01    0.000000e+00
  1.252254e-01    0.000000e+00
  1.255244e-01    0.000000e+00
  1.258233e-01    0.000000e+00
  1.261222e-01    0.000000e+00
  1.264212e-01    0.000000e+00
  1.267201e-01    0.000000e+00
  1.270190e-01    0.000000e+00
  1.273179e-01    0.000000e+00
  1.276169e-01    0.000000e+00
  1.279158e-01    0.000000e+00
  1.282147e-01    0.000000e+00
  1.285137e-01    0.000000e+00
  1.288126e-01    0.000000e+00
  1.291115e-01    0.000000e+00
  1.294105e-01    0.000000e+00
  1.297094e-01    0.000000e+00
  1.300083e-01    0.000000e+00
  1.303072e-01    0.000000e+00
  1.306062e-01    0.000000e+00
  1.309051e-01    0.000000e+00
  1.312040e-01    0.000000e+00
  1.315030e-01    0.000000e+00
  1.318019e-01    0.000000e+00
  1.321008e-01    0.000000e+00
  1.323998e-01    0.000000e+00
  1.326987e-01    0.000000e+00
  1.329976e-01    0.000000e+00
  1.332965e-01    0.000000e+00
  1.335955e-01    0.000000e+00
  1.338944e-01    0.000000e+00
  1.341933e-01    0.000000e+00
  1.344923e-01    0.000000e+00
  1.347912e-01    0.000000e+00
  1.350901e-01    0.000000e+00
  1.353891e-01    0.000000e+00
  1.356880e-01    0.000000e+00
  1.359869e-01    0.000000e+00
  1.362859e-01    0.000000e+00
  1.365848e-01    0.000000e+00
  1.368837e-01    0.000000e+00
  1.371826e-01    0.000000e+00
  1.374816e-01    0.000000e+00
  1.377805e-01    0.000000e+00
  1.380794e-01    0.000000e+00
  1.383784e-01    0.000000e+00
  1.386773e-01    0.000000e+00
  1.389762e-01    0.000000e+00
  1.392752e-01    0.000000e+00
  1.395741e-01    0.000000e+00
  1.398730e-01    0.000000e+00
  1.401719e-01    0.000000e+00
  1.404709e-01    0.000000e+00
  1.407698e-01    0.000000e+00
  1.410687e-01    0.000000e+00
  1.413677e-01    0.000000e+00
  1.416666e-01    0.000000e+00
  1.419655e-01    0.000000e+00
  1.422645e-01    0.000000e+00
  1.425634e-01    0.000000e+00
  1.428623e-01    0.000000e+00
  1.431613e-01    0.000000e+00
  1.434602e-01    0.000000e+00
  1.437591e-01    0.000000e+00
  1.440580e-01    0.000000e+00
  1.443570e-01    0.000000e+00
  1.446559e-01    0.000000e+00
  1.449548e-01    0.000000e+00
  1.452538e-01    0.000000e+00
  1.455527e-01    0.000000e+00
  1.458516e-01    0.000000e+00
  1.461506e-01    0.000000e+00
  1.464495e-01    0.000000e+00
  1.467484e-01    0.000000e+00
  1.470473e-01    0.000000e+00
  1.473463e-01    0.000000e+00
  1.476452e-01    0.000000e+00
  1.479441e-01    0.000000e+00
  1.482431e-01    0.000000e+00
  1.485420e-01    0.000000e+00
  1.488409e-01    0.000000e+00
  1.491399e-01    0.000000e+00
  1.494388e-01    0.000000e+00
  1.497377e-01    0.000000e+00
  1.500367e-01    0.000000e+00
  1.503356e-01    0.000000e+00
  1.506345e-01    0.000000e+00
  1.509334e-01    0.000000e+00
  1.512324e-01    0.000000e+00
  1.515313e-01    0.000000e+00
  1.518302e-01    0.000000e+00
  1.521292e-01    0.000000e+00
  1.524281e-01    0.000000e+00
  1.527270e-01    0.000000e+00
  1.530260e-01    0.000000e+00
  1.533249e-01    0.000000e+00
  1.536238e-01    0.000000e+00
