# == pyFAI calibration ==
# Distance Sample to Detector: 2.266 m
# PONI: 5.659e-02, 4.293e-02 m
# Rotations: 0.000000 0.000000 0.000000 rad
# 
# == Fit2d calibration ==
# Distance Sample-beamCenter: 2266.000 mm
# Center: x=249.594, y=329.012 pix
# Tilt: 0.000 deg  TiltPlanRot: 0.000 deg
# 
# Detector Pilatus 300k	 PixelSize= 1.720e-04, 1.720e-04 m
#    Detector has a mask: True 
#    Detector has a dark current: False 
#    detector has a flat field: False 
# 
# Wavelength: 1.27818e-10 m
# Mask applied: user provided
# Dark current applied: False
# Flat field applied: False
# Polarization factor: None
# Normalization factor: 24619.56
# --> MT-latex_CL3252_TiO2_R706_phiT_0.090_PVC_0.600_DOP_0.005_0_r1d.csv
#        q_A^-1             I 
  4.457554e-03    5.646651e-01
  4.756484e-03    4.999734e-01
  5.055415e-03    4.262471e-01
  5.354345e-03    3.580646e-01
  5.653276e-03    3.095534e-01
  5.952206e-03    9.396440e-01
  6.251136e-03    8.551609e-01
  6.550067e-03    7.354640e-01
  6.848997e-03    6.053337e-01
  7.147927e-03    4.896115e-01
  7.446858e-03    4.007488e-01
  7.745788e-03    3.287857e-01
  8.044719e-03    2.720417e-01
  8.343649e-03    2.288996e-01
  8.642579e-03    1.925989e-01
  8.941510e-03    1.637040e-01
  9.240440e-03    1.404182e-01
  9.539371e-03    1.207244e-01
  9.838301e-03    1.040381e-01
  1.013723e-02    9.046161e-02
  1.043616e-02    7.924197e-02
  1.073509e-02    6.870887e-02
  1.103402e-02    6.031503e-02
  1.133295e-02    5.338966e-02
  1.163188e-02    4.761147e-02
  1.193081e-02    4.261290e-02
  1.222974e-02    3.825437e-02
  1.252867e-02    3.443163e-02
  1.282760e-02    3.103041e-02
  1.312654e-02    2.806876e-02
  1.342547e-02    2.547397e-02
  1.372440e-02    2.311229e-02
  1.402333e-02    2.098011e-02
  1.432226e-02    1.910913e-02
  1.462119e-02    1.747409e-02
  1.492012e-02    1.599825e-02
  1.521905e-02    1.474372e-02
  1.551798e-02    1.361008e-02
  1.581691e-02    1.253549e-02
  1.611584e-02    1.149948e-02
  1.641477e-02    1.063749e-02
  1.671370e-02    9.859430e-03
  1.701263e-02    9.103611e-03
  1.731156e-02    8.455114e-03
  1.761049e-02    7.851308e-03
  1.790942e-02    7.315458e-03
  1.820835e-02    6.788685e-03
  1.850728e-02    6.338972e-03
  1.880621e-02    5.904842e-03
  1.910514e-02    5.491798e-03
  1.940407e-02    5.096795e-03
  1.970300e-02    4.770259e-03
  2.000193e-02    4.485805e-03
  2.030086e-02    4.201101e-03
  2.059979e-02    3.938973e-03
  2.089873e-02    3.730410e-03
  2.119766e-02    3.520064e-03
  2.149659e-02    3.300677e-03
  2.179552e-02    3.103947e-03
  2.209445e-02    2.946521e-03
  2.239338e-02    2.765714e-03
  2.269231e-02    2.618585e-03
  2.299124e-02    2.483156e-03
  2.329017e-02    2.344244e-03
  2.358910e-02    2.219059e-03
  2.388803e-02    2.114424e-03
  2.418696e-02    1.990062e-03
  2.448589e-02    1.886777e-03
  2.478482e-02    1.779438e-03
  2.508375e-02    1.700506e-03
  2.538268e-02    1.629425e-03
  2.568161e-02    1.551968e-03
  2.598054e-02    1.463793e-03
  2.627947e-02    1.391316e-03
  2.657840e-02    1.331178e-03
  2.687733e-02    1.271387e-03
  2.717626e-02    1.219645e-03
  2.747519e-02    1.155703e-03
  2.777412e-02    1.110664e-03
  2.807305e-02    1.062637e-03
  2.837198e-02    1.020072e-03
  2.867092e-02    9.754454e-04
  2.896985e-02    9.341296e-04
  2.926878e-02    9.013948e-04
  2.956771e-02    8.698450e-04
  2.986664e-02    8.353105e-04
  3.016557e-02    7.956659e-04
  3.046450e-02    7.471759e-04
  3.076343e-02    7.275362e-04
  3.106236e-02    7.083138e-04
  3.136129e-02    6.806079e-04
  3.166022e-02    6.518584e-04
  3.195915e-02    6.330747e-04
  3.225808e-02    6.169961e-04
  3.255701e-02    5.916079e-04
  3.285594e-02    5.714231e-04
  3.315487e-02    5.511528e-04
  3.345380e-02    5.304561e-04
  3.375273e-02    5.015451e-04
  3.405166e-02    4.862095e-04
  3.435059e-02    4.740494e-04
  3.464952e-02    4.603574e-04
  3.494845e-02    4.396416e-04
  3.524738e-02    4.285995e-04
  3.554631e-02    4.207002e-04
  3.584524e-02    4.022842e-04
  3.614417e-02    3.867034e-04
  3.644310e-02    3.784112e-04
  3.674204e-02    3.661638e-04
  3.704097e-02    3.560515e-04
  3.733990e-02    3.433771e-04
  3.763883e-02    3.339662e-04
  3.793776e-02    3.260142e-04
  3.823669e-02    3.172433e-04
  3.853562e-02    3.063368e-04
  3.883455e-02    3.003401e-04
  3.913348e-02    2.927779e-04
  3.943241e-02    2.833342e-04
  3.973134e-02    2.803211e-04
  4.003027e-02    2.700333e-04
  4.032920e-02    2.666949e-04
  4.062813e-02    2.593697e-04
  4.092706e-02    2.496349e-04
  4.122599e-02    2.441543e-04
  4.152492e-02    2.376051e-04
  4.182385e-02    2.332943e-04
  4.212278e-02    2.282830e-04
  4.242171e-02    2.243190e-04
  4.272064e-02    2.145096e-04
  4.301957e-02    2.074067e-04
  4.331850e-02    2.079808e-04
  4.361743e-02    2.004460e-04
  4.391636e-02    1.956613e-04
  4.421529e-02    1.967438e-04
  4.451423e-02    1.912108e-04
  4.481316e-02    1.885166e-04
  4.511209e-02    1.863065e-04
  4.541102e-02    1.818907e-04
  4.570995e-02    1.782501e-04
  4.600888e-02    1.722197e-04
  4.630781e-02    1.724911e-04
  4.660674e-02    1.693677e-04
  4.690567e-02    1.623558e-04
  4.720460e-02    1.576822e-04
  4.750353e-02    1.615799e-04
  4.780246e-02    1.600396e-04
  4.810139e-02    1.575008e-04
  4.840032e-02    1.576931e-04
  4.869925e-02    1.519903e-04
  4.899818e-02    1.458912e-04
  4.929711e-02    1.432288e-04
  4.959604e-02    1.440728e-04
  4.989497e-02    1.428299e-04
  5.019390e-02    1.393039e-04
  5.049283e-02    1.403855e-04
  5.079176e-02    1.363218e-04
  5.109069e-02    1.320724e-04
  5.138962e-02    1.320993e-04
  5.168855e-02    1.336178e-04
  5.198748e-02    1.372093e-04
  5.228642e-02    1.324495e-04
  5.258535e-02    1.272626e-04
  5.288428e-02    1.239251e-04
  5.318321e-02    1.227690e-04
  5.348214e-02    1.242970e-04
  5.378107e-02    1.238839e-04
  5.408000e-02    1.213223e-04
  5.437893e-02    1.186808e-04
  5.467786e-02    1.169592e-04
  5.497679e-02    1.132916e-04
  5.527572e-02    1.159437e-04
  5.557465e-02    1.144499e-04
  5.587358e-02    1.109408e-04
  5.617251e-02    1.102456e-04
  5.647144e-02    1.087307e-04
  5.677037e-02    1.098048e-04
  5.706930e-02    1.088042e-04
  5.736823e-02    1.081110e-04
  5.766716e-02    1.069738e-04
  5.796609e-02    1.085446e-04
  5.826502e-02    1.071672e-04
  5.856395e-02    1.034195e-04
  5.886288e-02    1.052149e-04
  5.916181e-02    1.036436e-04
  5.946074e-02    1.025825e-04
  5.975967e-02    1.017877e-04
  6.005861e-02    1.008688e-04
  6.035754e-02    1.025906e-04
  6.065647e-02    1.006115e-04
  6.095540e-02    1.005776e-04
  6.125433e-02    1.004999e-04
  6.155326e-02    9.973181e-05
  6.185219e-02    9.810965e-05
  6.215112e-02    9.535960e-05
  6.245005e-02    9.550331e-05
  6.274898e-02    9.616840e-05
  6.304791e-02    9.698858e-05
  6.334684e-02    9.653180e-05
  6.364577e-02    9.505164e-05
  6.394470e-02    9.204118e-05
  6.424363e-02    9.231667e-05
  6.454256e-02    9.213419e-05
  6.484149e-02    9.128400e-05
  6.514042e-02    9.271472e-05
  6.543935e-02    9.361437e-05
  6.573828e-02    9.160398e-05
  6.603721e-02    9.057036e-05
  6.633614e-02    9.136501e-05
  6.663507e-02    9.094394e-05
  6.693400e-02    8.900623e-05
  6.723293e-02    8.826650e-05
  6.753186e-02    9.015697e-05
  6.783080e-02    9.042110e-05
  6.812973e-02    9.124071e-05
  6.842866e-02    8.961115e-05
  6.872759e-02    8.833872e-05
  6.902652e-02    8.821394e-05
  6.932545e-02    8.752938e-05
  6.962438e-02    8.624326e-05
  6.992331e-02    8.737713e-05
  7.022224e-02    8.893351e-05
  7.052117e-02    8.693356e-05
  7.082010e-02    8.812536e-05
  7.111903e-02    8.830282e-05
  7.141796e-02    8.538020e-05
  7.171689e-02    8.631648e-05
  7.201582e-02    8.866587e-05
  7.231475e-02    8.721794e-05
  7.261368e-02    8.559482e-05
  7.291261e-02    8.631741e-05
  7.321154e-02    8.586339e-05
  7.351047e-02    8.386880e-05
  7.380940e-02    8.519774e-05
  7.410833e-02    8.406728e-05
  7.440726e-02    8.284411e-05
  7.470619e-02    8.260018e-05
  7.500512e-02    8.206473e-05
  7.530405e-02    8.585698e-05
  7.560299e-02    8.559968e-05
  7.590192e-02    8.524345e-05
  7.620085e-02    8.445344e-05
  7.649978e-02    8.345827e-05
  7.679871e-02    8.259864e-05
  7.709764e-02    8.097999e-05
  7.739657e-02    8.084622e-05
  7.769550e-02    8.204163e-05
  7.799443e-02    8.156364e-05
  7.829336e-02    8.030401e-05
  7.859229e-02    8.153128e-05
  7.889122e-02    8.098705e-05
  7.919015e-02    8.096143e-05
  7.948908e-02    8.176861e-05
  7.978801e-02    8.098562e-05
  8.008694e-02    8.177472e-05
  8.038587e-02    7.996966e-05
  8.068480e-02    7.777518e-05
  8.098373e-02    7.975401e-05
  8.128266e-02    8.041518e-05
  8.158159e-02    7.842114e-05
  8.188052e-02    7.637974e-05
  8.217945e-02    7.600761e-05
  8.247838e-02    7.733873e-05
  8.277731e-02    7.670162e-05
  8.307624e-02    7.686011e-05
  8.337518e-02    7.635832e-05
  8.367411e-02    7.734817e-05
  8.397304e-02    7.741107e-05
  8.427197e-02    7.497690e-05
  8.457090e-02    7.454419e-05
  8.486983e-02    7.498549e-05
  8.516876e-02    7.406579e-05
  8.546769e-02    7.611765e-05
  8.576662e-02    7.622827e-05
  8.606555e-02    7.553447e-05
  8.636448e-02    7.564190e-05
  8.666341e-02    7.482471e-05
  8.696234e-02    7.511206e-05
  8.726127e-02    7.525017e-05
  8.756020e-02    7.543782e-05
  8.785913e-02    7.418930e-05
  8.815806e-02    7.383222e-05
  8.845699e-02    7.477658e-05
  8.875592e-02    7.216440e-05
  8.905485e-02    7.043097e-05
  8.935378e-02    7.088469e-05
  8.965271e-02    7.209616e-05
  8.995164e-02    7.168269e-05
  9.025057e-02    6.957510e-05
  9.054950e-02    6.875423e-05
  9.084843e-02    7.208828e-05
  9.114737e-02    7.142092e-05
  9.144630e-02    6.942028e-05
  9.174523e-02    7.010938e-05
  9.204416e-02    6.996396e-05
  9.234309e-02    7.077637e-05
  9.264202e-02    6.982009e-05
  9.294095e-02    6.808066e-05
  9.323988e-02    6.944781e-05
  9.353881e-02    6.957903e-05
  9.383774e-02    6.778061e-05
  9.413667e-02    6.770849e-05
  9.443560e-02    6.658163e-05
  9.473453e-02    6.655214e-05
  9.503346e-02    6.611508e-05
  9.533239e-02    6.794530e-05
  9.563132e-02    6.630224e-05
  9.593025e-02    6.677668e-05
  9.622918e-02    6.648144e-05
  9.652811e-02    6.539354e-05
  9.682704e-02    6.834810e-05
  9.712597e-02    6.786502e-05
  9.742490e-02    6.547445e-05
  9.772383e-02    6.853003e-05
  9.802276e-02    6.887223e-05
  9.832169e-02    6.801271e-05
  9.862062e-02    6.692923e-05
  9.891956e-02    6.317190e-05
  9.921849e-02    6.123416e-05
  9.951742e-02    6.334552e-05
  9.981635e-02    6.358082e-05
  1.001153e-01    6.419317e-05
  1.004142e-01    6.480680e-05
  1.007131e-01    6.453792e-05
  1.010121e-01    6.317877e-05
  1.013110e-01    6.249105e-05
  1.016099e-01    6.441247e-05
  1.019089e-01    6.483271e-05
  1.022078e-01    6.514719e-05
  1.025067e-01    6.234801e-05
  1.028057e-01    6.296409e-05
  1.031046e-01    6.431294e-05
  1.034035e-01    6.291680e-05
  1.037024e-01    6.258389e-05
  1.040014e-01    6.310671e-05
  1.043003e-01    6.343472e-05
  1.045992e-01    6.173193e-05
  1.048982e-01    6.115376e-05
  1.051971e-01    6.177329e-05
  1.054960e-01    6.271347e-05
  1.057950e-01    6.258789e-05
  1.060939e-01    6.018829e-05
  1.063928e-01    6.190403e-05
  1.066917e-01    6.291494e-05
  1.069907e-01    6.036245e-05
  1.072896e-01    6.068432e-05
  1.075885e-01    6.042617e-05
  1.078875e-01    6.021521e-05
  1.081864e-01    6.121799e-05
  1.084853e-01    5.923600e-05
  1.087843e-01    5.984826e-05
  1.090832e-01    6.230771e-05
  1.093821e-01    5.987954e-05
  1.096810e-01    5.815402e-05
  1.099800e-01    5.979486e-05
  1.102789e-01    5.905694e-05
  1.105778e-01    5.855844e-05
  1.108768e-01    5.799872e-05
  1.111757e-01    5.711019e-05
  1.114746e-01    5.693207e-05
  1.117736e-01    5.861099e-05
  1.120725e-01    5.906386e-05
  1.123714e-01    5.890044e-05
  1.126704e-01    5.837220e-05
  1.129693e-01    5.753955e-05
  1.132682e-01    5.744121e-05
  1.135671e-01    5.557873e-05
  1.138661e-01    5.422232e-05
  1.141650e-01    5.576404e-05
  1.144639e-01    5.513319e-05
  1.147629e-01    5.593084e-05
  1.150618e-01    5.879204e-05
  1.153607e-01    5.929896e-05
  1.156597e-01    5.953430e-05
  1.159586e-01    5.693628e-05
  1.162575e-01    5.800041e-05
  1.165564e-01    5.746249e-05
  1.168554e-01    5.459017e-05
  1.171543e-01    5.301850e-05
  1.174532e-01    5.565087e-05
  1.177522e-01    5.680528e-05
  1.180511e-01    5.685665e-05
  1.183500e-01    5.600454e-05
  1.186490e-01    5.699118e-05
  1.189479e-01    5.995503e-05
  1.192468e-01    5.727906e-05
  1.195458e-01    5.492228e-05
  1.198447e-01    5.338133e-05
  1.201436e-01    5.155840e-05
  1.204425e-01    5.783284e-05
  1.207415e-01    4.944108e-05
  1.210404e-01    0.000000e+00
  1.213393e-01    0.000000e+00
  1.216383e-01    0.000000e+00
  1.219372e-01    0.000000e+00
  1.222361e-01    0.000000e+00
  1.225351e-01    0.000000e+00
  1.228340e-01    0.000000e+00
  1.231329e-01    0.000000e+00
  1.234318e-01    0.000000e+00
  1.237308e-01    0.000000e+00
  1.240297e-01    0.000000e+00
  1.243286e-01    0.000000e+00
  1.246276e-01    0.000000e+00
  1.249265e-01    0.000000e+00
  1.252254e-01    0.000000e+00
  1.255244e-01    0.000000e+00
  1.258233e-01    0.000000e+00
  1.261222e-01    0.000000e+00
  1.264212e-01    0.000000e+00
  1.267201e-01    0.000000e+00
  1.270190e-01    0.000000e+00
  1.273179e-01    0.000000e+00
  1.276169e-01    0.000000e+00
  1.279158e-01    0.000000e+00
  1.282147e-01    0.000000e+00
  1.285137e-01    0.000000e+00
  1.288126e-01    0.000000e+00
  1.291115e-01    0.000000e+00
  1.294105e-01    0.000000e+00
  1.297094e-01    0.000000e+00
  1.300083e-01    0.000000e+00
  1.303072e-01    0.000000e+00
  1.306062e-01    0.000000e+00
  1.309051e-01    0.000000e+00
  1.312040e-01    0.000000e+00
  1.315030e-01    0.000000e+00
  1.318019e-01    0.000000e+00
  1.321008e-01    0.000000e+00
  1.323998e-01    0.000000e+00
  1.326987e-01    0.000000e+00
  1.329976e-01    0.000000e+00
  1.332965e-01    0.000000e+00
  1.335955e-01    0.000000e+00
  1.338944e-01    0.000000e+00
  1.341933e-01    0.000000e+00
  1.344923e-01    0.000000e+00
  1.347912e-01    0.000000e+00
  1.350901e-01    0.000000e+00
  1.353891e-01    0.000000e+00
  1.356880e-01    0.000000e+00
  1.359869e-01    0.000000e+00
  1.362859e-01    0.000000e+00
  1.365848e-01    0.000000e+00
  1.368837e-01    0.000000e+00
  1.371826e-01    0.000000e+00
  1.374816e-01    0.000000e+00
  1.377805e-01    0.000000e+00
  1.380794e-01    0.000000e+00
  1.383784e-01    0.000000e+00
  1.386773e-01    0.000000e+00
  1.389762e-01    0.000000e+00
  1.392752e-01    0.000000e+00
  1.395741e-01    0.000000e+00
  1.398730e-01    0.000000e+00
  1.401719e-01    0.000000e+00
  1.404709e-01    0.000000e+00
  1.407698e-01    0.000000e+00
  1.410687e-01    0.000000e+00
  1.413677e-01    0.000000e+00
  1.416666e-01    0.000000e+00
  1.419655e-01    0.000000e+00
  1.422645e-01    0.000000e+00
  1.425634e-01    0.000000e+00
  1.428623e-01    0.000000e+00
  1.431613e-01    0.000000e+00
  1.434602e-01    0.000000e+00
  1.437591e-01    0.000000e+00
  1.440580e-01    0.000000e+00
  1.443570e-01    0.000000e+00
  1.446559e-01    0.000000e+00
  1.449548e-01    0.000000e+00
  1.452538e-01    0.000000e+00
  1.455527e-01    0.000000e+00
  1.458516e-01    0.000000e+00
  1.461506e-01    0.000000e+00
  1.464495e-01    0.000000e+00
  1.467484e-01    0.000000e+00
  1.470473e-01    0.000000e+00
  1.473463e-01    0.000000e+00
  1.476452e-01    0.000000e+00
  1.479441e-01    0.000000e+00
  1.482431e-01    0.000000e+00
  1.485420e-01    0.000000e+00
  1.488409e-01    0.000000e+00
  1.491399e-01    0.000000e+00
  1.494388e-01    0.000000e+00
  1.497377e-01    0.000000e+00
  1.500367e-01    0.000000e+00
  1.503356e-01    0.000000e+00
  1.506345e-01    0.000000e+00
  1.509334e-01    0.000000e+00
  1.512324e-01    0.000000e+00
  1.515313e-01    0.000000e+00
  1.518302e-01    0.000000e+00
  1.521292e-01    0.000000e+00
  1.524281e-01    0.000000e+00
  1.527270e-01    0.000000e+00
  1.530260e-01    0.000000e+00
  1.533249e-01    0.000000e+00
  1.536238e-01    0.000000e+00
