# == pyFAI calibration ==
# Distance Sample to Detector: 2.266 m
# PONI: 5.659e-02, 4.293e-02 m
# Rotations: 0.000000 0.000000 0.000000 rad
# 
# == Fit2d calibration ==
# Distance Sample-beamCenter: 2266.000 mm
# Center: x=249.594, y=329.012 pix
# Tilt: 0.000 deg  TiltPlanRot: 0.000 deg
# 
# Detector Pilatus 300k	 PixelSize= 1.720e-04, 1.720e-04 m
#    Detector has a mask: True 
#    Detector has a dark current: False 
#    detector has a flat field: False 
# 
# Wavelength: 1.27818e-10 m
# Mask applied: user provided
# Dark current applied: False
# Flat field applied: False
# Polarization factor: None
# Normalization factor: 11630.380000000001
# --> MT-latex_CL3252_TiO2_R706_phiT_0.090_PVC_1.000_DOP_0.010_1_r1d.csv
#        q_A^-1             I 
  4.457554e-03    4.466867e-02
  4.756484e-03    3.512558e-02
  5.055415e-03    2.516341e-02
  5.354345e-03    1.743615e-02
  5.653276e-03    1.313790e-02
  5.952206e-03    2.140151e-02
  6.251136e-03    1.974267e-02
  6.550067e-03    1.725968e-02
  6.848997e-03    1.457128e-02
  7.147927e-03    1.244050e-02
  7.446858e-03    1.053366e-02
  7.745788e-03    8.922351e-03
  8.044719e-03    7.681945e-03
  8.343649e-03    6.667465e-03
  8.642579e-03    5.793188e-03
  8.941510e-03    5.114008e-03
  9.240440e-03    4.516517e-03
  9.539371e-03    3.939460e-03
  9.838301e-03    3.527006e-03
  1.013723e-02    3.213999e-03
  1.043616e-02    2.886885e-03
  1.073509e-02    2.611669e-03
  1.103402e-02    2.330511e-03
  1.133295e-02    2.084710e-03
  1.163188e-02    1.922359e-03
  1.193081e-02    1.765417e-03
  1.222974e-02    1.611003e-03
  1.252867e-02    1.479427e-03
  1.282760e-02    1.348248e-03
  1.312654e-02    1.244914e-03
  1.342547e-02    1.158458e-03
  1.372440e-02    1.070644e-03
  1.402333e-02    9.744023e-04
  1.432226e-02    8.854239e-04
  1.462119e-02    8.420041e-04
  1.492012e-02    7.936271e-04
  1.521905e-02    7.237762e-04
  1.551798e-02    6.830872e-04
  1.581691e-02    6.468603e-04
  1.611584e-02    6.180216e-04
  1.641477e-02    5.739719e-04
  1.671370e-02    5.458794e-04
  1.701263e-02    5.198052e-04
  1.731156e-02    4.816002e-04
  1.761049e-02    4.493206e-04
  1.790942e-02    4.498305e-04
  1.820835e-02    4.219148e-04
  1.850728e-02    3.941248e-04
  1.880621e-02    3.748601e-04
  1.910514e-02    3.503638e-04
  1.940407e-02    3.318909e-04
  1.970300e-02    3.202883e-04
  2.000193e-02    3.115317e-04
  2.030086e-02    2.897554e-04
  2.059979e-02    2.780128e-04
  2.089873e-02    2.757976e-04
  2.119766e-02    2.694655e-04
  2.149659e-02    2.643201e-04
  2.179552e-02    2.619301e-04
  2.209445e-02    2.524666e-04
  2.239338e-02    2.427042e-04
  2.269231e-02    2.273770e-04
  2.299124e-02    2.267402e-04
  2.329017e-02    2.188414e-04
  2.358910e-02    2.180197e-04
  2.388803e-02    2.111653e-04
  2.418696e-02    1.997819e-04
  2.448589e-02    2.026491e-04
  2.478482e-02    1.960352e-04
  2.508375e-02    1.879238e-04
  2.538268e-02    1.876502e-04
  2.568161e-02    1.897169e-04
  2.598054e-02    1.850491e-04
  2.627947e-02    1.743112e-04
  2.657840e-02    1.705962e-04
  2.687733e-02    1.712038e-04
  2.717626e-02    1.758080e-04
  2.747519e-02    1.762370e-04
  2.777412e-02    1.710009e-04
  2.807305e-02    1.704733e-04
  2.837198e-02    1.633841e-04
  2.867092e-02    1.590647e-04
  2.896985e-02    1.621493e-04
  2.926878e-02    1.569253e-04
  2.956771e-02    1.479887e-04
  2.986664e-02    1.531641e-04
  3.016557e-02    1.574376e-04
  3.046450e-02    1.500238e-04
  3.076343e-02    1.469394e-04
  3.106236e-02    1.438376e-04
  3.136129e-02    1.396606e-04
  3.166022e-02    1.396112e-04
  3.195915e-02    1.387352e-04
  3.225808e-02    1.378915e-04
  3.255701e-02    1.363478e-04
  3.285594e-02    1.383198e-04
  3.315487e-02    1.327488e-04
  3.345380e-02    1.329541e-04
  3.375273e-02    1.283698e-04
  3.405166e-02    1.283515e-04
  3.435059e-02    1.282960e-04
  3.464952e-02    1.268693e-04
  3.494845e-02    1.228564e-04
  3.524738e-02    1.263393e-04
  3.554631e-02    1.221301e-04
  3.584524e-02    1.245807e-04
  3.614417e-02    1.200419e-04
  3.644310e-02    1.199173e-04
  3.674204e-02    1.207340e-04
  3.704097e-02    1.190108e-04
  3.733990e-02    1.168083e-04
  3.763883e-02    1.122929e-04
  3.793776e-02    1.167107e-04
  3.823669e-02    1.166327e-04
  3.853562e-02    1.088161e-04
  3.883455e-02    1.100773e-04
  3.913348e-02    1.107195e-04
  3.943241e-02    1.091112e-04
  3.973134e-02    1.082970e-04
  4.003027e-02    1.117171e-04
  4.032920e-02    1.115607e-04
  4.062813e-02    1.094454e-04
  4.092706e-02    1.115964e-04
  4.122599e-02    1.116943e-04
  4.152492e-02    1.089827e-04
  4.182385e-02    1.061650e-04
  4.212278e-02    1.041994e-04
  4.242171e-02    1.071435e-04
  4.272064e-02    1.093750e-04
  4.301957e-02    1.057302e-04
  4.331850e-02    1.036166e-04
  4.361743e-02    1.044033e-04
  4.391636e-02    9.970039e-05
  4.421529e-02    1.003002e-04
  4.451423e-02    1.022634e-04
  4.481316e-02    1.033028e-04
  4.511209e-02    1.051910e-04
  4.541102e-02    1.010009e-04
  4.570995e-02    9.889204e-05
  4.600888e-02    1.023681e-04
  4.630781e-02    1.067366e-04
  4.660674e-02    1.042295e-04
  4.690567e-02    1.034049e-04
  4.720460e-02    9.921766e-05
  4.750353e-02    1.023909e-04
  4.780246e-02    1.030823e-04
  4.810139e-02    1.032284e-04
  4.840032e-02    1.030009e-04
  4.869925e-02    1.067990e-04
  4.899818e-02    1.009006e-04
  4.929711e-02    1.009258e-04
  4.959604e-02    1.025546e-04
  4.989497e-02    1.035641e-04
  5.019390e-02    1.019429e-04
  5.049283e-02    1.020295e-04
  5.079176e-02    1.028465e-04
  5.109069e-02    1.025580e-04
  5.138962e-02    1.086507e-04
  5.168855e-02    1.104195e-04
  5.198748e-02    1.061358e-04
  5.228642e-02    1.061059e-04
  5.258535e-02    1.046807e-04
  5.288428e-02    1.048508e-04
  5.318321e-02    1.009133e-04
  5.348214e-02    9.852833e-05
  5.378107e-02    1.035723e-04
  5.408000e-02    1.046405e-04
  5.437893e-02    9.621723e-05
  5.467786e-02    9.831073e-05
  5.497679e-02    1.034744e-04
  5.527572e-02    9.498438e-05
  5.557465e-02    1.003223e-04
  5.587358e-02    1.053669e-04
  5.617251e-02    9.926608e-05
  5.647144e-02    9.998562e-05
  5.677037e-02    1.002380e-04
  5.706930e-02    9.948384e-05
  5.736823e-02    9.792466e-05
  5.766716e-02    9.903774e-05
  5.796609e-02    9.970870e-05
  5.826502e-02    1.022390e-04
  5.856395e-02    1.026696e-04
  5.886288e-02    1.021247e-04
  5.916181e-02    9.989123e-05
  5.946074e-02    9.841583e-05
  5.975967e-02    9.822682e-05
  6.005861e-02    1.016584e-04
  6.035754e-02    1.020218e-04
  6.065647e-02    1.010815e-04
  6.095540e-02    1.014956e-04
  6.125433e-02    1.050439e-04
  6.155326e-02    1.077863e-04
  6.185219e-02    1.077365e-04
  6.215112e-02    1.048093e-04
  6.245005e-02    1.059649e-04
  6.274898e-02    1.057499e-04
  6.304791e-02    1.041408e-04
  6.334684e-02    1.038656e-04
  6.364577e-02    1.047785e-04
  6.394470e-02    1.044228e-04
  6.424363e-02    1.040281e-04
  6.454256e-02    1.064653e-04
  6.484149e-02    1.053371e-04
  6.514042e-02    1.010318e-04
  6.543935e-02    1.032211e-04
  6.573828e-02    1.080530e-04
  6.603721e-02    1.093518e-04
  6.633614e-02    1.044198e-04
  6.663507e-02    1.025907e-04
  6.693400e-02    1.056773e-04
  6.723293e-02    1.053928e-04
  6.753186e-02    1.046891e-04
  6.783080e-02    1.057749e-04
  6.812973e-02    1.097004e-04
  6.842866e-02    1.076755e-04
  6.872759e-02    1.079192e-04
  6.902652e-02    1.075306e-04
  6.932545e-02    1.077904e-04
  6.962438e-02    1.023815e-04
  6.992331e-02    1.009411e-04
  7.022224e-02    1.047249e-04
  7.052117e-02    1.041721e-04
  7.082010e-02    1.075138e-04
  7.111903e-02    1.108033e-04
  7.141796e-02    1.073761e-04
  7.171689e-02    1.044767e-04
  7.201582e-02    1.062723e-04
  7.231475e-02    1.051982e-04
  7.261368e-02    1.077204e-04
  7.291261e-02    1.084891e-04
  7.321154e-02    1.101383e-04
  7.351047e-02    1.116837e-04
  7.380940e-02    1.124123e-04
  7.410833e-02    1.080346e-04
  7.440726e-02    1.110668e-04
  7.470619e-02    1.102916e-04
  7.500512e-02    1.054354e-04
  7.530405e-02    1.082215e-04
  7.560299e-02    1.090319e-04
  7.590192e-02    1.068132e-04
  7.620085e-02    1.084821e-04
  7.649978e-02    1.068914e-04
  7.679871e-02    1.074279e-04
  7.709764e-02    1.078528e-04
  7.739657e-02    1.054311e-04
  7.769550e-02    1.078170e-04
  7.799443e-02    1.131216e-04
  7.829336e-02    1.108280e-04
  7.859229e-02    1.056773e-04
  7.889122e-02    1.067299e-04
  7.919015e-02    1.086328e-04
  7.948908e-02    1.039442e-04
  7.978801e-02    9.983881e-05
  8.008694e-02    1.023994e-04
  8.038587e-02    1.044748e-04
  8.068480e-02    1.049306e-04
  8.098373e-02    1.094107e-04
  8.128266e-02    1.074103e-04
  8.158159e-02    1.046029e-04
  8.188052e-02    1.042908e-04
  8.217945e-02    1.024112e-04
  8.247838e-02    1.025654e-04
  8.277731e-02    9.992807e-05
  8.307624e-02    1.021761e-04
  8.337518e-02    1.048132e-04
  8.367411e-02    1.035592e-04
  8.397304e-02    9.873545e-05
  8.427197e-02    9.979345e-05
  8.457090e-02    1.032900e-04
  8.486983e-02    1.052468e-04
  8.516876e-02    1.026684e-04
  8.546769e-02    1.013699e-04
  8.576662e-02    1.046419e-04
  8.606555e-02    1.032938e-04
  8.636448e-02    1.027299e-04
  8.666341e-02    1.049082e-04
  8.696234e-02    1.030085e-04
  8.726127e-02    9.867664e-05
  8.756020e-02    9.825733e-05
  8.785913e-02    1.024206e-04
  8.815806e-02    1.030432e-04
  8.845699e-02    9.955711e-05
  8.875592e-02    9.833887e-05
  8.905485e-02    1.040786e-04
  8.935378e-02    1.041368e-04
  8.965271e-02    1.019341e-04
  8.995164e-02    1.011239e-04
  9.025057e-02    1.003984e-04
  9.054950e-02    9.959745e-05
  9.084843e-02    1.006481e-04
  9.114737e-02    1.015878e-04
  9.144630e-02    9.938944e-05
  9.174523e-02    9.765143e-05
  9.204416e-02    9.595443e-05
  9.234309e-02    9.669414e-05
  9.264202e-02    9.754480e-05
  9.294095e-02    9.864521e-05
  9.323988e-02    9.923842e-05
  9.353881e-02    9.852705e-05
  9.383774e-02    9.689483e-05
  9.413667e-02    9.538146e-05
  9.443560e-02    9.594504e-05
  9.473453e-02    9.659182e-05
  9.503346e-02    9.768229e-05
  9.533239e-02    9.525579e-05
  9.563132e-02    9.637615e-05
  9.593025e-02    9.668155e-05
  9.622918e-02    9.360959e-05
  9.652811e-02    9.543680e-05
  9.682704e-02    9.357020e-05
  9.712597e-02    9.390463e-05
  9.742490e-02    9.448175e-05
  9.772383e-02    9.563219e-05
  9.802276e-02    9.538137e-05
  9.832169e-02    9.390101e-05
  9.862062e-02    9.375137e-05
  9.891956e-02    9.622012e-05
  9.921849e-02    9.672313e-05
  9.951742e-02    9.402426e-05
  9.981635e-02    9.292574e-05
  1.001153e-01    9.398991e-05
  1.004142e-01    9.418002e-05
  1.007131e-01    9.281891e-05
  1.010121e-01    8.963678e-05
  1.013110e-01    9.181313e-05
  1.016099e-01    9.004155e-05
  1.019089e-01    9.009689e-05
  1.022078e-01    8.833180e-05
  1.025067e-01    8.911930e-05
  1.028057e-01    9.236891e-05
  1.031046e-01    9.213971e-05
  1.034035e-01    9.425849e-05
  1.037024e-01    9.175292e-05
  1.040014e-01    8.911920e-05
  1.043003e-01    8.897114e-05
  1.045992e-01    9.391923e-05
  1.048982e-01    9.206197e-05
  1.051971e-01    9.164439e-05
  1.054960e-01    9.069794e-05
  1.057950e-01    9.110565e-05
  1.060939e-01    9.080132e-05
  1.063928e-01    8.940817e-05
  1.066917e-01    9.177857e-05
  1.069907e-01    9.213606e-05
  1.072896e-01    9.255127e-05
  1.075885e-01    9.297687e-05
  1.078875e-01    9.168335e-05
  1.081864e-01    9.325855e-05
  1.084853e-01    9.197977e-05
  1.087843e-01    8.599020e-05
  1.090832e-01    8.201605e-05
  1.093821e-01    8.264063e-05
  1.096810e-01    8.540921e-05
  1.099800e-01    9.026846e-05
  1.102789e-01    8.856475e-05
  1.105778e-01    8.733473e-05
  1.108768e-01    8.691130e-05
  1.111757e-01    8.704059e-05
  1.114746e-01    8.625079e-05
  1.117736e-01    8.716690e-05
  1.120725e-01    8.863252e-05
  1.123714e-01    8.338457e-05
  1.126704e-01    8.624414e-05
  1.129693e-01    9.108482e-05
  1.132682e-01    8.438096e-05
  1.135671e-01    7.881694e-05
  1.138661e-01    7.951079e-05
  1.141650e-01    8.368072e-05
  1.144639e-01    8.583395e-05
  1.147629e-01    9.002379e-05
  1.150618e-01    8.582979e-05
  1.153607e-01    8.124205e-05
  1.156597e-01    8.150247e-05
  1.159586e-01    8.434817e-05
  1.162575e-01    8.842287e-05
  1.165564e-01    8.812355e-05
  1.168554e-01    8.247486e-05
  1.171543e-01    8.308738e-05
  1.174532e-01    7.478984e-05
  1.177522e-01    6.897137e-05
  1.180511e-01    8.045895e-05
  1.183500e-01    8.948384e-05
  1.186490e-01    8.906857e-05
  1.189479e-01    8.560586e-05
  1.192468e-01    9.069945e-05
  1.195458e-01    9.073597e-05
  1.198447e-01    7.859139e-05
  1.201436e-01    7.600259e-05
  1.204425e-01    8.222365e-05
  1.207415e-01    1.045777e-04
  1.210404e-01    1.721192e-04
  1.213393e-01    0.000000e+00
  1.216383e-01    0.000000e+00
  1.219372e-01    0.000000e+00
  1.222361e-01    0.000000e+00
  1.225351e-01    0.000000e+00
  1.228340e-01    0.000000e+00
  1.231329e-01    0.000000e+00
  1.234318e-01    0.000000e+00
  1.237308e-01    0.000000e+00
  1.240297e-01    0.000000e+00
  1.243286e-01    0.000000e+00
  1.246276e-01    0.000000e+00
  1.249265e-01    0.000000e+00
  1.252254e-01    0.000000e+00
  1.255244e-01    0.000000e+00
  1.258233e-01    0.000000e+00
  1.261222e-01    0.000000e+00
  1.264212e-01    0.000000e+00
  1.267201e-01    0.000000e+00
  1.270190e-01    0.000000e+00
  1.273179e-01    0.000000e+00
  1.276169e-01    0.000000e+00
  1.279158e-01    0.000000e+00
  1.282147e-01    0.000000e+00
  1.285137e-01    0.000000e+00
  1.288126e-01    0.000000e+00
  1.291115e-01    0.000000e+00
  1.294105e-01    0.000000e+00
  1.297094e-01    0.000000e+00
  1.300083e-01    0.000000e+00
  1.303072e-01    0.000000e+00
  1.306062e-01    0.000000e+00
  1.309051e-01    0.000000e+00
  1.312040e-01    0.000000e+00
  1.315030e-01    0.000000e+00
  1.318019e-01    0.000000e+00
  1.321008e-01    0.000000e+00
  1.323998e-01    0.000000e+00
  1.326987e-01    0.000000e+00
  1.329976e-01    0.000000e+00
  1.332965e-01    0.000000e+00
  1.335955e-01    0.000000e+00
  1.338944e-01    0.000000e+00
  1.341933e-01    0.000000e+00
  1.344923e-01    0.000000e+00
  1.347912e-01    0.000000e+00
  1.350901e-01    0.000000e+00
  1.353891e-01    0.000000e+00
  1.356880e-01    0.000000e+00
  1.359869e-01    0.000000e+00
  1.362859e-01    0.000000e+00
  1.365848e-01    0.000000e+00
  1.368837e-01    0.000000e+00
  1.371826e-01    0.000000e+00
  1.374816e-01    0.000000e+00
  1.377805e-01    0.000000e+00
  1.380794e-01    0.000000e+00
  1.383784e-01    0.000000e+00
  1.386773e-01    0.000000e+00
  1.389762e-01    0.000000e+00
  1.392752e-01    0.000000e+00
  1.395741e-01    0.000000e+00
  1.398730e-01    0.000000e+00
  1.401719e-01    0.000000e+00
  1.404709e-01    0.000000e+00
  1.407698e-01    0.000000e+00
  1.410687e-01    0.000000e+00
  1.413677e-01    0.000000e+00
  1.416666e-01    0.000000e+00
  1.419655e-01    0.000000e+00
  1.422645e-01    0.000000e+00
  1.425634e-01    0.000000e+00
  1.428623e-01    0.000000e+00
  1.431613e-01    0.000000e+00
  1.434602e-01    0.000000e+00
  1.437591e-01    0.000000e+00
  1.440580e-01    0.000000e+00
  1.443570e-01    0.000000e+00
  1.446559e-01    0.000000e+00
  1.449548e-01    0.000000e+00
  1.452538e-01    0.000000e+00
  1.455527e-01    0.000000e+00
  1.458516e-01    0.000000e+00
  1.461506e-01    0.000000e+00
  1.464495e-01    0.000000e+00
  1.467484e-01    0.000000e+00
  1.470473e-01    0.000000e+00
  1.473463e-01    0.000000e+00
  1.476452e-01    0.000000e+00
  1.479441e-01    0.000000e+00
  1.482431e-01    0.000000e+00
  1.485420e-01    0.000000e+00
  1.488409e-01    0.000000e+00
  1.491399e-01    0.000000e+00
  1.494388e-01    0.000000e+00
  1.497377e-01    0.000000e+00
  1.500367e-01    0.000000e+00
  1.503356e-01    0.000000e+00
  1.506345e-01    0.000000e+00
  1.509334e-01    0.000000e+00
  1.512324e-01    0.000000e+00
  1.515313e-01    0.000000e+00
  1.518302e-01    0.000000e+00
  1.521292e-01    0.000000e+00
  1.524281e-01    0.000000e+00
  1.527270e-01    0.000000e+00
  1.530260e-01    0.000000e+00
  1.533249e-01    0.000000e+00
  1.536238e-01    0.000000e+00
