# == pyFAI calibration ==
# Distance Sample to Detector: 2.266 m
# PONI: 5.659e-02, 4.293e-02 m
# Rotations: 0.000000 0.000000 0.000000 rad
# 
# == Fit2d calibration ==
# Distance Sample-beamCenter: 2266.000 mm
# Center: x=249.594, y=329.012 pix
# Tilt: 0.000 deg  TiltPlanRot: 0.000 deg
# 
# Detector Pilatus 300k	 PixelSize= 1.720e-04, 1.720e-04 m
#    Detector has a mask: True 
#    Detector has a dark current: False 
#    detector has a flat field: False 
# 
# Wavelength: 1.27818e-10 m
# Mask applied: user provided
# Dark current applied: False
# Flat field applied: False
# Polarization factor: None
# Normalization factor: 54350.420000000006
# --> MT-latex_CL3252_TiO2_R706_phiT_0.010_PVC_0.800_DOP_0.010_0_r1d.csv
#        q_A^-1             I 
  4.457554e-03    3.177629e-02
  4.756484e-03    2.480494e-02
  5.055415e-03    1.756643e-02
  5.354345e-03    1.246490e-02
  5.653276e-03    9.772900e-03
  5.952206e-03    1.624335e-02
  6.251136e-03    1.487145e-02
  6.550067e-03    1.282909e-02
  6.848997e-03    1.090035e-02
  7.147927e-03    9.207712e-03
  7.446858e-03    7.799262e-03
  7.745788e-03    6.662326e-03
  8.044719e-03    5.743667e-03
  8.343649e-03    5.022750e-03
  8.642579e-03    4.329858e-03
  8.941510e-03    3.779587e-03
  9.240440e-03    3.359546e-03
  9.539371e-03    2.995062e-03
  9.838301e-03    2.666075e-03
  1.013723e-02    2.370680e-03
  1.043616e-02    2.126503e-03
  1.073509e-02    1.907737e-03
  1.103402e-02    1.716405e-03
  1.133295e-02    1.549784e-03
  1.163188e-02    1.406771e-03
  1.193081e-02    1.286599e-03
  1.222974e-02    1.184490e-03
  1.252867e-02    1.084130e-03
  1.282760e-02    9.888193e-04
  1.312654e-02    9.199208e-04
  1.342547e-02    8.551272e-04
  1.372440e-02    7.823316e-04
  1.402333e-02    7.249621e-04
  1.432226e-02    6.709013e-04
  1.462119e-02    6.308238e-04
  1.492012e-02    5.849897e-04
  1.521905e-02    5.421677e-04
  1.551798e-02    5.178841e-04
  1.581691e-02    4.837916e-04
  1.611584e-02    4.519442e-04
  1.641477e-02    4.251361e-04
  1.671370e-02    4.009719e-04
  1.701263e-02    3.804062e-04
  1.731156e-02    3.622869e-04
  1.761049e-02    3.515924e-04
  1.790942e-02    3.363158e-04
  1.820835e-02    3.163977e-04
  1.850728e-02    2.992682e-04
  1.880621e-02    2.835694e-04
  1.910514e-02    2.725146e-04
  1.940407e-02    2.613054e-04
  1.970300e-02    2.507470e-04
  2.000193e-02    2.426793e-04
  2.030086e-02    2.303948e-04
  2.059979e-02    2.156862e-04
  2.089873e-02    2.093157e-04
  2.119766e-02    2.069161e-04
  2.149659e-02    2.014001e-04
  2.179552e-02    1.927177e-04
  2.209445e-02    1.897698e-04
  2.239338e-02    1.866526e-04
  2.269231e-02    1.809232e-04
  2.299124e-02    1.751464e-04
  2.329017e-02    1.680130e-04
  2.358910e-02    1.620500e-04
  2.388803e-02    1.566538e-04
  2.418696e-02    1.536679e-04
  2.448589e-02    1.558649e-04
  2.478482e-02    1.519834e-04
  2.508375e-02    1.466556e-04
  2.538268e-02    1.454292e-04
  2.568161e-02    1.390285e-04
  2.598054e-02    1.343808e-04
  2.627947e-02    1.379056e-04
  2.657840e-02    1.346189e-04
  2.687733e-02    1.291297e-04
  2.717626e-02    1.306158e-04
  2.747519e-02    1.269584e-04
  2.777412e-02    1.269559e-04
  2.807305e-02    1.261832e-04
  2.837198e-02    1.249371e-04
  2.867092e-02    1.245014e-04
  2.896985e-02    1.200035e-04
  2.926878e-02    1.159872e-04
  2.956771e-02    1.165327e-04
  2.986664e-02    1.155657e-04
  3.016557e-02    1.146233e-04
  3.046450e-02    1.114736e-04
  3.076343e-02    1.081983e-04
  3.106236e-02    1.087402e-04
  3.136129e-02    1.058644e-04
  3.166022e-02    1.043778e-04
  3.195915e-02    1.052343e-04
  3.225808e-02    1.022219e-04
  3.255701e-02    1.027771e-04
  3.285594e-02    1.037860e-04
  3.315487e-02    1.025792e-04
  3.345380e-02    1.025574e-04
  3.375273e-02    9.815895e-05
  3.405166e-02    9.858959e-05
  3.435059e-02    9.886245e-05
  3.464952e-02    9.748124e-05
  3.494845e-02    9.659410e-05
  3.524738e-02    9.704023e-05
  3.554631e-02    9.757150e-05
  3.584524e-02    9.574423e-05
  3.614417e-02    9.476911e-05
  3.644310e-02    9.360724e-05
  3.674204e-02    9.070068e-05
  3.704097e-02    9.026592e-05
  3.733990e-02    9.066438e-05
  3.763883e-02    9.060685e-05
  3.793776e-02    9.123344e-05
  3.823669e-02    9.083168e-05
  3.853562e-02    8.930895e-05
  3.883455e-02    8.724642e-05
  3.913348e-02    8.754396e-05
  3.943241e-02    8.731800e-05
  3.973134e-02    8.677511e-05
  4.003027e-02    8.552278e-05
  4.032920e-02    8.478158e-05
  4.062813e-02    8.499261e-05
  4.092706e-02    8.529925e-05
  4.122599e-02    8.541561e-05
  4.152492e-02    8.397374e-05
  4.182385e-02    8.369415e-05
  4.212278e-02    8.278352e-05
  4.242171e-02    8.386757e-05
  4.272064e-02    8.391679e-05
  4.301957e-02    8.163777e-05
  4.331850e-02    8.123890e-05
  4.361743e-02    8.238943e-05
  4.391636e-02    8.331629e-05
  4.421529e-02    8.369747e-05
  4.451423e-02    8.057822e-05
  4.481316e-02    7.978526e-05
  4.511209e-02    8.198414e-05
  4.541102e-02    8.202802e-05
  4.570995e-02    8.124561e-05
  4.600888e-02    8.219595e-05
  4.630781e-02    8.168497e-05
  4.660674e-02    8.106535e-05
  4.690567e-02    8.095873e-05
  4.720460e-02    8.071640e-05
  4.750353e-02    7.875358e-05
  4.780246e-02    7.967772e-05
  4.810139e-02    8.065681e-05
  4.840032e-02    8.006797e-05
  4.869925e-02    8.043065e-05
  4.899818e-02    8.091711e-05
  4.929711e-02    8.091910e-05
  4.959604e-02    8.149217e-05
  4.989497e-02    8.155641e-05
  5.019390e-02    8.030473e-05
  5.049283e-02    8.145271e-05
  5.079176e-02    8.096737e-05
  5.109069e-02    8.034654e-05
  5.138962e-02    8.151813e-05
  5.168855e-02    8.236886e-05
  5.198748e-02    8.395928e-05
  5.228642e-02    8.431955e-05
  5.258535e-02    8.143303e-05
  5.288428e-02    8.131396e-05
  5.318321e-02    8.186002e-05
  5.348214e-02    8.245234e-05
  5.378107e-02    8.032443e-05
  5.408000e-02    8.111761e-05
  5.437893e-02    8.145747e-05
  5.467786e-02    7.968362e-05
  5.497679e-02    8.031097e-05
  5.527572e-02    8.069778e-05
  5.557465e-02    7.951678e-05
  5.587358e-02    7.854600e-05
  5.617251e-02    7.975572e-05
  5.647144e-02    8.032688e-05
  5.677037e-02    8.188587e-05
  5.706930e-02    8.189205e-05
  5.736823e-02    7.937001e-05
  5.766716e-02    7.995703e-05
  5.796609e-02    8.025527e-05
  5.826502e-02    8.124320e-05
  5.856395e-02    8.190582e-05
  5.886288e-02    8.226804e-05
  5.916181e-02    8.108706e-05
  5.946074e-02    8.348709e-05
  5.975967e-02    8.374683e-05
  6.005861e-02    8.282289e-05
  6.035754e-02    8.176189e-05
  6.065647e-02    8.333645e-05
  6.095540e-02    8.239941e-05
  6.125433e-02    8.335340e-05
  6.155326e-02    8.545856e-05
  6.185219e-02    8.405520e-05
  6.215112e-02    8.445253e-05
  6.245005e-02    8.381111e-05
  6.274898e-02    8.439415e-05
  6.304791e-02    8.394098e-05
  6.334684e-02    8.308160e-05
  6.364577e-02    8.235249e-05
  6.394470e-02    8.190378e-05
  6.424363e-02    8.143066e-05
  6.454256e-02    8.272556e-05
  6.484149e-02    8.446667e-05
  6.514042e-02    8.475084e-05
  6.543935e-02    8.437475e-05
  6.573828e-02    8.427527e-05
  6.603721e-02    8.451201e-05
  6.633614e-02    8.361993e-05
  6.663507e-02    8.458126e-05
  6.693400e-02    8.607941e-05
  6.723293e-02    8.560851e-05
  6.753186e-02    8.650495e-05
  6.783080e-02    8.599959e-05
  6.812973e-02    8.468376e-05
  6.842866e-02    8.486501e-05
  6.872759e-02    8.556037e-05
  6.902652e-02    8.522622e-05
  6.932545e-02    8.513213e-05
  6.962438e-02    8.530747e-05
  6.992331e-02    8.551213e-05
  7.022224e-02    8.418266e-05
  7.052117e-02    8.346124e-05
  7.082010e-02    8.572392e-05
  7.111903e-02    8.536577e-05
  7.141796e-02    8.492376e-05
  7.171689e-02    8.655235e-05
  7.201582e-02    8.623829e-05
  7.231475e-02    8.559674e-05
  7.261368e-02    8.525585e-05
  7.291261e-02    8.679026e-05
  7.321154e-02    8.819872e-05
  7.351047e-02    8.725542e-05
  7.380940e-02    8.649895e-05
  7.410833e-02    8.676616e-05
  7.440726e-02    8.786498e-05
  7.470619e-02    8.715844e-05
  7.500512e-02    8.574911e-05
  7.530405e-02    8.533671e-05
  7.560299e-02    8.490892e-05
  7.590192e-02    8.615661e-05
  7.620085e-02    8.735211e-05
  7.649978e-02    8.675636e-05
  7.679871e-02    8.713164e-05
  7.709764e-02    8.749666e-05
  7.739657e-02    8.716605e-05
  7.769550e-02    8.541377e-05
  7.799443e-02    8.534759e-05
  7.829336e-02    8.606316e-05
  7.859229e-02    8.530419e-05
  7.889122e-02    8.690816e-05
  7.919015e-02    8.625994e-05
  7.948908e-02    8.563331e-05
  7.978801e-02    8.542478e-05
  8.008694e-02    8.434447e-05
  8.038587e-02    8.380543e-05
  8.068480e-02    8.641988e-05
  8.098373e-02    8.593595e-05
  8.128266e-02    8.502677e-05
  8.158159e-02    8.444371e-05
  8.188052e-02    8.533474e-05
  8.217945e-02    8.626086e-05
  8.247838e-02    8.532233e-05
  8.277731e-02    8.407130e-05
  8.307624e-02    8.493156e-05
  8.337518e-02    8.433421e-05
  8.367411e-02    8.394352e-05
  8.397304e-02    8.437887e-05
  8.427197e-02    8.410051e-05
  8.457090e-02    8.265296e-05
  8.486983e-02    8.337365e-05
  8.516876e-02    8.453240e-05
  8.546769e-02    8.487041e-05
  8.576662e-02    8.643518e-05
  8.606555e-02    8.593996e-05
  8.636448e-02    8.515811e-05
  8.666341e-02    8.441863e-05
  8.696234e-02    8.356707e-05
  8.726127e-02    8.360030e-05
  8.756020e-02    8.245311e-05
  8.785913e-02    8.275221e-05
  8.815806e-02    8.347302e-05
  8.845699e-02    8.305017e-05
  8.875592e-02    8.394495e-05
  8.905485e-02    8.183547e-05
  8.935378e-02    8.069762e-05
  8.965271e-02    8.068416e-05
  8.995164e-02    8.030540e-05
  9.025057e-02    8.079733e-05
  9.054950e-02    8.028425e-05
  9.084843e-02    7.937530e-05
  9.114737e-02    7.974623e-05
  9.144630e-02    8.046113e-05
  9.174523e-02    8.024968e-05
  9.204416e-02    8.110308e-05
  9.234309e-02    8.142584e-05
  9.264202e-02    8.186765e-05
  9.294095e-02    8.028777e-05
  9.323988e-02    8.127100e-05
  9.353881e-02    8.070046e-05
  9.383774e-02    7.872214e-05
  9.413667e-02    7.819232e-05
  9.443560e-02    7.860454e-05
  9.473453e-02    7.925621e-05
  9.503346e-02    7.888593e-05
  9.533239e-02    7.898064e-05
  9.563132e-02    7.876212e-05
  9.593025e-02    7.774595e-05
  9.622918e-02    7.837396e-05
  9.652811e-02    7.805388e-05
  9.682704e-02    7.917850e-05
  9.712597e-02    7.950824e-05
  9.742490e-02    7.887562e-05
  9.772383e-02    7.883080e-05
  9.802276e-02    7.682059e-05
  9.832169e-02    7.651434e-05
  9.862062e-02    7.774373e-05
  9.891956e-02    7.918062e-05
  9.921849e-02    7.811226e-05
  9.951742e-02    7.786421e-05
  9.981635e-02    7.765920e-05
  1.001153e-01    7.688744e-05
  1.004142e-01    7.607068e-05
  1.007131e-01    7.566811e-05
  1.010121e-01    7.670200e-05
  1.013110e-01    7.793114e-05
  1.016099e-01    7.553626e-05
  1.019089e-01    7.413173e-05
  1.022078e-01    7.408782e-05
  1.025067e-01    7.415938e-05
  1.028057e-01    7.393389e-05
  1.031046e-01    7.526208e-05
  1.034035e-01    7.626462e-05
  1.037024e-01    7.627633e-05
  1.040014e-01    7.549233e-05
  1.043003e-01    7.518710e-05
  1.045992e-01    7.329360e-05
  1.048982e-01    7.199722e-05
  1.051971e-01    7.273832e-05
  1.054960e-01    7.190499e-05
  1.057950e-01    7.202147e-05
  1.060939e-01    7.472025e-05
  1.063928e-01    7.496699e-05
  1.066917e-01    7.354154e-05
  1.069907e-01    7.362154e-05
  1.072896e-01    7.317866e-05
  1.075885e-01    7.358679e-05
  1.078875e-01    7.348286e-05
  1.081864e-01    7.174084e-05
  1.084853e-01    7.195953e-05
  1.087843e-01    7.261960e-05
  1.090832e-01    7.310765e-05
  1.093821e-01    7.316111e-05
  1.096810e-01    7.207694e-05
  1.099800e-01    7.167229e-05
  1.102789e-01    7.068914e-05
  1.105778e-01    7.142263e-05
  1.108768e-01    7.066439e-05
  1.111757e-01    7.027184e-05
  1.114746e-01    7.108351e-05
  1.117736e-01    7.164801e-05
  1.120725e-01    6.988642e-05
  1.123714e-01    6.917465e-05
  1.126704e-01    6.995519e-05
  1.129693e-01    6.961731e-05
  1.132682e-01    6.805232e-05
  1.135671e-01    6.794335e-05
  1.138661e-01    6.794376e-05
  1.141650e-01    6.834725e-05
  1.144639e-01    6.937648e-05
  1.147629e-01    7.124567e-05
  1.150618e-01    6.895876e-05
  1.153607e-01    6.663083e-05
  1.156597e-01    6.619473e-05
  1.159586e-01    6.739891e-05
  1.162575e-01    6.783805e-05
  1.165564e-01    6.691450e-05
  1.168554e-01    6.889659e-05
  1.171543e-01    7.120019e-05
  1.174532e-01    7.160287e-05
  1.177522e-01    6.791139e-05
  1.180511e-01    7.022886e-05
  1.183500e-01    7.162458e-05
  1.186490e-01    6.751307e-05
  1.189479e-01    6.827467e-05
  1.192468e-01    6.886852e-05
  1.195458e-01    6.714508e-05
  1.198447e-01    7.119211e-05
  1.201436e-01    7.076162e-05
  1.204425e-01    6.138736e-05
  1.207415e-01    5.455321e-05
  1.210404e-01    5.524736e-05
  1.213393e-01    0.000000e+00
  1.216383e-01    0.000000e+00
  1.219372e-01    0.000000e+00
  1.222361e-01    0.000000e+00
  1.225351e-01    0.000000e+00
  1.228340e-01    0.000000e+00
  1.231329e-01    0.000000e+00
  1.234318e-01    0.000000e+00
  1.237308e-01    0.000000e+00
  1.240297e-01    0.000000e+00
  1.243286e-01    0.000000e+00
  1.246276e-01    0.000000e+00
  1.249265e-01    0.000000e+00
  1.252254e-01    0.000000e+00
  1.255244e-01    0.000000e+00
  1.258233e-01    0.000000e+00
  1.261222e-01    0.000000e+00
  1.264212e-01    0.000000e+00
  1.267201e-01    0.000000e+00
  1.270190e-01    0.000000e+00
  1.273179e-01    0.000000e+00
  1.276169e-01    0.000000e+00
  1.279158e-01    0.000000e+00
  1.282147e-01    0.000000e+00
  1.285137e-01    0.000000e+00
  1.288126e-01    0.000000e+00
  1.291115e-01    0.000000e+00
  1.294105e-01    0.000000e+00
  1.297094e-01    0.000000e+00
  1.300083e-01    0.000000e+00
  1.303072e-01    0.000000e+00
  1.306062e-01    0.000000e+00
  1.309051e-01    0.000000e+00
  1.312040e-01    0.000000e+00
  1.315030e-01    0.000000e+00
  1.318019e-01    0.000000e+00
  1.321008e-01    0.000000e+00
  1.323998e-01    0.000000e+00
  1.326987e-01    0.000000e+00
  1.329976e-01    0.000000e+00
  1.332965e-01    0.000000e+00
  1.335955e-01    0.000000e+00
  1.338944e-01    0.000000e+00
  1.341933e-01    0.000000e+00
  1.344923e-01    0.000000e+00
  1.347912e-01    0.000000e+00
  1.350901e-01    0.000000e+00
  1.353891e-01    0.000000e+00
  1.356880e-01    0.000000e+00
  1.359869e-01    0.000000e+00
  1.362859e-01    0.000000e+00
  1.365848e-01    0.000000e+00
  1.368837e-01    0.000000e+00
  1.371826e-01    0.000000e+00
  1.374816e-01    0.000000e+00
  1.377805e-01    0.000000e+00
  1.380794e-01    0.000000e+00
  1.383784e-01    0.000000e+00
  1.386773e-01    0.000000e+00
  1.389762e-01    0.000000e+00
  1.392752e-01    0.000000e+00
  1.395741e-01    0.000000e+00
  1.398730e-01    0.000000e+00
  1.401719e-01    0.000000e+00
  1.404709e-01    0.000000e+00
  1.407698e-01    0.000000e+00
  1.410687e-01    0.000000e+00
  1.413677e-01    0.000000e+00
  1.416666e-01    0.000000e+00
  1.419655e-01    0.000000e+00
  1.422645e-01    0.000000e+00
  1.425634e-01    0.000000e+00
  1.428623e-01    0.000000e+00
  1.431613e-01    0.000000e+00
  1.434602e-01    0.000000e+00
  1.437591e-01    0.000000e+00
  1.440580e-01    0.000000e+00
  1.443570e-01    0.000000e+00
  1.446559e-01    0.000000e+00
  1.449548e-01    0.000000e+00
  1.452538e-01    0.000000e+00
  1.455527e-01    0.000000e+00
  1.458516e-01    0.000000e+00
  1.461506e-01    0.000000e+00
  1.464495e-01    0.000000e+00
  1.467484e-01    0.000000e+00
  1.470473e-01    0.000000e+00
  1.473463e-01    0.000000e+00
  1.476452e-01    0.000000e+00
  1.479441e-01    0.000000e+00
  1.482431e-01    0.000000e+00
  1.485420e-01    0.000000e+00
  1.488409e-01    0.000000e+00
  1.491399e-01    0.000000e+00
  1.494388e-01    0.000000e+00
  1.497377e-01    0.000000e+00
  1.500367e-01    0.000000e+00
  1.503356e-01    0.000000e+00
  1.506345e-01    0.000000e+00
  1.509334e-01    0.000000e+00
  1.512324e-01    0.000000e+00
  1.515313e-01    0.000000e+00
  1.518302e-01    0.000000e+00
  1.521292e-01    0.000000e+00
  1.524281e-01    0.000000e+00
  1.527270e-01    0.000000e+00
  1.530260e-01    0.000000e+00
  1.533249e-01    0.000000e+00
  1.536238e-01    0.000000e+00
