# == pyFAI calibration ==
# Distance Sample to Detector: 2.266 m
# PONI: 5.659e-02, 4.293e-02 m
# Rotations: 0.000000 0.000000 0.000000 rad
# 
# == Fit2d calibration ==
# Distance Sample-beamCenter: 2266.000 mm
# Center: x=249.594, y=329.012 pix
# Tilt: 0.000 deg  TiltPlanRot: 0.000 deg
# 
# Detector Pilatus 300k	 PixelSize= 1.720e-04, 1.720e-04 m
#    Detector has a mask: True 
#    Detector has a dark current: False 
#    detector has a flat field: False 
# 
# Wavelength: 1.27818e-10 m
# Mask applied: user provided
# Dark current applied: False
# Flat field applied: False
# Polarization factor: None
# Normalization factor: 9704.36
# --> MT-latex_CL3252_TiO2_R706_phiT_0.070_PVC_0.800_DOP_0.000_2_r1d.csv
#        q_A^-1             I 
  4.457554e-03    1.839437e-01
  4.756484e-03    1.499533e-01
  5.055415e-03    1.156724e-01
  5.354345e-03    8.860251e-02
  5.653276e-03    7.291926e-02
  5.952206e-03    1.063253e-01
  6.251136e-03    9.781313e-02
  6.550067e-03    8.559457e-02
  6.848997e-03    7.357900e-02
  7.147927e-03    6.370457e-02
  7.446858e-03    5.508429e-02
  7.745788e-03    4.747905e-02
  8.044719e-03    4.116962e-02
  8.343649e-03    3.596300e-02
  8.642579e-03    3.179096e-02
  8.941510e-03    2.824088e-02
  9.240440e-03    2.511244e-02
  9.539371e-03    2.233714e-02
  9.838301e-03    1.977056e-02
  1.013723e-02    1.772268e-02
  1.043616e-02    1.597220e-02
  1.073509e-02    1.425535e-02
  1.103402e-02    1.294017e-02
  1.133295e-02    1.174560e-02
  1.163188e-02    1.061387e-02
  1.193081e-02    9.650824e-03
  1.222974e-02    8.827240e-03
  1.252867e-02    8.116062e-03
  1.282760e-02    7.431879e-03
  1.312654e-02    6.738939e-03
  1.342547e-02    6.239553e-03
  1.372440e-02    5.749488e-03
  1.402333e-02    5.305812e-03
  1.432226e-02    4.940237e-03
  1.462119e-02    4.585644e-03
  1.492012e-02    4.184237e-03
  1.521905e-02    3.892134e-03
  1.551798e-02    3.666980e-03
  1.581691e-02    3.392723e-03
  1.611584e-02    3.146832e-03
  1.641477e-02    2.948527e-03
  1.671370e-02    2.802813e-03
  1.701263e-02    2.609867e-03
  1.731156e-02    2.481593e-03
  1.761049e-02    2.303956e-03
  1.790942e-02    2.188060e-03
  1.820835e-02    2.108188e-03
  1.850728e-02    1.979328e-03
  1.880621e-02    1.827269e-03
  1.910514e-02    1.751074e-03
  1.940407e-02    1.660173e-03
  1.970300e-02    1.589743e-03
  2.000193e-02    1.545843e-03
  2.030086e-02    1.497728e-03
  2.059979e-02    1.421524e-03
  2.089873e-02    1.363159e-03
  2.119766e-02    1.284302e-03
  2.149659e-02    1.226489e-03
  2.179552e-02    1.168786e-03
  2.209445e-02    1.148105e-03
  2.239338e-02    1.069880e-03
  2.269231e-02    1.031040e-03
  2.299124e-02    1.006107e-03
  2.329017e-02    9.954174e-04
  2.358910e-02    9.477515e-04
  2.388803e-02    8.923233e-04
  2.418696e-02    8.765087e-04
  2.448589e-02    8.745575e-04
  2.478482e-02    8.509562e-04
  2.508375e-02    8.025789e-04
  2.538268e-02    7.991935e-04
  2.568161e-02    7.873668e-04
  2.598054e-02    7.431908e-04
  2.627947e-02    7.225818e-04
  2.657840e-02    7.252103e-04
  2.687733e-02    6.919444e-04
  2.717626e-02    6.732888e-04
  2.747519e-02    6.732435e-04
  2.777412e-02    6.615730e-04
  2.807305e-02    6.546626e-04
  2.837198e-02    6.349338e-04
  2.867092e-02    6.194626e-04
  2.896985e-02    6.125953e-04
  2.926878e-02    5.987277e-04
  2.956771e-02    5.898516e-04
  2.986664e-02    5.868165e-04
  3.016557e-02    5.673001e-04
  3.046450e-02    5.524649e-04
  3.076343e-02    5.520869e-04
  3.106236e-02    5.365704e-04
  3.136129e-02    5.362807e-04
  3.166022e-02    5.259963e-04
  3.195915e-02    5.197741e-04
  3.225808e-02    5.300361e-04
  3.255701e-02    5.367351e-04
  3.285594e-02    5.169394e-04
  3.315487e-02    4.952352e-04
  3.345380e-02    4.922807e-04
  3.375273e-02    5.013705e-04
  3.405166e-02    4.914157e-04
  3.435059e-02    4.760721e-04
  3.464952e-02    4.674883e-04
  3.494845e-02    4.663299e-04
  3.524738e-02    4.663290e-04
  3.554631e-02    4.717671e-04
  3.584524e-02    4.522772e-04
  3.614417e-02    4.366302e-04
  3.644310e-02    4.290118e-04
  3.674204e-02    4.416918e-04
  3.704097e-02    4.386242e-04
  3.733990e-02    4.258733e-04
  3.763883e-02    4.210958e-04
  3.793776e-02    4.213617e-04
  3.823669e-02    4.308751e-04
  3.853562e-02    4.283258e-04
  3.883455e-02    4.140869e-04
  3.913348e-02    4.029832e-04
  3.943241e-02    3.923927e-04
  3.973134e-02    3.969266e-04
  4.003027e-02    4.119284e-04
  4.032920e-02    4.031283e-04
  4.062813e-02    3.944563e-04
  4.092706e-02    3.793509e-04
  4.122599e-02    3.869354e-04
  4.152492e-02    3.896151e-04
  4.182385e-02    3.892331e-04
  4.212278e-02    3.834986e-04
  4.242171e-02    3.816789e-04
  4.272064e-02    3.780619e-04
  4.301957e-02    3.751050e-04
  4.331850e-02    3.752887e-04
  4.361743e-02    3.796640e-04
  4.391636e-02    3.849893e-04
  4.421529e-02    3.745108e-04
  4.451423e-02    3.744896e-04
  4.481316e-02    3.660314e-04
  4.511209e-02    3.682432e-04
  4.541102e-02    3.751004e-04
  4.570995e-02    3.710320e-04
  4.600888e-02    3.545906e-04
  4.630781e-02    3.573219e-04
  4.660674e-02    3.522719e-04
  4.690567e-02    3.565298e-04
  4.720460e-02    3.664439e-04
  4.750353e-02    3.706543e-04
  4.780246e-02    3.633159e-04
  4.810139e-02    3.590718e-04
  4.840032e-02    3.620873e-04
  4.869925e-02    3.582393e-04
  4.899818e-02    3.543588e-04
  4.929711e-02    3.586392e-04
  4.959604e-02    3.587500e-04
  4.989497e-02    3.555665e-04
  5.019390e-02    3.623742e-04
  5.049283e-02    3.659572e-04
  5.079176e-02    3.641911e-04
  5.109069e-02    3.646897e-04
  5.138962e-02    3.647580e-04
  5.168855e-02    3.677947e-04
  5.198748e-02    3.780749e-04
  5.228642e-02    3.806301e-04
  5.258535e-02    3.736336e-04
  5.288428e-02    3.545447e-04
  5.318321e-02    3.474581e-04
  5.348214e-02    3.518914e-04
  5.378107e-02    3.542097e-04
  5.408000e-02    3.509150e-04
  5.437893e-02    3.589281e-04
  5.467786e-02    3.520099e-04
  5.497679e-02    3.498852e-04
  5.527572e-02    3.593214e-04
  5.557465e-02    3.623639e-04
  5.587358e-02    3.502574e-04
  5.617251e-02    3.553980e-04
  5.647144e-02    3.579771e-04
  5.677037e-02    3.526469e-04
  5.706930e-02    3.517441e-04
  5.736823e-02    3.533064e-04
  5.766716e-02    3.617707e-04
  5.796609e-02    3.559052e-04
  5.826502e-02    3.501450e-04
  5.856395e-02    3.507555e-04
  5.886288e-02    3.465576e-04
  5.916181e-02    3.497466e-04
  5.946074e-02    3.542792e-04
  5.975967e-02    3.596161e-04
  6.005861e-02    3.579389e-04
  6.035754e-02    3.590120e-04
  6.065647e-02    3.618683e-04
  6.095540e-02    3.588443e-04
  6.125433e-02    3.642399e-04
  6.155326e-02    3.649340e-04
  6.185219e-02    3.616055e-04
  6.215112e-02    3.685236e-04
  6.245005e-02    3.667954e-04
  6.274898e-02    3.609812e-04
  6.304791e-02    3.567604e-04
  6.334684e-02    3.603312e-04
  6.364577e-02    3.638352e-04
  6.394470e-02    3.642489e-04
  6.424363e-02    3.579807e-04
  6.454256e-02    3.544227e-04
  6.484149e-02    3.601462e-04
  6.514042e-02    3.680113e-04
  6.543935e-02    3.607178e-04
  6.573828e-02    3.703382e-04
  6.603721e-02    3.739030e-04
  6.633614e-02    3.722624e-04
  6.663507e-02    3.700155e-04
  6.693400e-02    3.665509e-04
  6.723293e-02    3.669280e-04
  6.753186e-02    3.691303e-04
  6.783080e-02    3.696609e-04
  6.812973e-02    3.715079e-04
  6.842866e-02    3.707958e-04
  6.872759e-02    3.638993e-04
  6.902652e-02    3.709134e-04
  6.932545e-02    3.662150e-04
  6.962438e-02    3.693475e-04
  6.992331e-02    3.744527e-04
  7.022224e-02    3.669735e-04
  7.052117e-02    3.696590e-04
  7.082010e-02    3.730266e-04
  7.111903e-02    3.708960e-04
  7.141796e-02    3.736050e-04
  7.171689e-02    3.741695e-04
  7.201582e-02    3.689568e-04
  7.231475e-02    3.741431e-04
  7.261368e-02    3.783579e-04
  7.291261e-02    3.808488e-04
  7.321154e-02    3.794412e-04
  7.351047e-02    3.787431e-04
  7.380940e-02    3.798338e-04
  7.410833e-02    3.672485e-04
  7.440726e-02    3.662685e-04
  7.470619e-02    3.765690e-04
  7.500512e-02    3.787426e-04
  7.530405e-02    3.674985e-04
  7.560299e-02    3.697394e-04
  7.590192e-02    3.735272e-04
  7.620085e-02    3.718307e-04
  7.649978e-02    3.713667e-04
  7.679871e-02    3.750045e-04
  7.709764e-02    3.760536e-04
  7.739657e-02    3.728219e-04
  7.769550e-02    3.794053e-04
  7.799443e-02    3.735904e-04
  7.829336e-02    3.609927e-04
  7.859229e-02    3.609438e-04
  7.889122e-02    3.665872e-04
  7.919015e-02    3.649215e-04
  7.948908e-02    3.678479e-04
  7.978801e-02    3.722743e-04
  8.008694e-02    3.693678e-04
  8.038587e-02    3.656610e-04
  8.068480e-02    3.620747e-04
  8.098373e-02    3.600030e-04
  8.128266e-02    3.681894e-04
  8.158159e-02    3.698285e-04
  8.188052e-02    3.628746e-04
  8.217945e-02    3.657909e-04
  8.247838e-02    3.718141e-04
  8.277731e-02    3.746556e-04
  8.307624e-02    3.666237e-04
  8.337518e-02    3.635732e-04
  8.367411e-02    3.682824e-04
  8.397304e-02    3.580921e-04
  8.427197e-02    3.537906e-04
  8.457090e-02    3.557243e-04
  8.486983e-02    3.573403e-04
  8.516876e-02    3.585644e-04
  8.546769e-02    3.607362e-04
  8.576662e-02    3.637044e-04
  8.606555e-02    3.544822e-04
  8.636448e-02    3.453209e-04
  8.666341e-02    3.482336e-04
  8.696234e-02    3.532967e-04
  8.726127e-02    3.546252e-04
  8.756020e-02    3.565655e-04
  8.785913e-02    3.511335e-04
  8.815806e-02    3.586826e-04
  8.845699e-02    3.583518e-04
  8.875592e-02    3.620377e-04
  8.905485e-02    3.623910e-04
  8.935378e-02    3.511565e-04
  8.965271e-02    3.482841e-04
  8.995164e-02    3.470524e-04
  9.025057e-02    3.449008e-04
  9.054950e-02    3.460960e-04
  9.084843e-02    3.421574e-04
  9.114737e-02    3.473873e-04
  9.144630e-02    3.486984e-04
  9.174523e-02    3.437980e-04
  9.204416e-02    3.369721e-04
  9.234309e-02    3.381246e-04
  9.264202e-02    3.377286e-04
  9.294095e-02    3.438479e-04
  9.323988e-02    3.384817e-04
  9.353881e-02    3.369256e-04
  9.383774e-02    3.446884e-04
  9.413667e-02    3.386803e-04
  9.443560e-02    3.322954e-04
  9.473453e-02    3.332164e-04
  9.503346e-02    3.392035e-04
  9.533239e-02    3.413185e-04
  9.563132e-02    3.449000e-04
  9.593025e-02    3.414277e-04
  9.622918e-02    3.395557e-04
  9.652811e-02    3.301736e-04
  9.682704e-02    3.352437e-04
  9.712597e-02    3.364618e-04
  9.742490e-02    3.350372e-04
  9.772383e-02    3.367533e-04
  9.802276e-02    3.299137e-04
  9.832169e-02    3.312937e-04
  9.862062e-02    3.318400e-04
  9.891956e-02    3.285775e-04
  9.921849e-02    3.299563e-04
  9.951742e-02    3.213227e-04
  9.981635e-02    3.197506e-04
  1.001153e-01    3.256465e-04
  1.004142e-01    3.273068e-04
  1.007131e-01    3.274100e-04
  1.010121e-01    3.224851e-04
  1.013110e-01    3.227261e-04
  1.016099e-01    3.224797e-04
  1.019089e-01    3.257341e-04
  1.022078e-01    3.261976e-04
  1.025067e-01    3.297518e-04
  1.028057e-01    3.282033e-04
  1.031046e-01    3.204150e-04
  1.034035e-01    3.147005e-04
  1.037024e-01    3.178667e-04
  1.040014e-01    3.155423e-04
  1.043003e-01    3.125601e-04
  1.045992e-01    3.130176e-04
  1.048982e-01    3.093060e-04
  1.051971e-01    3.059952e-04
  1.054960e-01    3.082771e-04
  1.057950e-01    3.103979e-04
  1.060939e-01    3.101461e-04
  1.063928e-01    3.174318e-04
  1.066917e-01    3.157234e-04
  1.069907e-01    3.131066e-04
  1.072896e-01    3.110874e-04
  1.075885e-01    3.146770e-04
  1.078875e-01    3.131681e-04
  1.081864e-01    3.104616e-04
  1.084853e-01    3.098777e-04
  1.087843e-01    3.065708e-04
  1.090832e-01    3.041296e-04
  1.093821e-01    3.059756e-04
  1.096810e-01    3.119164e-04
  1.099800e-01    3.103085e-04
  1.102789e-01    3.078988e-04
  1.105778e-01    2.989997e-04
  1.108768e-01    2.930573e-04
  1.111757e-01    2.962916e-04
  1.114746e-01    3.009027e-04
  1.117736e-01    3.002732e-04
  1.120725e-01    2.980027e-04
  1.123714e-01    2.990117e-04
  1.126704e-01    2.946420e-04
  1.129693e-01    2.811883e-04
  1.132682e-01    2.943545e-04
  1.135671e-01    2.937826e-04
  1.138661e-01    2.900250e-04
  1.141650e-01    2.911421e-04
  1.144639e-01    2.935292e-04
  1.147629e-01    2.939016e-04
  1.150618e-01    2.930951e-04
  1.153607e-01    2.937521e-04
  1.156597e-01    2.889515e-04
  1.159586e-01    2.993299e-04
  1.162575e-01    2.972225e-04
  1.165564e-01    2.985718e-04
  1.168554e-01    2.996086e-04
  1.171543e-01    2.899825e-04
  1.174532e-01    2.951693e-04
  1.177522e-01    2.887655e-04
  1.180511e-01    2.765167e-04
  1.183500e-01    2.815991e-04
  1.186490e-01    2.777451e-04
  1.189479e-01    2.846338e-04
  1.192468e-01    2.878326e-04
  1.195458e-01    2.837250e-04
  1.198447e-01    2.857589e-04
  1.201436e-01    3.149257e-04
  1.204425e-01    3.205335e-04
  1.207415e-01    2.675764e-04
  1.210404e-01    2.062796e-04
  1.213393e-01    0.000000e+00
  1.216383e-01    0.000000e+00
  1.219372e-01    0.000000e+00
  1.222361e-01    0.000000e+00
  1.225351e-01    0.000000e+00
  1.228340e-01    0.000000e+00
  1.231329e-01    0.000000e+00
  1.234318e-01    0.000000e+00
  1.237308e-01    0.000000e+00
  1.240297e-01    0.000000e+00
  1.243286e-01    0.000000e+00
  1.246276e-01    0.000000e+00
  1.249265e-01    0.000000e+00
  1.252254e-01    0.000000e+00
  1.255244e-01    0.000000e+00
  1.258233e-01    0.000000e+00
  1.261222e-01    0.000000e+00
  1.264212e-01    0.000000e+00
  1.267201e-01    0.000000e+00
  1.270190e-01    0.000000e+00
  1.273179e-01    0.000000e+00
  1.276169e-01    0.000000e+00
  1.279158e-01    0.000000e+00
  1.282147e-01    0.000000e+00
  1.285137e-01    0.000000e+00
  1.288126e-01    0.000000e+00
  1.291115e-01    0.000000e+00
  1.294105e-01    0.000000e+00
  1.297094e-01    0.000000e+00
  1.300083e-01    0.000000e+00
  1.303072e-01    0.000000e+00
  1.306062e-01    0.000000e+00
  1.309051e-01    0.000000e+00
  1.312040e-01    0.000000e+00
  1.315030e-01    0.000000e+00
  1.318019e-01    0.000000e+00
  1.321008e-01    0.000000e+00
  1.323998e-01    0.000000e+00
  1.326987e-01    0.000000e+00
  1.329976e-01    0.000000e+00
  1.332965e-01    0.000000e+00
  1.335955e-01    0.000000e+00
  1.338944e-01    0.000000e+00
  1.341933e-01    0.000000e+00
  1.344923e-01    0.000000e+00
  1.347912e-01    0.000000e+00
  1.350901e-01    0.000000e+00
  1.353891e-01    0.000000e+00
  1.356880e-01    0.000000e+00
  1.359869e-01    0.000000e+00
  1.362859e-01    0.000000e+00
  1.365848e-01    0.000000e+00
  1.368837e-01    0.000000e+00
  1.371826e-01    0.000000e+00
  1.374816e-01    0.000000e+00
  1.377805e-01    0.000000e+00
  1.380794e-01    0.000000e+00
  1.383784e-01    0.000000e+00
  1.386773e-01    0.000000e+00
  1.389762e-01    0.000000e+00
  1.392752e-01    0.000000e+00
  1.395741e-01    0.000000e+00
  1.398730e-01    0.000000e+00
  1.401719e-01    0.000000e+00
  1.404709e-01    0.000000e+00
  1.407698e-01    0.000000e+00
  1.410687e-01    0.000000e+00
  1.413677e-01    0.000000e+00
  1.416666e-01    0.000000e+00
  1.419655e-01    0.000000e+00
  1.422645e-01    0.000000e+00
  1.425634e-01    0.000000e+00
  1.428623e-01    0.000000e+00
  1.431613e-01    0.000000e+00
  1.434602e-01    0.000000e+00
  1.437591e-01    0.000000e+00
  1.440580e-01    0.000000e+00
  1.443570e-01    0.000000e+00
  1.446559e-01    0.000000e+00
  1.449548e-01    0.000000e+00
  1.452538e-01    0.000000e+00
  1.455527e-01    0.000000e+00
  1.458516e-01    0.000000e+00
  1.461506e-01    0.000000e+00
  1.464495e-01    0.000000e+00
  1.467484e-01    0.000000e+00
  1.470473e-01    0.000000e+00
  1.473463e-01    0.000000e+00
  1.476452e-01    0.000000e+00
  1.479441e-01    0.000000e+00
  1.482431e-01    0.000000e+00
  1.485420e-01    0.000000e+00
  1.488409e-01    0.000000e+00
  1.491399e-01    0.000000e+00
  1.494388e-01    0.000000e+00
  1.497377e-01    0.000000e+00
  1.500367e-01    0.000000e+00
  1.503356e-01    0.000000e+00
  1.506345e-01    0.000000e+00
  1.509334e-01    0.000000e+00
  1.512324e-01    0.000000e+00
  1.515313e-01    0.000000e+00
  1.518302e-01    0.000000e+00
  1.521292e-01    0.000000e+00
  1.524281e-01    0.000000e+00
  1.527270e-01    0.000000e+00
  1.530260e-01    0.000000e+00
  1.533249e-01    0.000000e+00
  1.536238e-01    0.000000e+00
