# == pyFAI calibration ==
# Distance Sample to Detector: 2.266 m
# PONI: 5.659e-02, 4.293e-02 m
# Rotations: 0.000000 0.000000 0.000000 rad
# 
# == Fit2d calibration ==
# Distance Sample-beamCenter: 2266.000 mm
# Center: x=249.594, y=329.012 pix
# Tilt: 0.000 deg  TiltPlanRot: 0.000 deg
# 
# Detector Pilatus 300k	 PixelSize= 1.720e-04, 1.720e-04 m
#    Detector has a mask: True 
#    Detector has a dark current: False 
#    detector has a flat field: False 
# 
# Wavelength: 1.27818e-10 m
# Mask applied: user provided
# Dark current applied: False
# Flat field applied: False
# Polarization factor: None
# Normalization factor: 43430.25
# --> MT-latex_CL3252_TiO2_R706_phiT_0.050_PVC_0.400_DOP_0.000_0_r1d.csv
#        q_A^-1             I 
  4.457554e-03    3.009898e-02
  4.756484e-03    2.393519e-02
  5.055415e-03    1.707836e-02
  5.354345e-03    1.221669e-02
  5.653276e-03    9.569131e-03
  5.952206e-03    1.466975e-02
  6.251136e-03    1.340300e-02
  6.550067e-03    1.167697e-02
  6.848997e-03    9.928266e-03
  7.147927e-03    8.434271e-03
  7.446858e-03    7.254510e-03
  7.745788e-03    6.245764e-03
  8.044719e-03    5.362100e-03
  8.343649e-03    4.691630e-03
  8.642579e-03    4.076438e-03
  8.941510e-03    3.612284e-03
  9.240440e-03    3.222875e-03
  9.539371e-03    2.838331e-03
  9.838301e-03    2.528592e-03
  1.013723e-02    2.267145e-03
  1.043616e-02    2.027881e-03
  1.073509e-02    1.826432e-03
  1.103402e-02    1.652779e-03
  1.133295e-02    1.495028e-03
  1.163188e-02    1.355107e-03
  1.193081e-02    1.226627e-03
  1.222974e-02    1.125059e-03
  1.252867e-02    1.037671e-03
  1.282760e-02    9.594401e-04
  1.312654e-02    8.883689e-04
  1.342547e-02    8.126891e-04
  1.372440e-02    7.477381e-04
  1.402333e-02    6.926718e-04
  1.432226e-02    6.363847e-04
  1.462119e-02    5.950882e-04
  1.492012e-02    5.584177e-04
  1.521905e-02    5.208155e-04
  1.551798e-02    4.945940e-04
  1.581691e-02    4.613081e-04
  1.611584e-02    4.288795e-04
  1.641477e-02    4.058298e-04
  1.671370e-02    3.816973e-04
  1.701263e-02    3.655250e-04
  1.731156e-02    3.426607e-04
  1.761049e-02    3.224930e-04
  1.790942e-02    3.093536e-04
  1.820835e-02    2.923048e-04
  1.850728e-02    2.847882e-04
  1.880621e-02    2.714621e-04
  1.910514e-02    2.566371e-04
  1.940407e-02    2.447787e-04
  1.970300e-02    2.373287e-04
  2.000193e-02    2.232133e-04
  2.030086e-02    2.143049e-04
  2.059979e-02    2.101781e-04
  2.089873e-02    2.061552e-04
  2.119766e-02    1.969887e-04
  2.149659e-02    1.866515e-04
  2.179552e-02    1.794713e-04
  2.209445e-02    1.745018e-04
  2.239338e-02    1.708077e-04
  2.269231e-02    1.669664e-04
  2.299124e-02    1.578296e-04
  2.329017e-02    1.538858e-04
  2.358910e-02    1.512026e-04
  2.388803e-02    1.521633e-04
  2.418696e-02    1.496194e-04
  2.448589e-02    1.384373e-04
  2.478482e-02    1.364445e-04
  2.508375e-02    1.354232e-04
  2.538268e-02    1.324994e-04
  2.568161e-02    1.278847e-04
  2.598054e-02    1.236127e-04
  2.627947e-02    1.254981e-04
  2.657840e-02    1.277300e-04
  2.687733e-02    1.227100e-04
  2.717626e-02    1.187505e-04
  2.747519e-02    1.163413e-04
  2.777412e-02    1.157563e-04
  2.807305e-02    1.137574e-04
  2.837198e-02    1.109996e-04
  2.867092e-02    1.100414e-04
  2.896985e-02    1.104947e-04
  2.926878e-02    1.051748e-04
  2.956771e-02    1.035199e-04
  2.986664e-02    1.053029e-04
  3.016557e-02    1.043171e-04
  3.046450e-02    1.012936e-04
  3.076343e-02    1.006752e-04
  3.106236e-02    1.010662e-04
  3.136129e-02    1.007376e-04
  3.166022e-02    9.904111e-05
  3.195915e-02    9.819478e-05
  3.225808e-02    9.601721e-05
  3.255701e-02    9.476340e-05
  3.285594e-02    9.585540e-05
  3.315487e-02    9.476463e-05
  3.345380e-02    9.029308e-05
  3.375273e-02    8.767935e-05
  3.405166e-02    8.816621e-05
  3.435059e-02    8.765022e-05
  3.464952e-02    8.663254e-05
  3.494845e-02    8.799768e-05
  3.524738e-02    8.620242e-05
  3.554631e-02    8.520897e-05
  3.584524e-02    8.739403e-05
  3.614417e-02    8.669624e-05
  3.644310e-02    8.363888e-05
  3.674204e-02    8.207136e-05
  3.704097e-02    8.148302e-05
  3.733990e-02    8.135539e-05
  3.763883e-02    8.110669e-05
  3.793776e-02    7.972489e-05
  3.823669e-02    8.097699e-05
  3.853562e-02    8.072452e-05
  3.883455e-02    7.799276e-05
  3.913348e-02    7.739782e-05
  3.943241e-02    7.778545e-05
  3.973134e-02    7.593719e-05
  4.003027e-02    7.480478e-05
  4.032920e-02    7.637962e-05
  4.062813e-02    7.558019e-05
  4.092706e-02    7.563416e-05
  4.122599e-02    7.451366e-05
  4.152492e-02    7.498600e-05
  4.182385e-02    7.437654e-05
  4.212278e-02    7.489852e-05
  4.242171e-02    7.343681e-05
  4.272064e-02    7.422771e-05
  4.301957e-02    7.584936e-05
  4.331850e-02    7.396032e-05
  4.361743e-02    7.315389e-05
  4.391636e-02    7.369021e-05
  4.421529e-02    7.143445e-05
  4.451423e-02    7.071902e-05
  4.481316e-02    7.199572e-05
  4.511209e-02    7.265090e-05
  4.541102e-02    7.171727e-05
  4.570995e-02    7.254743e-05
  4.600888e-02    7.214135e-05
  4.630781e-02    7.197691e-05
  4.660674e-02    7.343553e-05
  4.690567e-02    7.397003e-05
  4.720460e-02    7.271384e-05
  4.750353e-02    7.170669e-05
  4.780246e-02    6.874993e-05
  4.810139e-02    6.980354e-05
  4.840032e-02    7.111787e-05
  4.869925e-02    7.223617e-05
  4.899818e-02    7.338566e-05
  4.929711e-02    7.202524e-05
  4.959604e-02    7.118202e-05
  4.989497e-02    7.004008e-05
  5.019390e-02    7.305625e-05
  5.049283e-02    7.190866e-05
  5.079176e-02    7.072790e-05
  5.109069e-02    7.090116e-05
  5.138962e-02    7.132853e-05
  5.168855e-02    7.340344e-05
  5.198748e-02    7.500278e-05
  5.228642e-02    7.410443e-05
  5.258535e-02    7.245802e-05
  5.288428e-02    7.103873e-05
  5.318321e-02    7.201764e-05
  5.348214e-02    7.153150e-05
  5.378107e-02    6.979103e-05
  5.408000e-02    7.092099e-05
  5.437893e-02    7.074349e-05
  5.467786e-02    6.996106e-05
  5.497679e-02    7.245207e-05
  5.527572e-02    7.210617e-05
  5.557465e-02    7.198532e-05
  5.587358e-02    7.078245e-05
  5.617251e-02    7.073944e-05
  5.647144e-02    6.942743e-05
  5.677037e-02    7.061661e-05
  5.706930e-02    6.955732e-05
  5.736823e-02    6.877314e-05
  5.766716e-02    7.108894e-05
  5.796609e-02    7.158017e-05
  5.826502e-02    7.082858e-05
  5.856395e-02    7.155397e-05
  5.886288e-02    7.269424e-05
  5.916181e-02    7.265807e-05
  5.946074e-02    7.222092e-05
  5.975967e-02    7.375589e-05
  6.005861e-02    7.182708e-05
  6.035754e-02    7.010371e-05
  6.065647e-02    7.207527e-05
  6.095540e-02    7.324614e-05
  6.125433e-02    7.495548e-05
  6.155326e-02    7.635630e-05
  6.185219e-02    7.301231e-05
  6.215112e-02    7.122431e-05
  6.245005e-02    7.111196e-05
  6.274898e-02    7.056483e-05
  6.304791e-02    7.126494e-05
  6.334684e-02    7.322571e-05
  6.364577e-02    7.443381e-05
  6.394470e-02    7.218761e-05
  6.424363e-02    7.100849e-05
  6.454256e-02    7.029995e-05
  6.484149e-02    7.083040e-05
  6.514042e-02    7.180747e-05
  6.543935e-02    7.361575e-05
  6.573828e-02    7.571506e-05
  6.603721e-02    7.372435e-05
  6.633614e-02    7.206845e-05
  6.663507e-02    7.407595e-05
  6.693400e-02    7.392743e-05
  6.723293e-02    7.378094e-05
  6.753186e-02    7.439253e-05
  6.783080e-02    7.508383e-05
  6.812973e-02    7.557729e-05
  6.842866e-02    7.414567e-05
  6.872759e-02    7.453511e-05
  6.902652e-02    7.510643e-05
  6.932545e-02    7.610492e-05
  6.962438e-02    7.505890e-05
  6.992331e-02    7.522854e-05
  7.022224e-02    7.531828e-05
  7.052117e-02    7.443900e-05
  7.082010e-02    7.335970e-05
  7.111903e-02    7.487387e-05
  7.141796e-02    7.541095e-05
  7.171689e-02    7.581020e-05
  7.201582e-02    7.614072e-05
  7.231475e-02    7.692453e-05
  7.261368e-02    7.528844e-05
  7.291261e-02    7.416296e-05
  7.321154e-02    7.499411e-05
  7.351047e-02    7.400766e-05
  7.380940e-02    7.433727e-05
  7.410833e-02    7.566146e-05
  7.440726e-02    7.443260e-05
  7.470619e-02    7.359550e-05
  7.500512e-02    7.411848e-05
  7.530405e-02    7.510342e-05
  7.560299e-02    7.683493e-05
  7.590192e-02    7.524253e-05
  7.620085e-02    7.523481e-05
  7.649978e-02    7.509438e-05
  7.679871e-02    7.531749e-05
  7.709764e-02    7.582889e-05
  7.739657e-02    7.470414e-05
  7.769550e-02    7.436220e-05
  7.799443e-02    7.525837e-05
  7.829336e-02    7.572015e-05
  7.859229e-02    7.406344e-05
  7.889122e-02    7.408873e-05
  7.919015e-02    7.521315e-05
  7.948908e-02    7.315521e-05
  7.978801e-02    7.331479e-05
  8.008694e-02    7.228208e-05
  8.038587e-02    7.470445e-05
  8.068480e-02    7.561227e-05
  8.098373e-02    7.496373e-05
  8.128266e-02    7.527188e-05
  8.158159e-02    7.432197e-05
  8.188052e-02    7.391105e-05
  8.217945e-02    7.428911e-05
  8.247838e-02    7.450584e-05
  8.277731e-02    7.383645e-05
  8.307624e-02    7.399800e-05
  8.337518e-02    7.404011e-05
  8.367411e-02    7.406263e-05
  8.397304e-02    7.475117e-05
  8.427197e-02    7.320195e-05
  8.457090e-02    7.346162e-05
  8.486983e-02    7.373304e-05
  8.516876e-02    7.325834e-05
  8.546769e-02    7.176611e-05
  8.576662e-02    7.095605e-05
  8.606555e-02    7.237226e-05
  8.636448e-02    7.095449e-05
  8.666341e-02    6.982601e-05
  8.696234e-02    7.143395e-05
  8.726127e-02    7.166475e-05
  8.756020e-02    7.417150e-05
  8.785913e-02    7.352266e-05
  8.815806e-02    7.363777e-05
  8.845699e-02    7.273052e-05
  8.875592e-02    7.077310e-05
  8.905485e-02    7.114826e-05
  8.935378e-02    7.093046e-05
  8.965271e-02    7.025266e-05
  8.995164e-02    7.028468e-05
  9.025057e-02    7.117194e-05
  9.054950e-02    7.027595e-05
  9.084843e-02    7.005641e-05
  9.114737e-02    6.985936e-05
  9.144630e-02    6.950073e-05
  9.174523e-02    7.015514e-05
  9.204416e-02    6.940328e-05
  9.234309e-02    6.898557e-05
  9.264202e-02    6.903472e-05
  9.294095e-02    6.927674e-05
  9.323988e-02    6.836239e-05
  9.353881e-02    6.808362e-05
  9.383774e-02    6.830766e-05
  9.413667e-02    6.749546e-05
  9.443560e-02    6.693779e-05
  9.473453e-02    6.744287e-05
  9.503346e-02    6.910974e-05
  9.533239e-02    7.104784e-05
  9.563132e-02    6.974748e-05
  9.593025e-02    6.759993e-05
  9.622918e-02    6.786312e-05
  9.652811e-02    6.802290e-05
  9.682704e-02    6.773174e-05
  9.712597e-02    6.766567e-05
  9.742490e-02    6.850078e-05
  9.772383e-02    6.858079e-05
  9.802276e-02    6.815010e-05
  9.832169e-02    6.742393e-05
  9.862062e-02    6.691536e-05
  9.891956e-02    6.822987e-05
  9.921849e-02    6.915890e-05
  9.951742e-02    6.741487e-05
  9.981635e-02    6.666385e-05
  1.001153e-01    6.616850e-05
  1.004142e-01    6.679692e-05
  1.007131e-01    6.677580e-05
  1.010121e-01    6.607806e-05
  1.013110e-01    6.533366e-05
  1.016099e-01    6.505309e-05
  1.019089e-01    6.541952e-05
  1.022078e-01    6.596206e-05
  1.025067e-01    6.458759e-05
  1.028057e-01    6.573242e-05
  1.031046e-01    6.547728e-05
  1.034035e-01    6.533805e-05
  1.037024e-01    6.534316e-05
  1.040014e-01    6.370650e-05
  1.043003e-01    6.363926e-05
  1.045992e-01    6.382051e-05
  1.048982e-01    6.402653e-05
  1.051971e-01    6.524126e-05
  1.054960e-01    6.482651e-05
  1.057950e-01    6.319226e-05
  1.060939e-01    6.232985e-05
  1.063928e-01    6.231190e-05
  1.066917e-01    6.502301e-05
  1.069907e-01    6.619601e-05
  1.072896e-01    6.478214e-05
  1.075885e-01    6.288102e-05
  1.078875e-01    6.210387e-05
  1.081864e-01    6.113102e-05
  1.084853e-01    6.363063e-05
  1.087843e-01    6.361375e-05
  1.090832e-01    6.349776e-05
  1.093821e-01    6.192822e-05
  1.096810e-01    6.119222e-05
  1.099800e-01    6.266275e-05
  1.102789e-01    6.343882e-05
  1.105778e-01    6.155609e-05
  1.108768e-01    6.114730e-05
  1.111757e-01    6.150970e-05
  1.114746e-01    6.151428e-05
  1.117736e-01    6.238353e-05
  1.120725e-01    6.194622e-05
  1.123714e-01    6.104391e-05
  1.126704e-01    6.132577e-05
  1.129693e-01    6.042234e-05
  1.132682e-01    5.922211e-05
  1.135671e-01    5.999101e-05
  1.138661e-01    5.886345e-05
  1.141650e-01    5.833675e-05
  1.144639e-01    6.111014e-05
  1.147629e-01    6.208396e-05
  1.150618e-01    6.214888e-05
  1.153607e-01    6.142828e-05
  1.156597e-01    5.749471e-05
  1.159586e-01    5.777191e-05
  1.162575e-01    5.918882e-05
  1.165564e-01    5.928662e-05
  1.168554e-01    5.895182e-05
  1.171543e-01    5.790354e-05
  1.174532e-01    5.846912e-05
  1.177522e-01    5.839119e-05
  1.180511e-01    6.164722e-05
  1.183500e-01    6.262738e-05
  1.186490e-01    6.112512e-05
  1.189479e-01    6.215683e-05
  1.192468e-01    5.834063e-05
  1.195458e-01    5.621461e-05
  1.198447e-01    6.125966e-05
  1.201436e-01    6.269439e-05
  1.204425e-01    6.232016e-05
  1.207415e-01    6.771449e-05
  1.210404e-01    2.304628e-05
  1.213393e-01    0.000000e+00
  1.216383e-01    0.000000e+00
  1.219372e-01    0.000000e+00
  1.222361e-01    0.000000e+00
  1.225351e-01    0.000000e+00
  1.228340e-01    0.000000e+00
  1.231329e-01    0.000000e+00
  1.234318e-01    0.000000e+00
  1.237308e-01    0.000000e+00
  1.240297e-01    0.000000e+00
  1.243286e-01    0.000000e+00
  1.246276e-01    0.000000e+00
  1.249265e-01    0.000000e+00
  1.252254e-01    0.000000e+00
  1.255244e-01    0.000000e+00
  1.258233e-01    0.000000e+00
  1.261222e-01    0.000000e+00
  1.264212e-01    0.000000e+00
  1.267201e-01    0.000000e+00
  1.270190e-01    0.000000e+00
  1.273179e-01    0.000000e+00
  1.276169e-01    0.000000e+00
  1.279158e-01    0.000000e+00
  1.282147e-01    0.000000e+00
  1.285137e-01    0.000000e+00
  1.288126e-01    0.000000e+00
  1.291115e-01    0.000000e+00
  1.294105e-01    0.000000e+00
  1.297094e-01    0.000000e+00
  1.300083e-01    0.000000e+00
  1.303072e-01    0.000000e+00
  1.306062e-01    0.000000e+00
  1.309051e-01    0.000000e+00
  1.312040e-01    0.000000e+00
  1.315030e-01    0.000000e+00
  1.318019e-01    0.000000e+00
  1.321008e-01    0.000000e+00
  1.323998e-01    0.000000e+00
  1.326987e-01    0.000000e+00
  1.329976e-01    0.000000e+00
  1.332965e-01    0.000000e+00
  1.335955e-01    0.000000e+00
  1.338944e-01    0.000000e+00
  1.341933e-01    0.000000e+00
  1.344923e-01    0.000000e+00
  1.347912e-01    0.000000e+00
  1.350901e-01    0.000000e+00
  1.353891e-01    0.000000e+00
  1.356880e-01    0.000000e+00
  1.359869e-01    0.000000e+00
  1.362859e-01    0.000000e+00
  1.365848e-01    0.000000e+00
  1.368837e-01    0.000000e+00
  1.371826e-01    0.000000e+00
  1.374816e-01    0.000000e+00
  1.377805e-01    0.000000e+00
  1.380794e-01    0.000000e+00
  1.383784e-01    0.000000e+00
  1.386773e-01    0.000000e+00
  1.389762e-01    0.000000e+00
  1.392752e-01    0.000000e+00
  1.395741e-01    0.000000e+00
  1.398730e-01    0.000000e+00
  1.401719e-01    0.000000e+00
  1.404709e-01    0.000000e+00
  1.407698e-01    0.000000e+00
  1.410687e-01    0.000000e+00
  1.413677e-01    0.000000e+00
  1.416666e-01    0.000000e+00
  1.419655e-01    0.000000e+00
  1.422645e-01    0.000000e+00
  1.425634e-01    0.000000e+00
  1.428623e-01    0.000000e+00
  1.431613e-01    0.000000e+00
  1.434602e-01    0.000000e+00
  1.437591e-01    0.000000e+00
  1.440580e-01    0.000000e+00
  1.443570e-01    0.000000e+00
  1.446559e-01    0.000000e+00
  1.449548e-01    0.000000e+00
  1.452538e-01    0.000000e+00
  1.455527e-01    0.000000e+00
  1.458516e-01    0.000000e+00
  1.461506e-01    0.000000e+00
  1.464495e-01    0.000000e+00
  1.467484e-01    0.000000e+00
  1.470473e-01    0.000000e+00
  1.473463e-01    0.000000e+00
  1.476452e-01    0.000000e+00
  1.479441e-01    0.000000e+00
  1.482431e-01    0.000000e+00
  1.485420e-01    0.000000e+00
  1.488409e-01    0.000000e+00
  1.491399e-01    0.000000e+00
  1.494388e-01    0.000000e+00
  1.497377e-01    0.000000e+00
  1.500367e-01    0.000000e+00
  1.503356e-01    0.000000e+00
  1.506345e-01    0.000000e+00
  1.509334e-01    0.000000e+00
  1.512324e-01    0.000000e+00
  1.515313e-01    0.000000e+00
  1.518302e-01    0.000000e+00
  1.521292e-01    0.000000e+00
  1.524281e-01    0.000000e+00
  1.527270e-01    0.000000e+00
  1.530260e-01    0.000000e+00
  1.533249e-01    0.000000e+00
  1.536238e-01    0.000000e+00
