# == pyFAI calibration ==
# Distance Sample to Detector: 2.266 m
# PONI: 5.659e-02, 4.293e-02 m
# Rotations: 0.000000 0.000000 0.000000 rad
# 
# == Fit2d calibration ==
# Distance Sample-beamCenter: 2266.000 mm
# Center: x=249.594, y=329.012 pix
# Tilt: 0.000 deg  TiltPlanRot: 0.000 deg
# 
# Detector Pilatus 300k	 PixelSize= 1.720e-04, 1.720e-04 m
#    Detector has a mask: True 
#    Detector has a dark current: False 
#    detector has a flat field: False 
# 
# Wavelength: 1.27818e-10 m
# Mask applied: user provided
# Dark current applied: False
# Flat field applied: False
# Polarization factor: None
# Normalization factor: 27312.670000000006
# --> MT-latex_CL3252_TiO2_R706_phiT_0.010_PVC_0.400_DOP_0.000_2_r1d.csv
#        q_A^-1             I 
  4.457554e-03    5.392889e-02
  4.756484e-03    4.326790e-02
  5.055415e-03    3.200307e-02
  5.354345e-03    2.286635e-02
  5.653276e-03    1.802896e-02
  5.952206e-03    3.070634e-02
  6.251136e-03    2.832932e-02
  6.550067e-03    2.474760e-02
  6.848997e-03    2.108089e-02
  7.147927e-03    1.779124e-02
  7.446858e-03    1.518238e-02
  7.745788e-03    1.293153e-02
  8.044719e-03    1.099988e-02
  8.343649e-03    9.591259e-03
  8.642579e-03    8.376769e-03
  8.941510e-03    7.281580e-03
  9.240440e-03    6.415104e-03
  9.539371e-03    5.691108e-03
  9.838301e-03    5.100694e-03
  1.013723e-02    4.590636e-03
  1.043616e-02    4.072054e-03
  1.073509e-02    3.589933e-03
  1.103402e-02    3.235068e-03
  1.133295e-02    2.902545e-03
  1.163188e-02    2.636871e-03
  1.193081e-02    2.414412e-03
  1.222974e-02    2.191970e-03
  1.252867e-02    2.003686e-03
  1.282760e-02    1.843271e-03
  1.312654e-02    1.687075e-03
  1.342547e-02    1.565116e-03
  1.372440e-02    1.417230e-03
  1.402333e-02    1.322040e-03
  1.432226e-02    1.242098e-03
  1.462119e-02    1.138623e-03
  1.492012e-02    1.061965e-03
  1.521905e-02    9.959277e-04
  1.551798e-02    9.157458e-04
  1.581691e-02    8.506213e-04
  1.611584e-02    8.002275e-04
  1.641477e-02    7.552995e-04
  1.671370e-02    7.101905e-04
  1.701263e-02    6.665682e-04
  1.731156e-02    6.286472e-04
  1.761049e-02    5.937979e-04
  1.790942e-02    5.708546e-04
  1.820835e-02    5.396678e-04
  1.850728e-02    5.018871e-04
  1.880621e-02    4.720506e-04
  1.910514e-02    4.464267e-04
  1.940407e-02    4.247847e-04
  1.970300e-02    4.075787e-04
  2.000193e-02    3.889656e-04
  2.030086e-02    3.746594e-04
  2.059979e-02    3.690725e-04
  2.089873e-02    3.470655e-04
  2.119766e-02    3.357233e-04
  2.149659e-02    3.218908e-04
  2.179552e-02    3.087342e-04
  2.209445e-02    2.982410e-04
  2.239338e-02    2.950036e-04
  2.269231e-02    2.831647e-04
  2.299124e-02    2.701406e-04
  2.329017e-02    2.581004e-04
  2.358910e-02    2.487938e-04
  2.388803e-02    2.415761e-04
  2.418696e-02    2.381511e-04
  2.448589e-02    2.337521e-04
  2.478482e-02    2.254047e-04
  2.508375e-02    2.163559e-04
  2.538268e-02    2.116638e-04
  2.568161e-02    2.100129e-04
  2.598054e-02    2.074210e-04
  2.627947e-02    2.004600e-04
  2.657840e-02    1.960037e-04
  2.687733e-02    1.933822e-04
  2.717626e-02    1.876461e-04
  2.747519e-02    1.830390e-04
  2.777412e-02    1.786768e-04
  2.807305e-02    1.764399e-04
  2.837198e-02    1.735289e-04
  2.867092e-02    1.746141e-04
  2.896985e-02    1.737604e-04
  2.926878e-02    1.697814e-04
  2.956771e-02    1.645624e-04
  2.986664e-02    1.610207e-04
  3.016557e-02    1.597962e-04
  3.046450e-02    1.545214e-04
  3.076343e-02    1.564918e-04
  3.106236e-02    1.584104e-04
  3.136129e-02    1.534307e-04
  3.166022e-02    1.504023e-04
  3.195915e-02    1.502566e-04
  3.225808e-02    1.436611e-04
  3.255701e-02    1.376184e-04
  3.285594e-02    1.400471e-04
  3.315487e-02    1.406716e-04
  3.345380e-02    1.421241e-04
  3.375273e-02    1.379752e-04
  3.405166e-02    1.354808e-04
  3.435059e-02    1.351052e-04
  3.464952e-02    1.336153e-04
  3.494845e-02    1.339771e-04
  3.524738e-02    1.343037e-04
  3.554631e-02    1.339834e-04
  3.584524e-02    1.336317e-04
  3.614417e-02    1.283759e-04
  3.644310e-02    1.245703e-04
  3.674204e-02    1.242164e-04
  3.704097e-02    1.259141e-04
  3.733990e-02    1.244766e-04
  3.763883e-02    1.219137e-04
  3.793776e-02    1.203979e-04
  3.823669e-02    1.176145e-04
  3.853562e-02    1.144494e-04
  3.883455e-02    1.165114e-04
  3.913348e-02    1.190050e-04
  3.943241e-02    1.184944e-04
  3.973134e-02    1.123317e-04
  4.003027e-02    1.111549e-04
  4.032920e-02    1.129633e-04
  4.062813e-02    1.125886e-04
  4.092706e-02    1.111092e-04
  4.122599e-02    1.153221e-04
  4.152492e-02    1.136907e-04
  4.182385e-02    1.104541e-04
  4.212278e-02    1.109679e-04
  4.242171e-02    1.131305e-04
  4.272064e-02    1.117104e-04
  4.301957e-02    1.081023e-04
  4.331850e-02    1.068948e-04
  4.361743e-02    1.094778e-04
  4.391636e-02    1.108554e-04
  4.421529e-02    1.085940e-04
  4.451423e-02    1.080390e-04
  4.481316e-02    1.072285e-04
  4.511209e-02    1.053118e-04
  4.541102e-02    1.093145e-04
  4.570995e-02    1.097126e-04
  4.600888e-02    1.060342e-04
  4.630781e-02    1.063695e-04
  4.660674e-02    1.079683e-04
  4.690567e-02    1.054857e-04
  4.720460e-02    1.073808e-04
  4.750353e-02    1.121946e-04
  4.780246e-02    1.088550e-04
  4.810139e-02    1.065142e-04
  4.840032e-02    1.064904e-04
  4.869925e-02    1.045544e-04
  4.899818e-02    1.048431e-04
  4.929711e-02    1.067720e-04
  4.959604e-02    1.049041e-04
  4.989497e-02    1.052732e-04
  5.019390e-02    1.050977e-04
  5.049283e-02    1.037398e-04
  5.079176e-02    1.041380e-04
  5.109069e-02    1.056735e-04
  5.138962e-02    1.064187e-04
  5.168855e-02    1.074669e-04
  5.198748e-02    1.115839e-04
  5.228642e-02    1.096699e-04
  5.258535e-02    1.054001e-04
  5.288428e-02    1.049728e-04
  5.318321e-02    1.056425e-04
  5.348214e-02    1.045365e-04
  5.378107e-02    1.031101e-04
  5.408000e-02    1.027903e-04
  5.437893e-02    1.044398e-04
  5.467786e-02    1.063240e-04
  5.497679e-02    1.075718e-04
  5.527572e-02    1.067911e-04
  5.557465e-02    1.042065e-04
  5.587358e-02    1.018334e-04
  5.617251e-02    1.047231e-04
  5.647144e-02    1.054907e-04
  5.677037e-02    1.042856e-04
  5.706930e-02    1.045175e-04
  5.736823e-02    1.049380e-04
  5.766716e-02    1.060750e-04
  5.796609e-02    1.056906e-04
  5.826502e-02    1.035372e-04
  5.856395e-02    1.043273e-04
  5.886288e-02    1.068211e-04
  5.916181e-02    1.084499e-04
  5.946074e-02    1.079756e-04
  5.975967e-02    1.075187e-04
  6.005861e-02    1.065793e-04
  6.035754e-02    1.069551e-04
  6.065647e-02    1.102062e-04
  6.095540e-02    1.114864e-04
  6.125433e-02    1.115920e-04
  6.155326e-02    1.107182e-04
  6.185219e-02    1.090046e-04
  6.215112e-02    1.074685e-04
  6.245005e-02    1.070638e-04
  6.274898e-02    1.060302e-04
  6.304791e-02    1.071400e-04
  6.334684e-02    1.098880e-04
  6.364577e-02    1.116425e-04
  6.394470e-02    1.104568e-04
  6.424363e-02    1.068066e-04
  6.454256e-02    1.074220e-04
  6.484149e-02    1.077004e-04
  6.514042e-02    1.074247e-04
  6.543935e-02    1.064198e-04
  6.573828e-02    1.088176e-04
  6.603721e-02    1.094970e-04
  6.633614e-02    1.062597e-04
  6.663507e-02    1.074268e-04
  6.693400e-02    1.073611e-04
  6.723293e-02    1.097607e-04
  6.753186e-02    1.109857e-04
  6.783080e-02    1.109643e-04
  6.812973e-02    1.104587e-04
  6.842866e-02    1.111806e-04
  6.872759e-02    1.134222e-04
  6.902652e-02    1.132039e-04
  6.932545e-02    1.093846e-04
  6.962438e-02    1.097763e-04
  6.992331e-02    1.102774e-04
  7.022224e-02    1.103690e-04
  7.052117e-02    1.111140e-04
  7.082010e-02    1.140371e-04
  7.111903e-02    1.137526e-04
  7.141796e-02    1.144040e-04
  7.171689e-02    1.126897e-04
  7.201582e-02    1.112394e-04
  7.231475e-02    1.099897e-04
  7.261368e-02    1.110170e-04
  7.291261e-02    1.111795e-04
  7.321154e-02    1.124995e-04
  7.351047e-02    1.146191e-04
  7.380940e-02    1.142080e-04
  7.410833e-02    1.142610e-04
  7.440726e-02    1.130153e-04
  7.470619e-02    1.106946e-04
  7.500512e-02    1.102948e-04
  7.530405e-02    1.103930e-04
  7.560299e-02    1.116858e-04
  7.590192e-02    1.114364e-04
  7.620085e-02    1.110726e-04
  7.649978e-02    1.112422e-04
  7.679871e-02    1.126452e-04
  7.709764e-02    1.140287e-04
  7.739657e-02    1.141494e-04
  7.769550e-02    1.110424e-04
  7.799443e-02    1.124887e-04
  7.829336e-02    1.156038e-04
  7.859229e-02    1.140377e-04
  7.889122e-02    1.106743e-04
  7.919015e-02    1.112773e-04
  7.948908e-02    1.133686e-04
  7.978801e-02    1.123830e-04
  8.008694e-02    1.117104e-04
  8.038587e-02    1.109029e-04
  8.068480e-02    1.100731e-04
  8.098373e-02    1.068137e-04
  8.128266e-02    1.082215e-04
  8.158159e-02    1.116015e-04
  8.188052e-02    1.124963e-04
  8.217945e-02    1.106088e-04
  8.247838e-02    1.086835e-04
  8.277731e-02    1.090265e-04
  8.307624e-02    1.092143e-04
  8.337518e-02    1.071594e-04
  8.367411e-02    1.082975e-04
  8.397304e-02    1.088502e-04
  8.427197e-02    1.090638e-04
  8.457090e-02    1.083321e-04
  8.486983e-02    1.065870e-04
  8.516876e-02    1.053686e-04
  8.546769e-02    1.094099e-04
  8.576662e-02    1.073880e-04
  8.606555e-02    1.065706e-04
  8.636448e-02    1.070307e-04
  8.666341e-02    1.084763e-04
  8.696234e-02    1.089288e-04
  8.726127e-02    1.068008e-04
  8.756020e-02    1.069892e-04
  8.785913e-02    1.069395e-04
  8.815806e-02    1.072448e-04
  8.845699e-02    1.043540e-04
  8.875592e-02    1.067063e-04
  8.905485e-02    1.074194e-04
  8.935378e-02    1.062974e-04
  8.965271e-02    1.051615e-04
  8.995164e-02    1.030857e-04
  9.025057e-02    1.055445e-04
  9.054950e-02    1.070572e-04
  9.084843e-02    1.068288e-04
  9.114737e-02    1.059299e-04
  9.144630e-02    1.045861e-04
  9.174523e-02    1.049235e-04
  9.204416e-02    1.032015e-04
  9.234309e-02    1.031483e-04
  9.264202e-02    1.026827e-04
  9.294095e-02    1.031536e-04
  9.323988e-02    1.053927e-04
  9.353881e-02    1.048028e-04
  9.383774e-02    1.027337e-04
  9.413667e-02    1.012824e-04
  9.443560e-02    1.032047e-04
  9.473453e-02    1.022817e-04
  9.503346e-02    1.019360e-04
  9.533239e-02    1.019139e-04
  9.563132e-02    1.024837e-04
  9.593025e-02    1.023926e-04
  9.622918e-02    1.019962e-04
  9.652811e-02    1.024276e-04
  9.682704e-02    1.014623e-04
  9.712597e-02    9.960570e-05
  9.742490e-02    9.967019e-05
  9.772383e-02    1.000872e-04
  9.802276e-02    1.022517e-04
  9.832169e-02    1.011745e-04
  9.862062e-02    9.785232e-05
  9.891956e-02    9.808056e-05
  9.921849e-02    9.981947e-05
  9.951742e-02    9.946488e-05
  9.981635e-02    9.733116e-05
  1.001153e-01    9.709891e-05
  1.004142e-01    9.858896e-05
  1.007131e-01    9.711818e-05
  1.010121e-01    9.741922e-05
  1.013110e-01    9.701211e-05
  1.016099e-01    9.763242e-05
  1.019089e-01    9.772728e-05
  1.022078e-01    9.685967e-05
  1.025067e-01    9.626707e-05
  1.028057e-01    9.647921e-05
  1.031046e-01    9.777161e-05
  1.034035e-01    9.967272e-05
  1.037024e-01    9.686395e-05
  1.040014e-01    9.684559e-05
  1.043003e-01    9.815044e-05
  1.045992e-01    9.773855e-05
  1.048982e-01    9.647592e-05
  1.051971e-01    9.455545e-05
  1.054960e-01    9.427992e-05
  1.057950e-01    9.494468e-05
  1.060939e-01    9.524032e-05
  1.063928e-01    9.443367e-05
  1.066917e-01    9.155962e-05
  1.069907e-01    9.290736e-05
  1.072896e-01    9.282870e-05
  1.075885e-01    9.291176e-05
  1.078875e-01    9.292090e-05
  1.081864e-01    9.500476e-05
  1.084853e-01    9.408084e-05
  1.087843e-01    9.207492e-05
  1.090832e-01    9.303254e-05
  1.093821e-01    9.329226e-05
  1.096810e-01    9.254400e-05
  1.099800e-01    9.193661e-05
  1.102789e-01    9.226565e-05
  1.105778e-01    9.369398e-05
  1.108768e-01    9.321947e-05
  1.111757e-01    8.940536e-05
  1.114746e-01    9.029775e-05
  1.117736e-01    9.297723e-05
  1.120725e-01    8.987248e-05
  1.123714e-01    9.199268e-05
  1.126704e-01    9.390905e-05
  1.129693e-01    9.042041e-05
  1.132682e-01    8.693225e-05
  1.135671e-01    9.077610e-05
  1.138661e-01    9.248630e-05
  1.141650e-01    8.846790e-05
  1.144639e-01    8.811978e-05
  1.147629e-01    9.098424e-05
  1.150618e-01    9.055557e-05
  1.153607e-01    8.972695e-05
  1.156597e-01    8.868266e-05
  1.159586e-01    8.385284e-05
  1.162575e-01    8.232168e-05
  1.165564e-01    8.584094e-05
  1.168554e-01    8.922001e-05
  1.171543e-01    8.722748e-05
  1.174532e-01    8.643184e-05
  1.177522e-01    8.884612e-05
  1.180511e-01    8.608702e-05
  1.183500e-01    8.100618e-05
  1.186490e-01    8.561485e-05
  1.189479e-01    8.660369e-05
  1.192468e-01    8.757236e-05
  1.195458e-01    8.446768e-05
  1.198447e-01    8.277785e-05
  1.201436e-01    8.429834e-05
  1.204425e-01    8.739790e-05
  1.207415e-01    8.997178e-05
  1.210404e-01    1.099386e-04
  1.213393e-01    0.000000e+00
  1.216383e-01    0.000000e+00
  1.219372e-01    0.000000e+00
  1.222361e-01    0.000000e+00
  1.225351e-01    0.000000e+00
  1.228340e-01    0.000000e+00
  1.231329e-01    0.000000e+00
  1.234318e-01    0.000000e+00
  1.237308e-01    0.000000e+00
  1.240297e-01    0.000000e+00
  1.243286e-01    0.000000e+00
  1.246276e-01    0.000000e+00
  1.249265e-01    0.000000e+00
  1.252254e-01    0.000000e+00
  1.255244e-01    0.000000e+00
  1.258233e-01    0.000000e+00
  1.261222e-01    0.000000e+00
  1.264212e-01    0.000000e+00
  1.267201e-01    0.000000e+00
  1.270190e-01    0.000000e+00
  1.273179e-01    0.000000e+00
  1.276169e-01    0.000000e+00
  1.279158e-01    0.000000e+00
  1.282147e-01    0.000000e+00
  1.285137e-01    0.000000e+00
  1.288126e-01    0.000000e+00
  1.291115e-01    0.000000e+00
  1.294105e-01    0.000000e+00
  1.297094e-01    0.000000e+00
  1.300083e-01    0.000000e+00
  1.303072e-01    0.000000e+00
  1.306062e-01    0.000000e+00
  1.309051e-01    0.000000e+00
  1.312040e-01    0.000000e+00
  1.315030e-01    0.000000e+00
  1.318019e-01    0.000000e+00
  1.321008e-01    0.000000e+00
  1.323998e-01    0.000000e+00
  1.326987e-01    0.000000e+00
  1.329976e-01    0.000000e+00
  1.332965e-01    0.000000e+00
  1.335955e-01    0.000000e+00
  1.338944e-01    0.000000e+00
  1.341933e-01    0.000000e+00
  1.344923e-01    0.000000e+00
  1.347912e-01    0.000000e+00
  1.350901e-01    0.000000e+00
  1.353891e-01    0.000000e+00
  1.356880e-01    0.000000e+00
  1.359869e-01    0.000000e+00
  1.362859e-01    0.000000e+00
  1.365848e-01    0.000000e+00
  1.368837e-01    0.000000e+00
  1.371826e-01    0.000000e+00
  1.374816e-01    0.000000e+00
  1.377805e-01    0.000000e+00
  1.380794e-01    0.000000e+00
  1.383784e-01    0.000000e+00
  1.386773e-01    0.000000e+00
  1.389762e-01    0.000000e+00
  1.392752e-01    0.000000e+00
  1.395741e-01    0.000000e+00
  1.398730e-01    0.000000e+00
  1.401719e-01    0.000000e+00
  1.404709e-01    0.000000e+00
  1.407698e-01    0.000000e+00
  1.410687e-01    0.000000e+00
  1.413677e-01    0.000000e+00
  1.416666e-01    0.000000e+00
  1.419655e-01    0.000000e+00
  1.422645e-01    0.000000e+00
  1.425634e-01    0.000000e+00
  1.428623e-01    0.000000e+00
  1.431613e-01    0.000000e+00
  1.434602e-01    0.000000e+00
  1.437591e-01    0.000000e+00
  1.440580e-01    0.000000e+00
  1.443570e-01    0.000000e+00
  1.446559e-01    0.000000e+00
  1.449548e-01    0.000000e+00
  1.452538e-01    0.000000e+00
  1.455527e-01    0.000000e+00
  1.458516e-01    0.000000e+00
  1.461506e-01    0.000000e+00
  1.464495e-01    0.000000e+00
  1.467484e-01    0.000000e+00
  1.470473e-01    0.000000e+00
  1.473463e-01    0.000000e+00
  1.476452e-01    0.000000e+00
  1.479441e-01    0.000000e+00
  1.482431e-01    0.000000e+00
  1.485420e-01    0.000000e+00
  1.488409e-01    0.000000e+00
  1.491399e-01    0.000000e+00
  1.494388e-01    0.000000e+00
  1.497377e-01    0.000000e+00
  1.500367e-01    0.000000e+00
  1.503356e-01    0.000000e+00
  1.506345e-01    0.000000e+00
  1.509334e-01    0.000000e+00
  1.512324e-01    0.000000e+00
  1.515313e-01    0.000000e+00
  1.518302e-01    0.000000e+00
  1.521292e-01    0.000000e+00
  1.524281e-01    0.000000e+00
  1.527270e-01    0.000000e+00
  1.530260e-01    0.000000e+00
  1.533249e-01    0.000000e+00
  1.536238e-01    0.000000e+00
