# == pyFAI calibration ==
# Distance Sample to Detector: 2.266 m
# PONI: 5.659e-02, 4.293e-02 m
# Rotations: 0.000000 0.000000 0.000000 rad
# 
# == Fit2d calibration ==
# Distance Sample-beamCenter: 2266.000 mm
# Center: x=249.594, y=329.012 pix
# Tilt: 0.000 deg  TiltPlanRot: 0.000 deg
# 
# Detector Pilatus 300k	 PixelSize= 1.720e-04, 1.720e-04 m
#    Detector has a mask: True 
#    Detector has a dark current: False 
#    detector has a flat field: False 
# 
# Wavelength: 1.27818e-10 m
# Mask applied: user provided
# Dark current applied: False
# Flat field applied: False
# Polarization factor: None
# Normalization factor: 22469.18
# --> MT-latex_CL3252_TiO2_R706_phiT_0.050_PVC_0.000_DOP_0.000_0_r1d.csv
#        q_A^-1             I 
  4.457554e-03    2.959330e-02
  4.756484e-03    2.280483e-02
  5.055415e-03    1.565938e-02
  5.354345e-03    1.105651e-02
  5.653276e-03    8.395961e-03
  5.952206e-03    1.249505e-02
  6.251136e-03    1.157798e-02
  6.550067e-03    1.011246e-02
  6.848997e-03    8.630476e-03
  7.147927e-03    7.365313e-03
  7.446858e-03    6.260091e-03
  7.745788e-03    5.360584e-03
  8.044719e-03    4.644985e-03
  8.343649e-03    4.080977e-03
  8.642579e-03    3.539223e-03
  8.941510e-03    3.071104e-03
  9.240440e-03    2.719634e-03
  9.539371e-03    2.394540e-03
  9.838301e-03    2.112253e-03
  1.013723e-02    1.923447e-03
  1.043616e-02    1.757004e-03
  1.073509e-02    1.580428e-03
  1.103402e-02    1.436207e-03
  1.133295e-02    1.294426e-03
  1.163188e-02    1.173967e-03
  1.193081e-02    1.067974e-03
  1.222974e-02    9.807810e-04
  1.252867e-02    9.102114e-04
  1.282760e-02    8.340423e-04
  1.312654e-02    7.551858e-04
  1.342547e-02    7.013842e-04
  1.372440e-02    6.547476e-04
  1.402333e-02    6.073177e-04
  1.432226e-02    5.701286e-04
  1.462119e-02    5.316255e-04
  1.492012e-02    5.030624e-04
  1.521905e-02    4.668871e-04
  1.551798e-02    4.311521e-04
  1.581691e-02    4.059545e-04
  1.611584e-02    3.799225e-04
  1.641477e-02    3.548716e-04
  1.671370e-02    3.370042e-04
  1.701263e-02    3.151435e-04
  1.731156e-02    3.073810e-04
  1.761049e-02    2.886338e-04
  1.790942e-02    2.653492e-04
  1.820835e-02    2.589588e-04
  1.850728e-02    2.515696e-04
  1.880621e-02    2.423427e-04
  1.910514e-02    2.294205e-04
  1.940407e-02    2.214664e-04
  1.970300e-02    2.111912e-04
  2.000193e-02    2.033804e-04
  2.030086e-02    1.994832e-04
  2.059979e-02    1.901493e-04
  2.089873e-02    1.825446e-04
  2.119766e-02    1.808817e-04
  2.149659e-02    1.755831e-04
  2.179552e-02    1.703637e-04
  2.209445e-02    1.680375e-04
  2.239338e-02    1.575468e-04
  2.269231e-02    1.526402e-04
  2.299124e-02    1.526206e-04
  2.329017e-02    1.574157e-04
  2.358910e-02    1.496721e-04
  2.388803e-02    1.404460e-04
  2.418696e-02    1.366303e-04
  2.448589e-02    1.339867e-04
  2.478482e-02    1.268384e-04
  2.508375e-02    1.255523e-04
  2.538268e-02    1.265480e-04
  2.568161e-02    1.241255e-04
  2.598054e-02    1.227894e-04
  2.627947e-02    1.226855e-04
  2.657840e-02    1.161692e-04
  2.687733e-02    1.153279e-04
  2.717626e-02    1.163055e-04
  2.747519e-02    1.152995e-04
  2.777412e-02    1.091941e-04
  2.807305e-02    1.066239e-04
  2.837198e-02    1.087559e-04
  2.867092e-02    1.061691e-04
  2.896985e-02    1.025833e-04
  2.926878e-02    1.033516e-04
  2.956771e-02    1.007608e-04
  2.986664e-02    1.009974e-04
  3.016557e-02    1.001000e-04
  3.046450e-02    9.779091e-05
  3.076343e-02    9.931952e-05
  3.106236e-02    9.754923e-05
  3.136129e-02    9.549193e-05
  3.166022e-02    9.318515e-05
  3.195915e-02    9.317346e-05
  3.225808e-02    9.491450e-05
  3.255701e-02    9.362729e-05
  3.285594e-02    9.133153e-05
  3.315487e-02    9.196236e-05
  3.345380e-02    9.507214e-05
  3.375273e-02    9.062691e-05
  3.405166e-02    8.734963e-05
  3.435059e-02    8.628419e-05
  3.464952e-02    8.997117e-05
  3.494845e-02    8.588938e-05
  3.524738e-02    8.462421e-05
  3.554631e-02    8.786379e-05
  3.584524e-02    8.403565e-05
  3.614417e-02    8.371693e-05
  3.644310e-02    8.165873e-05
  3.674204e-02    8.191916e-05
  3.704097e-02    8.297733e-05
  3.733990e-02    8.132213e-05
  3.763883e-02    7.762189e-05
  3.793776e-02    7.818354e-05
  3.823669e-02    7.769455e-05
  3.853562e-02    7.627671e-05
  3.883455e-02    7.607045e-05
  3.913348e-02    7.764284e-05
  3.943241e-02    7.905190e-05
  3.973134e-02    7.638960e-05
  4.003027e-02    7.538447e-05
  4.032920e-02    7.608395e-05
  4.062813e-02    7.570951e-05
  4.092706e-02    7.358778e-05
  4.122599e-02    7.552162e-05
  4.152492e-02    7.563825e-05
  4.182385e-02    7.260877e-05
  4.212278e-02    7.327492e-05
  4.242171e-02    7.249557e-05
  4.272064e-02    7.100303e-05
  4.301957e-02    7.390382e-05
  4.331850e-02    7.389965e-05
  4.361743e-02    7.172074e-05
  4.391636e-02    7.109777e-05
  4.421529e-02    7.505290e-05
  4.451423e-02    7.252582e-05
  4.481316e-02    6.954088e-05
  4.511209e-02    7.083249e-05
  4.541102e-02    7.179105e-05
  4.570995e-02    7.089453e-05
  4.600888e-02    7.249504e-05
  4.630781e-02    7.100921e-05
  4.660674e-02    6.915057e-05
  4.690567e-02    6.777321e-05
  4.720460e-02    7.107807e-05
  4.750353e-02    7.174054e-05
  4.780246e-02    7.051900e-05
  4.810139e-02    6.938187e-05
  4.840032e-02    6.789025e-05
  4.869925e-02    6.814780e-05
  4.899818e-02    7.017863e-05
  4.929711e-02    7.083542e-05
  4.959604e-02    7.089823e-05
  4.989497e-02    6.771523e-05
  5.019390e-02    6.370423e-05
  5.049283e-02    6.774458e-05
  5.079176e-02    7.068522e-05
  5.109069e-02    6.997150e-05
  5.138962e-02    7.001217e-05
  5.168855e-02    7.465996e-05
  5.198748e-02    7.753093e-05
  5.228642e-02    7.289153e-05
  5.258535e-02    6.876195e-05
  5.288428e-02    6.751345e-05
  5.318321e-02    6.753233e-05
  5.348214e-02    6.722543e-05
  5.378107e-02    6.840518e-05
  5.408000e-02    6.974913e-05
  5.437893e-02    6.879373e-05
  5.467786e-02    6.784861e-05
  5.497679e-02    6.921535e-05
  5.527572e-02    6.826250e-05
  5.557465e-02    6.744821e-05
  5.587358e-02    6.848467e-05
  5.617251e-02    6.723588e-05
  5.647144e-02    6.952364e-05
  5.677037e-02    6.869745e-05
  5.706930e-02    6.978848e-05
  5.736823e-02    6.733819e-05
  5.766716e-02    6.741918e-05
  5.796609e-02    7.134011e-05
  5.826502e-02    7.174424e-05
  5.856395e-02    7.054346e-05
  5.886288e-02    6.770110e-05
  5.916181e-02    6.980820e-05
  5.946074e-02    7.154658e-05
  5.975967e-02    7.091722e-05
  6.005861e-02    7.030096e-05
  6.035754e-02    6.984902e-05
  6.065647e-02    7.138173e-05
  6.095540e-02    7.228716e-05
  6.125433e-02    7.092840e-05
  6.155326e-02    7.220901e-05
  6.185219e-02    6.974852e-05
  6.215112e-02    7.103537e-05
  6.245005e-02    7.254629e-05
  6.274898e-02    7.245285e-05
  6.304791e-02    7.102518e-05
  6.334684e-02    7.201381e-05
  6.364577e-02    7.163467e-05
  6.394470e-02    7.059799e-05
  6.424363e-02    7.207557e-05
  6.454256e-02    7.129927e-05
  6.484149e-02    7.118671e-05
  6.514042e-02    7.139068e-05
  6.543935e-02    7.261187e-05
  6.573828e-02    7.183948e-05
  6.603721e-02    7.037522e-05
  6.633614e-02    7.023504e-05
  6.663507e-02    7.153235e-05
  6.693400e-02    7.116643e-05
  6.723293e-02    7.227455e-05
  6.753186e-02    7.327209e-05
  6.783080e-02    7.139652e-05
  6.812973e-02    7.212535e-05
  6.842866e-02    7.437383e-05
  6.872759e-02    7.177427e-05
  6.902652e-02    6.974926e-05
  6.932545e-02    7.083414e-05
  6.962438e-02    7.263550e-05
  6.992331e-02    7.181405e-05
  7.022224e-02    7.101974e-05
  7.052117e-02    7.044336e-05
  7.082010e-02    7.143074e-05
  7.111903e-02    7.151845e-05
  7.141796e-02    7.177950e-05
  7.171689e-02    7.113622e-05
  7.201582e-02    7.211140e-05
  7.231475e-02    7.398145e-05
  7.261368e-02    7.339167e-05
  7.291261e-02    7.116108e-05
  7.321154e-02    7.199308e-05
  7.351047e-02    7.409802e-05
  7.380940e-02    7.389384e-05
  7.410833e-02    7.076851e-05
  7.440726e-02    7.020627e-05
  7.470619e-02    7.210320e-05
  7.500512e-02    7.422567e-05
  7.530405e-02    7.549175e-05
  7.560299e-02    7.447413e-05
  7.590192e-02    7.428021e-05
  7.620085e-02    7.531051e-05
  7.649978e-02    7.382508e-05
  7.679871e-02    7.378637e-05
  7.709764e-02    7.357013e-05
  7.739657e-02    7.272533e-05
  7.769550e-02    7.249502e-05
  7.799443e-02    7.366452e-05
  7.829336e-02    7.389750e-05
  7.859229e-02    7.349806e-05
  7.889122e-02    7.427475e-05
  7.919015e-02    7.212033e-05
  7.948908e-02    7.007335e-05
  7.978801e-02    7.137995e-05
  8.008694e-02    7.339111e-05
  8.038587e-02    6.972356e-05
  8.068480e-02    7.048727e-05
  8.098373e-02    7.200670e-05
  8.128266e-02    7.316045e-05
  8.158159e-02    7.181220e-05
  8.188052e-02    7.182876e-05
  8.217945e-02    7.109282e-05
  8.247838e-02    6.954182e-05
  8.277731e-02    7.156812e-05
  8.307624e-02    7.072172e-05
  8.337518e-02    7.030181e-05
  8.367411e-02    7.001214e-05
  8.397304e-02    6.998066e-05
  8.427197e-02    7.170325e-05
  8.457090e-02    7.105646e-05
  8.486983e-02    7.203201e-05
  8.516876e-02    7.171355e-05
  8.546769e-02    7.164896e-05
  8.576662e-02    7.124327e-05
  8.606555e-02    7.092534e-05
  8.636448e-02    6.948005e-05
  8.666341e-02    6.819726e-05
  8.696234e-02    6.901013e-05
  8.726127e-02    7.124355e-05
  8.756020e-02    7.234327e-05
  8.785913e-02    7.159598e-05
  8.815806e-02    7.019836e-05
  8.845699e-02    6.791512e-05
  8.875592e-02    6.868295e-05
  8.905485e-02    6.995914e-05
  8.935378e-02    6.818782e-05
  8.965271e-02    6.877055e-05
  8.995164e-02    6.880517e-05
  9.025057e-02    6.716538e-05
  9.054950e-02    6.714992e-05
  9.084843e-02    6.885586e-05
  9.114737e-02    6.708129e-05
  9.144630e-02    6.895894e-05
  9.174523e-02    6.977395e-05
  9.204416e-02    6.685514e-05
  9.234309e-02    6.726167e-05
  9.264202e-02    6.865701e-05
  9.294095e-02    6.922679e-05
  9.323988e-02    6.684200e-05
  9.353881e-02    6.669530e-05
  9.383774e-02    6.778861e-05
  9.413667e-02    6.655050e-05
  9.443560e-02    6.807232e-05
  9.473453e-02    6.761745e-05
  9.503346e-02    6.670519e-05
  9.533239e-02    6.635132e-05
  9.563132e-02    6.716471e-05
  9.593025e-02    6.624611e-05
  9.622918e-02    6.763911e-05
  9.652811e-02    6.821028e-05
  9.682704e-02    6.839969e-05
  9.712597e-02    6.816282e-05
  9.742490e-02    6.610022e-05
  9.772383e-02    6.562973e-05
  9.802276e-02    6.652227e-05
  9.832169e-02    6.599117e-05
  9.862062e-02    6.742570e-05
  9.891956e-02    6.714973e-05
  9.921849e-02    6.640653e-05
  9.951742e-02    6.683319e-05
  9.981635e-02    6.511190e-05
  1.001153e-01    6.208719e-05
  1.004142e-01    6.274926e-05
  1.007131e-01    6.229335e-05
  1.010121e-01    6.526532e-05
  1.013110e-01    6.503841e-05
  1.016099e-01    6.349386e-05
  1.019089e-01    6.394046e-05
  1.022078e-01    6.287988e-05
  1.025067e-01    6.325859e-05
  1.028057e-01    6.332671e-05
  1.031046e-01    6.216702e-05
  1.034035e-01    6.322234e-05
  1.037024e-01    6.268297e-05
  1.040014e-01    6.314625e-05
  1.043003e-01    6.231383e-05
  1.045992e-01    6.303434e-05
  1.048982e-01    6.438611e-05
  1.051971e-01    6.335998e-05
  1.054960e-01    6.182474e-05
  1.057950e-01    6.202450e-05
  1.060939e-01    6.124387e-05
  1.063928e-01    6.359426e-05
  1.066917e-01    6.230288e-05
  1.069907e-01    6.049485e-05
  1.072896e-01    6.145234e-05
  1.075885e-01    6.176596e-05
  1.078875e-01    6.369164e-05
  1.081864e-01    6.176947e-05
  1.084853e-01    6.028862e-05
  1.087843e-01    6.123558e-05
  1.090832e-01    6.319643e-05
  1.093821e-01    6.239103e-05
  1.096810e-01    6.223964e-05
  1.099800e-01    6.035671e-05
  1.102789e-01    6.009690e-05
  1.105778e-01    6.143625e-05
  1.108768e-01    5.966864e-05
  1.111757e-01    6.010102e-05
  1.114746e-01    5.881631e-05
  1.117736e-01    5.982079e-05
  1.120725e-01    5.927333e-05
  1.123714e-01    5.971116e-05
  1.126704e-01    5.988076e-05
  1.129693e-01    6.007549e-05
  1.132682e-01    6.057464e-05
  1.135671e-01    5.978034e-05
  1.138661e-01    6.162155e-05
  1.141650e-01    6.457722e-05
  1.144639e-01    5.883853e-05
  1.147629e-01    5.728857e-05
  1.150618e-01    5.959764e-05
  1.153607e-01    5.921652e-05
  1.156597e-01    5.610847e-05
  1.159586e-01    5.740496e-05
  1.162575e-01    5.920543e-05
  1.165564e-01    5.823759e-05
  1.168554e-01    5.569961e-05
  1.171543e-01    5.628032e-05
  1.174532e-01    5.987228e-05
  1.177522e-01    6.341347e-05
  1.180511e-01    6.752625e-05
  1.183500e-01    6.153293e-05
  1.186490e-01    5.475329e-05
  1.189479e-01    5.702301e-05
  1.192468e-01    6.272290e-05
  1.195458e-01    5.849463e-05
  1.198447e-01    5.779500e-05
  1.201436e-01    5.962485e-05
  1.204425e-01    6.991271e-05
  1.207415e-01    7.381848e-05
  1.210404e-01    4.454572e-05
  1.213393e-01    0.000000e+00
  1.216383e-01    0.000000e+00
  1.219372e-01    0.000000e+00
  1.222361e-01    0.000000e+00
  1.225351e-01    0.000000e+00
  1.228340e-01    0.000000e+00
  1.231329e-01    0.000000e+00
  1.234318e-01    0.000000e+00
  1.237308e-01    0.000000e+00
  1.240297e-01    0.000000e+00
  1.243286e-01    0.000000e+00
  1.246276e-01    0.000000e+00
  1.249265e-01    0.000000e+00
  1.252254e-01    0.000000e+00
  1.255244e-01    0.000000e+00
  1.258233e-01    0.000000e+00
  1.261222e-01    0.000000e+00
  1.264212e-01    0.000000e+00
  1.267201e-01    0.000000e+00
  1.270190e-01    0.000000e+00
  1.273179e-01    0.000000e+00
  1.276169e-01    0.000000e+00
  1.279158e-01    0.000000e+00
  1.282147e-01    0.000000e+00
  1.285137e-01    0.000000e+00
  1.288126e-01    0.000000e+00
  1.291115e-01    0.000000e+00
  1.294105e-01    0.000000e+00
  1.297094e-01    0.000000e+00
  1.300083e-01    0.000000e+00
  1.303072e-01    0.000000e+00
  1.306062e-01    0.000000e+00
  1.309051e-01    0.000000e+00
  1.312040e-01    0.000000e+00
  1.315030e-01    0.000000e+00
  1.318019e-01    0.000000e+00
  1.321008e-01    0.000000e+00
  1.323998e-01    0.000000e+00
  1.326987e-01    0.000000e+00
  1.329976e-01    0.000000e+00
  1.332965e-01    0.000000e+00
  1.335955e-01    0.000000e+00
  1.338944e-01    0.000000e+00
  1.341933e-01    0.000000e+00
  1.344923e-01    0.000000e+00
  1.347912e-01    0.000000e+00
  1.350901e-01    0.000000e+00
  1.353891e-01    0.000000e+00
  1.356880e-01    0.000000e+00
  1.359869e-01    0.000000e+00
  1.362859e-01    0.000000e+00
  1.365848e-01    0.000000e+00
  1.368837e-01    0.000000e+00
  1.371826e-01    0.000000e+00
  1.374816e-01    0.000000e+00
  1.377805e-01    0.000000e+00
  1.380794e-01    0.000000e+00
  1.383784e-01    0.000000e+00
  1.386773e-01    0.000000e+00
  1.389762e-01    0.000000e+00
  1.392752e-01    0.000000e+00
  1.395741e-01    0.000000e+00
  1.398730e-01    0.000000e+00
  1.401719e-01    0.000000e+00
  1.404709e-01    0.000000e+00
  1.407698e-01    0.000000e+00
  1.410687e-01    0.000000e+00
  1.413677e-01    0.000000e+00
  1.416666e-01    0.000000e+00
  1.419655e-01    0.000000e+00
  1.422645e-01    0.000000e+00
  1.425634e-01    0.000000e+00
  1.428623e-01    0.000000e+00
  1.431613e-01    0.000000e+00
  1.434602e-01    0.000000e+00
  1.437591e-01    0.000000e+00
  1.440580e-01    0.000000e+00
  1.443570e-01    0.000000e+00
  1.446559e-01    0.000000e+00
  1.449548e-01    0.000000e+00
  1.452538e-01    0.000000e+00
  1.455527e-01    0.000000e+00
  1.458516e-01    0.000000e+00
  1.461506e-01    0.000000e+00
  1.464495e-01    0.000000e+00
  1.467484e-01    0.000000e+00
  1.470473e-01    0.000000e+00
  1.473463e-01    0.000000e+00
  1.476452e-01    0.000000e+00
  1.479441e-01    0.000000e+00
  1.482431e-01    0.000000e+00
  1.485420e-01    0.000000e+00
  1.488409e-01    0.000000e+00
  1.491399e-01    0.000000e+00
  1.494388e-01    0.000000e+00
  1.497377e-01    0.000000e+00
  1.500367e-01    0.000000e+00
  1.503356e-01    0.000000e+00
  1.506345e-01    0.000000e+00
  1.509334e-01    0.000000e+00
  1.512324e-01    0.000000e+00
  1.515313e-01    0.000000e+00
  1.518302e-01    0.000000e+00
  1.521292e-01    0.000000e+00
  1.524281e-01    0.000000e+00
  1.527270e-01    0.000000e+00
  1.530260e-01    0.000000e+00
  1.533249e-01    0.000000e+00
  1.536238e-01    0.000000e+00
