# == pyFAI calibration ==
# Distance Sample to Detector: 2.266 m
# PONI: 5.659e-02, 4.293e-02 m
# Rotations: 0.000000 0.000000 0.000000 rad
# 
# == Fit2d calibration ==
# Distance Sample-beamCenter: 2266.000 mm
# Center: x=249.594, y=329.012 pix
# Tilt: 0.000 deg  TiltPlanRot: 0.000 deg
# 
# Detector Pilatus 300k	 PixelSize= 1.720e-04, 1.720e-04 m
#    Detector has a mask: True 
#    Detector has a dark current: False 
#    detector has a flat field: False 
# 
# Wavelength: 1.27818e-10 m
# Mask applied: user provided
# Dark current applied: False
# Flat field applied: False
# Polarization factor: None
# Normalization factor: 23865.11
# --> MT-latex_CL3252_TiO2_R706_phiT_0.090_PVC_0.600_DOP_0.010_1_r1d.csv
#        q_A^-1             I 
  4.457554e-03    4.522856e-02
  4.756484e-03    3.396070e-02
  5.055415e-03    2.322616e-02
  5.354345e-03    1.673072e-02
  5.653276e-03    1.316430e-02
  5.952206e-03    2.110594e-02
  6.251136e-03    1.902739e-02
  6.550067e-03    1.653869e-02
  6.848997e-03    1.403930e-02
  7.147927e-03    1.189630e-02
  7.446858e-03    1.012319e-02
  7.745788e-03    8.652357e-03
  8.044719e-03    7.378348e-03
  8.343649e-03    6.408493e-03
  8.642579e-03    5.623688e-03
  8.941510e-03    4.958646e-03
  9.240440e-03    4.395544e-03
  9.539371e-03    3.851041e-03
  9.838301e-03    3.398865e-03
  1.013723e-02    3.078837e-03
  1.043616e-02    2.733089e-03
  1.073509e-02    2.430740e-03
  1.103402e-02    2.196626e-03
  1.133295e-02    1.997487e-03
  1.163188e-02    1.830814e-03
  1.193081e-02    1.680100e-03
  1.222974e-02    1.542663e-03
  1.252867e-02    1.412036e-03
  1.282760e-02    1.298349e-03
  1.312654e-02    1.185355e-03
  1.342547e-02    1.091795e-03
  1.372440e-02    1.040900e-03
  1.402333e-02    9.512025e-04
  1.432226e-02    8.724212e-04
  1.462119e-02    8.084995e-04
  1.492012e-02    7.611748e-04
  1.521905e-02    7.179756e-04
  1.551798e-02    6.657800e-04
  1.581691e-02    6.146441e-04
  1.611584e-02    5.743719e-04
  1.641477e-02    5.540093e-04
  1.671370e-02    5.200448e-04
  1.701263e-02    4.954967e-04
  1.731156e-02    4.674950e-04
  1.761049e-02    4.513373e-04
  1.790942e-02    4.251853e-04
  1.820835e-02    4.038248e-04
  1.850728e-02    3.976698e-04
  1.880621e-02    3.733807e-04
  1.910514e-02    3.501498e-04
  1.940407e-02    3.419788e-04
  1.970300e-02    3.311914e-04
  2.000193e-02    3.166932e-04
  2.030086e-02    3.029150e-04
  2.059979e-02    2.905768e-04
  2.089873e-02    2.799786e-04
  2.119766e-02    2.719045e-04
  2.149659e-02    2.642768e-04
  2.179552e-02    2.612076e-04
  2.209445e-02    2.549616e-04
  2.239338e-02    2.433213e-04
  2.269231e-02    2.301659e-04
  2.299124e-02    2.223063e-04
  2.329017e-02    2.189145e-04
  2.358910e-02    2.136250e-04
  2.388803e-02    2.140135e-04
  2.418696e-02    2.013088e-04
  2.448589e-02    1.943354e-04
  2.478482e-02    1.910847e-04
  2.508375e-02    1.854710e-04
  2.538268e-02    1.838835e-04
  2.568161e-02    1.800044e-04
  2.598054e-02    1.785784e-04
  2.627947e-02    1.759570e-04
  2.657840e-02    1.739186e-04
  2.687733e-02    1.715525e-04
  2.717626e-02    1.638211e-04
  2.747519e-02    1.629837e-04
  2.777412e-02    1.635215e-04
  2.807305e-02    1.592222e-04
  2.837198e-02    1.581877e-04
  2.867092e-02    1.542666e-04
  2.896985e-02    1.539169e-04
  2.926878e-02    1.550232e-04
  2.956771e-02    1.473305e-04
  2.986664e-02    1.440692e-04
  3.016557e-02    1.460898e-04
  3.046450e-02    1.464032e-04
  3.076343e-02    1.449113e-04
  3.106236e-02    1.412612e-04
  3.136129e-02    1.404758e-04
  3.166022e-02    1.403337e-04
  3.195915e-02    1.405989e-04
  3.225808e-02    1.406338e-04
  3.255701e-02    1.378601e-04
  3.285594e-02    1.334845e-04
  3.315487e-02    1.297348e-04
  3.345380e-02    1.284941e-04
  3.375273e-02    1.275756e-04
  3.405166e-02    1.262348e-04
  3.435059e-02    1.251389e-04
  3.464952e-02    1.289017e-04
  3.494845e-02    1.273582e-04
  3.524738e-02    1.211840e-04
  3.554631e-02    1.204881e-04
  3.584524e-02    1.202176e-04
  3.614417e-02    1.209489e-04
  3.644310e-02    1.213168e-04
  3.674204e-02    1.169977e-04
  3.704097e-02    1.160450e-04
  3.733990e-02    1.148324e-04
  3.763883e-02    1.174208e-04
  3.793776e-02    1.153508e-04
  3.823669e-02    1.097232e-04
  3.853562e-02    1.093662e-04
  3.883455e-02    1.113588e-04
  3.913348e-02    1.146152e-04
  3.943241e-02    1.081859e-04
  3.973134e-02    1.060803e-04
  4.003027e-02    1.073012e-04
  4.032920e-02    1.093000e-04
  4.062813e-02    1.102013e-04
  4.092706e-02    1.113811e-04
  4.122599e-02    1.119084e-04
  4.152492e-02    1.085159e-04
  4.182385e-02    1.057665e-04
  4.212278e-02    1.059376e-04
  4.242171e-02    1.103122e-04
  4.272064e-02    1.086820e-04
  4.301957e-02    1.038916e-04
  4.331850e-02    1.057076e-04
  4.361743e-02    1.057813e-04
  4.391636e-02    1.061554e-04
  4.421529e-02    1.076614e-04
  4.451423e-02    1.051710e-04
  4.481316e-02    1.051486e-04
  4.511209e-02    1.065192e-04
  4.541102e-02    1.060158e-04
  4.570995e-02    1.075088e-04
  4.600888e-02    1.075874e-04
  4.630781e-02    1.029282e-04
  4.660674e-02    9.955987e-05
  4.690567e-02    1.017676e-04
  4.720460e-02    1.060530e-04
  4.750353e-02    1.051711e-04
  4.780246e-02    1.055242e-04
  4.810139e-02    1.057308e-04
  4.840032e-02    1.027755e-04
  4.869925e-02    1.010276e-04
  4.899818e-02    1.020410e-04
  4.929711e-02    1.027184e-04
  4.959604e-02    1.022730e-04
  4.989497e-02    9.920933e-05
  5.019390e-02    9.741483e-05
  5.049283e-02    1.019609e-04
  5.079176e-02    1.018084e-04
  5.109069e-02    9.995210e-05
  5.138962e-02    1.037587e-04
  5.168855e-02    1.048913e-04
  5.198748e-02    1.074158e-04
  5.228642e-02    1.085363e-04
  5.258535e-02    1.017647e-04
  5.288428e-02    1.020979e-04
  5.318321e-02    1.031688e-04
  5.348214e-02    1.030470e-04
  5.378107e-02    1.025788e-04
  5.408000e-02    1.014800e-04
  5.437893e-02    1.008995e-04
  5.467786e-02    1.000744e-04
  5.497679e-02    1.037005e-04
  5.527572e-02    1.048992e-04
  5.557465e-02    1.033639e-04
  5.587358e-02    1.047304e-04
  5.617251e-02    1.054510e-04
  5.647144e-02    1.041379e-04
  5.677037e-02    1.042679e-04
  5.706930e-02    1.025268e-04
  5.736823e-02    1.007704e-04
  5.766716e-02    1.012294e-04
  5.796609e-02    1.020249e-04
  5.826502e-02    1.023633e-04
  5.856395e-02    1.030953e-04
  5.886288e-02    1.036232e-04
  5.916181e-02    1.020024e-04
  5.946074e-02    1.017510e-04
  5.975967e-02    1.032487e-04
  6.005861e-02    1.044528e-04
  6.035754e-02    1.061862e-04
  6.065647e-02    1.049416e-04
  6.095540e-02    1.050280e-04
  6.125433e-02    1.060493e-04
  6.155326e-02    1.058276e-04
  6.185219e-02    1.040079e-04
  6.215112e-02    1.050863e-04
  6.245005e-02    1.079591e-04
  6.274898e-02    1.066413e-04
  6.304791e-02    1.056697e-04
  6.334684e-02    1.055226e-04
  6.364577e-02    1.038772e-04
  6.394470e-02    1.044182e-04
  6.424363e-02    1.052244e-04
  6.454256e-02    1.060186e-04
  6.484149e-02    1.039026e-04
  6.514042e-02    1.029956e-04
  6.543935e-02    1.069893e-04
  6.573828e-02    1.081704e-04
  6.603721e-02    1.064065e-04
  6.633614e-02    1.058965e-04
  6.663507e-02    1.062556e-04
  6.693400e-02    1.050679e-04
  6.723293e-02    1.044178e-04
  6.753186e-02    1.064462e-04
  6.783080e-02    1.069325e-04
  6.812973e-02    1.069145e-04
  6.842866e-02    1.073527e-04
  6.872759e-02    1.075445e-04
  6.902652e-02    1.090096e-04
  6.932545e-02    1.095386e-04
  6.962438e-02    1.066518e-04
  6.992331e-02    1.068825e-04
  7.022224e-02    1.094419e-04
  7.052117e-02    1.104876e-04
  7.082010e-02    1.096508e-04
  7.111903e-02    1.087196e-04
  7.141796e-02    1.082847e-04
  7.171689e-02    1.108039e-04
  7.201582e-02    1.086669e-04
  7.231475e-02    1.073092e-04
  7.261368e-02    1.070522e-04
  7.291261e-02    1.090832e-04
  7.321154e-02    1.121290e-04
  7.351047e-02    1.126797e-04
  7.380940e-02    1.107138e-04
  7.410833e-02    1.102544e-04
  7.440726e-02    1.097391e-04
  7.470619e-02    1.077903e-04
  7.500512e-02    1.092106e-04
  7.530405e-02    1.086035e-04
  7.560299e-02    1.091148e-04
  7.590192e-02    1.092720e-04
  7.620085e-02    1.083611e-04
  7.649978e-02    1.106334e-04
  7.679871e-02    1.069660e-04
  7.709764e-02    1.072449e-04
  7.739657e-02    1.068586e-04
  7.769550e-02    1.065776e-04
  7.799443e-02    1.074038e-04
  7.829336e-02    1.086959e-04
  7.859229e-02    1.092647e-04
  7.889122e-02    1.089141e-04
  7.919015e-02    1.101763e-04
  7.948908e-02    1.104517e-04
  7.978801e-02    1.073509e-04
  8.008694e-02    1.065179e-04
  8.038587e-02    1.091325e-04
  8.068480e-02    1.087909e-04
  8.098373e-02    1.070693e-04
  8.128266e-02    1.055079e-04
  8.158159e-02    1.050830e-04
  8.188052e-02    1.059524e-04
  8.217945e-02    1.058859e-04
  8.247838e-02    1.065059e-04
  8.277731e-02    1.065391e-04
  8.307624e-02    1.036335e-04
  8.337518e-02    1.045130e-04
  8.367411e-02    1.043290e-04
  8.397304e-02    1.055814e-04
  8.427197e-02    1.055291e-04
  8.457090e-02    1.048818e-04
  8.486983e-02    1.048954e-04
  8.516876e-02    1.066052e-04
  8.546769e-02    1.067470e-04
  8.576662e-02    1.037422e-04
  8.606555e-02    1.038147e-04
  8.636448e-02    1.052717e-04
  8.666341e-02    1.028257e-04
  8.696234e-02    1.005876e-04
  8.726127e-02    1.040866e-04
  8.756020e-02    1.050966e-04
  8.785913e-02    1.041088e-04
  8.815806e-02    1.059066e-04
  8.845699e-02    1.049777e-04
  8.875592e-02    1.040686e-04
  8.905485e-02    1.040659e-04
  8.935378e-02    1.025946e-04
  8.965271e-02    1.020565e-04
  8.995164e-02    1.021567e-04
  9.025057e-02    9.968571e-05
  9.054950e-02    9.986392e-05
  9.084843e-02    1.000539e-04
  9.114737e-02    1.018186e-04
  9.144630e-02    1.026794e-04
  9.174523e-02    9.906453e-05
  9.204416e-02    9.917116e-05
  9.234309e-02    1.023190e-04
  9.264202e-02    1.007519e-04
  9.294095e-02    1.009774e-04
  9.323988e-02    1.011008e-04
  9.353881e-02    1.009078e-04
  9.383774e-02    1.009059e-04
  9.413667e-02    9.874694e-05
  9.443560e-02    9.811687e-05
  9.473453e-02    9.889324e-05
  9.503346e-02    9.986276e-05
  9.533239e-02    9.861271e-05
  9.563132e-02    9.981856e-05
  9.593025e-02    9.921842e-05
  9.622918e-02    9.883038e-05
  9.652811e-02    9.783349e-05
  9.682704e-02    9.769019e-05
  9.712597e-02    9.753283e-05
  9.742490e-02    9.715678e-05
  9.772383e-02    9.777715e-05
  9.802276e-02    9.713437e-05
  9.832169e-02    9.655087e-05
  9.862062e-02    9.522909e-05
  9.891956e-02    9.620418e-05
  9.921849e-02    9.580802e-05
  9.951742e-02    9.447241e-05
  9.981635e-02    9.552913e-05
  1.001153e-01    9.607162e-05
  1.004142e-01    9.587265e-05
  1.007131e-01    9.502551e-05
  1.010121e-01    9.591549e-05
  1.013110e-01    9.524733e-05
  1.016099e-01    9.305919e-05
  1.019089e-01    9.037738e-05
  1.022078e-01    9.272229e-05
  1.025067e-01    9.366150e-05
  1.028057e-01    9.393167e-05
  1.031046e-01    9.102349e-05
  1.034035e-01    9.410580e-05
  1.037024e-01    9.516739e-05
  1.040014e-01    9.234116e-05
  1.043003e-01    9.329859e-05
  1.045992e-01    9.393673e-05
  1.048982e-01    9.457782e-05
  1.051971e-01    9.365529e-05
  1.054960e-01    9.070697e-05
  1.057950e-01    9.152484e-05
  1.060939e-01    9.166437e-05
  1.063928e-01    9.065236e-05
  1.066917e-01    9.094048e-05
  1.069907e-01    9.232785e-05
  1.072896e-01    9.194939e-05
  1.075885e-01    9.234618e-05
  1.078875e-01    9.466567e-05
  1.081864e-01    9.363356e-05
  1.084853e-01    9.171664e-05
  1.087843e-01    9.319786e-05
  1.090832e-01    9.331530e-05
  1.093821e-01    9.290423e-05
  1.096810e-01    9.429597e-05
  1.099800e-01    9.222230e-05
  1.102789e-01    8.770359e-05
  1.105778e-01    8.767361e-05
  1.108768e-01    8.813773e-05
  1.111757e-01    8.805539e-05
  1.114746e-01    8.819431e-05
  1.117736e-01    8.892811e-05
  1.120725e-01    9.107291e-05
  1.123714e-01    9.218424e-05
  1.126704e-01    9.247188e-05
  1.129693e-01    9.186770e-05
  1.132682e-01    9.257932e-05
  1.135671e-01    9.038014e-05
  1.138661e-01    8.862928e-05
  1.141650e-01    8.807846e-05
  1.144639e-01    8.607503e-05
  1.147629e-01    8.778097e-05
  1.150618e-01    8.987293e-05
  1.153607e-01    8.845334e-05
  1.156597e-01    8.714661e-05
  1.159586e-01    8.623119e-05
  1.162575e-01    8.632774e-05
  1.165564e-01    8.502084e-05
  1.168554e-01    8.793799e-05
  1.171543e-01    9.047423e-05
  1.174532e-01    8.758787e-05
  1.177522e-01    8.536567e-05
  1.180511e-01    8.643934e-05
  1.183500e-01    8.485720e-05
  1.186490e-01    8.335886e-05
  1.189479e-01    8.698535e-05
  1.192468e-01    8.406329e-05
  1.195458e-01    7.472482e-05
  1.198447e-01    7.741979e-05
  1.201436e-01    7.728922e-05
  1.204425e-01    6.836628e-05
  1.207415e-01    9.275270e-05
  1.210404e-01    4.194013e-05
  1.213393e-01    0.000000e+00
  1.216383e-01    0.000000e+00
  1.219372e-01    0.000000e+00
  1.222361e-01    0.000000e+00
  1.225351e-01    0.000000e+00
  1.228340e-01    0.000000e+00
  1.231329e-01    0.000000e+00
  1.234318e-01    0.000000e+00
  1.237308e-01    0.000000e+00
  1.240297e-01    0.000000e+00
  1.243286e-01    0.000000e+00
  1.246276e-01    0.000000e+00
  1.249265e-01    0.000000e+00
  1.252254e-01    0.000000e+00
  1.255244e-01    0.000000e+00
  1.258233e-01    0.000000e+00
  1.261222e-01    0.000000e+00
  1.264212e-01    0.000000e+00
  1.267201e-01    0.000000e+00
  1.270190e-01    0.000000e+00
  1.273179e-01    0.000000e+00
  1.276169e-01    0.000000e+00
  1.279158e-01    0.000000e+00
  1.282147e-01    0.000000e+00
  1.285137e-01    0.000000e+00
  1.288126e-01    0.000000e+00
  1.291115e-01    0.000000e+00
  1.294105e-01    0.000000e+00
  1.297094e-01    0.000000e+00
  1.300083e-01    0.000000e+00
  1.303072e-01    0.000000e+00
  1.306062e-01    0.000000e+00
  1.309051e-01    0.000000e+00
  1.312040e-01    0.000000e+00
  1.315030e-01    0.000000e+00
  1.318019e-01    0.000000e+00
  1.321008e-01    0.000000e+00
  1.323998e-01    0.000000e+00
  1.326987e-01    0.000000e+00
  1.329976e-01    0.000000e+00
  1.332965e-01    0.000000e+00
  1.335955e-01    0.000000e+00
  1.338944e-01    0.000000e+00
  1.341933e-01    0.000000e+00
  1.344923e-01    0.000000e+00
  1.347912e-01    0.000000e+00
  1.350901e-01    0.000000e+00
  1.353891e-01    0.000000e+00
  1.356880e-01    0.000000e+00
  1.359869e-01    0.000000e+00
  1.362859e-01    0.000000e+00
  1.365848e-01    0.000000e+00
  1.368837e-01    0.000000e+00
  1.371826e-01    0.000000e+00
  1.374816e-01    0.000000e+00
  1.377805e-01    0.000000e+00
  1.380794e-01    0.000000e+00
  1.383784e-01    0.000000e+00
  1.386773e-01    0.000000e+00
  1.389762e-01    0.000000e+00
  1.392752e-01    0.000000e+00
  1.395741e-01    0.000000e+00
  1.398730e-01    0.000000e+00
  1.401719e-01    0.000000e+00
  1.404709e-01    0.000000e+00
  1.407698e-01    0.000000e+00
  1.410687e-01    0.000000e+00
  1.413677e-01    0.000000e+00
  1.416666e-01    0.000000e+00
  1.419655e-01    0.000000e+00
  1.422645e-01    0.000000e+00
  1.425634e-01    0.000000e+00
  1.428623e-01    0.000000e+00
  1.431613e-01    0.000000e+00
  1.434602e-01    0.000000e+00
  1.437591e-01    0.000000e+00
  1.440580e-01    0.000000e+00
  1.443570e-01    0.000000e+00
  1.446559e-01    0.000000e+00
  1.449548e-01    0.000000e+00
  1.452538e-01    0.000000e+00
  1.455527e-01    0.000000e+00
  1.458516e-01    0.000000e+00
  1.461506e-01    0.000000e+00
  1.464495e-01    0.000000e+00
  1.467484e-01    0.000000e+00
  1.470473e-01    0.000000e+00
  1.473463e-01    0.000000e+00
  1.476452e-01    0.000000e+00
  1.479441e-01    0.000000e+00
  1.482431e-01    0.000000e+00
  1.485420e-01    0.000000e+00
  1.488409e-01    0.000000e+00
  1.491399e-01    0.000000e+00
  1.494388e-01    0.000000e+00
  1.497377e-01    0.000000e+00
  1.500367e-01    0.000000e+00
  1.503356e-01    0.000000e+00
  1.506345e-01    0.000000e+00
  1.509334e-01    0.000000e+00
  1.512324e-01    0.000000e+00
  1.515313e-01    0.000000e+00
  1.518302e-01    0.000000e+00
  1.521292e-01    0.000000e+00
  1.524281e-01    0.000000e+00
  1.527270e-01    0.000000e+00
  1.530260e-01    0.000000e+00
  1.533249e-01    0.000000e+00
  1.536238e-01    0.000000e+00
