# == pyFAI calibration ==
# Distance Sample to Detector: 2.266 m
# PONI: 5.659e-02, 4.293e-02 m
# Rotations: 0.000000 0.000000 0.000000 rad
# 
# == Fit2d calibration ==
# Distance Sample-beamCenter: 2266.000 mm
# Center: x=249.594, y=329.012 pix
# Tilt: 0.000 deg  TiltPlanRot: 0.000 deg
# 
# Detector Pilatus 300k	 PixelSize= 1.720e-04, 1.720e-04 m
#    Detector has a mask: True 
#    Detector has a dark current: False 
#    detector has a flat field: False 
# 
# Wavelength: 1.27818e-10 m
# Mask applied: user provided
# Dark current applied: False
# Flat field applied: False
# Polarization factor: None
# Normalization factor: 10716.35
# --> MT-latex_CL3252_TiO2_R706_phiT_0.090_PVC_0.200_DOP_0.005_0_r1d.csv
#        q_A^-1             I 
  4.457554e-03    2.400270e-01
  4.756484e-03    1.910724e-01
  5.055415e-03    1.404337e-01
  5.354345e-03    1.025878e-01
  5.653276e-03    8.152196e-02
  5.952206e-03    1.317281e-01
  6.251136e-03    1.190963e-01
  6.550067e-03    1.023818e-01
  6.848997e-03    8.674709e-02
  7.147927e-03    7.332034e-02
  7.446858e-03    6.264327e-02
  7.745788e-03    5.362113e-02
  8.044719e-03    4.602255e-02
  8.343649e-03    4.030404e-02
  8.642579e-03    3.525648e-02
  8.941510e-03    3.084844e-02
  9.240440e-03    2.738918e-02
  9.539371e-03    2.440827e-02
  9.838301e-03    2.179407e-02
  1.013723e-02    1.950321e-02
  1.043616e-02    1.755033e-02
  1.073509e-02    1.567258e-02
  1.103402e-02    1.421450e-02
  1.133295e-02    1.297292e-02
  1.163188e-02    1.188065e-02
  1.193081e-02    1.073626e-02
  1.222974e-02    9.701346e-03
  1.252867e-02    8.961955e-03
  1.282760e-02    8.326409e-03
  1.312654e-02    7.687852e-03
  1.342547e-02    7.081716e-03
  1.372440e-02    6.549224e-03
  1.402333e-02    6.062540e-03
  1.432226e-02    5.599119e-03
  1.462119e-02    5.219821e-03
  1.492012e-02    4.978660e-03
  1.521905e-02    4.642917e-03
  1.551798e-02    4.318643e-03
  1.581691e-02    4.038744e-03
  1.611584e-02    3.786630e-03
  1.641477e-02    3.574067e-03
  1.671370e-02    3.373737e-03
  1.701263e-02    3.185134e-03
  1.731156e-02    2.986266e-03
  1.761049e-02    2.856948e-03
  1.790942e-02    2.711796e-03
  1.820835e-02    2.581906e-03
  1.850728e-02    2.467031e-03
  1.880621e-02    2.328582e-03
  1.910514e-02    2.248544e-03
  1.940407e-02    2.137808e-03
  1.970300e-02    2.058312e-03
  2.000193e-02    1.984884e-03
  2.030086e-02    1.900422e-03
  2.059979e-02    1.854441e-03
  2.089873e-02    1.808218e-03
  2.119766e-02    1.710839e-03
  2.149659e-02    1.624962e-03
  2.179552e-02    1.574806e-03
  2.209445e-02    1.541639e-03
  2.239338e-02    1.494753e-03
  2.269231e-02    1.463121e-03
  2.299124e-02    1.437872e-03
  2.329017e-02    1.368215e-03
  2.358910e-02    1.336015e-03
  2.388803e-02    1.301392e-03
  2.418696e-02    1.267077e-03
  2.448589e-02    1.241356e-03
  2.478482e-02    1.222038e-03
  2.508375e-02    1.204772e-03
  2.538268e-02    1.167178e-03
  2.568161e-02    1.147850e-03
  2.598054e-02    1.137182e-03
  2.627947e-02    1.093013e-03
  2.657840e-02    1.080286e-03
  2.687733e-02    1.082965e-03
  2.717626e-02    1.051535e-03
  2.747519e-02    1.037227e-03
  2.777412e-02    1.020924e-03
  2.807305e-02    9.894832e-04
  2.837198e-02    9.603062e-04
  2.867092e-02    9.470857e-04
  2.896985e-02    9.385382e-04
  2.926878e-02    9.311428e-04
  2.956771e-02    9.323881e-04
  2.986664e-02    9.317955e-04
  3.016557e-02    9.079305e-04
  3.046450e-02    8.848110e-04
  3.076343e-02    8.714942e-04
  3.106236e-02    8.841517e-04
  3.136129e-02    8.663047e-04
  3.166022e-02    8.549276e-04
  3.195915e-02    8.466991e-04
  3.225808e-02    8.260597e-04
  3.255701e-02    8.283752e-04
  3.285594e-02    8.262384e-04
  3.315487e-02    8.252868e-04
  3.345380e-02    8.047677e-04
  3.375273e-02    7.822888e-04
  3.405166e-02    7.812308e-04
  3.435059e-02    7.893222e-04
  3.464952e-02    7.825452e-04
  3.494845e-02    7.864896e-04
  3.524738e-02    7.768755e-04
  3.554631e-02    7.526923e-04
  3.584524e-02    7.549198e-04
  3.614417e-02    7.382007e-04
  3.644310e-02    7.292927e-04
  3.674204e-02    7.328983e-04
  3.704097e-02    7.247562e-04
  3.733990e-02    7.133161e-04
  3.763883e-02    7.186577e-04
  3.793776e-02    7.268898e-04
  3.823669e-02    7.254235e-04
  3.853562e-02    7.153623e-04
  3.883455e-02    7.156013e-04
  3.913348e-02    7.064442e-04
  3.943241e-02    6.950399e-04
  3.973134e-02    6.859883e-04
  4.003027e-02    6.840336e-04
  4.032920e-02    6.936069e-04
  4.062813e-02    6.860247e-04
  4.092706e-02    6.708176e-04
  4.122599e-02    6.704988e-04
  4.152492e-02    6.843819e-04
  4.182385e-02    6.787642e-04
  4.212278e-02    6.729157e-04
  4.242171e-02    6.706686e-04
  4.272064e-02    6.679278e-04
  4.301957e-02    6.554411e-04
  4.331850e-02    6.474133e-04
  4.361743e-02    6.508459e-04
  4.391636e-02    6.507469e-04
  4.421529e-02    6.508599e-04
  4.451423e-02    6.630975e-04
  4.481316e-02    6.660502e-04
  4.511209e-02    6.555568e-04
  4.541102e-02    6.499070e-04
  4.570995e-02    6.612142e-04
  4.600888e-02    6.680509e-04
  4.630781e-02    6.496573e-04
  4.660674e-02    6.515517e-04
  4.690567e-02    6.584584e-04
  4.720460e-02    6.599554e-04
  4.750353e-02    6.539339e-04
  4.780246e-02    6.439334e-04
  4.810139e-02    6.543332e-04
  4.840032e-02    6.595779e-04
  4.869925e-02    6.524942e-04
  4.899818e-02    6.554926e-04
  4.929711e-02    6.471460e-04
  4.959604e-02    6.495910e-04
  4.989497e-02    6.513602e-04
  5.019390e-02    6.493967e-04
  5.049283e-02    6.290855e-04
  5.079176e-02    6.324950e-04
  5.109069e-02    6.484853e-04
  5.138962e-02    6.451919e-04
  5.168855e-02    6.565721e-04
  5.198748e-02    6.718874e-04
  5.228642e-02    6.684283e-04
  5.258535e-02    6.470963e-04
  5.288428e-02    6.411672e-04
  5.318321e-02    6.503551e-04
  5.348214e-02    6.477995e-04
  5.378107e-02    6.518456e-04
  5.408000e-02    6.449586e-04
  5.437893e-02    6.466697e-04
  5.467786e-02    6.471698e-04
  5.497679e-02    6.504771e-04
  5.527572e-02    6.506406e-04
  5.557465e-02    6.570023e-04
  5.587358e-02    6.542936e-04
  5.617251e-02    6.516977e-04
  5.647144e-02    6.520887e-04
  5.677037e-02    6.531414e-04
  5.706930e-02    6.546160e-04
  5.736823e-02    6.524846e-04
  5.766716e-02    6.495854e-04
  5.796609e-02    6.518378e-04
  5.826502e-02    6.564126e-04
  5.856395e-02    6.505089e-04
  5.886288e-02    6.594685e-04
  5.916181e-02    6.545707e-04
  5.946074e-02    6.560071e-04
  5.975967e-02    6.587018e-04
  6.005861e-02    6.486901e-04
  6.035754e-02    6.601266e-04
  6.065647e-02    6.719922e-04
  6.095540e-02    6.751331e-04
  6.125433e-02    6.697515e-04
  6.155326e-02    6.669287e-04
  6.185219e-02    6.645899e-04
  6.215112e-02    6.653735e-04
  6.245005e-02    6.672815e-04
  6.274898e-02    6.694429e-04
  6.304791e-02    6.768836e-04
  6.334684e-02    6.777632e-04
  6.364577e-02    6.726895e-04
  6.394470e-02    6.793455e-04
  6.424363e-02    6.774141e-04
  6.454256e-02    6.749590e-04
  6.484149e-02    6.914366e-04
  6.514042e-02    6.917236e-04
  6.543935e-02    6.767245e-04
  6.573828e-02    6.790812e-04
  6.603721e-02    6.890247e-04
  6.633614e-02    6.875474e-04
  6.663507e-02    6.902112e-04
  6.693400e-02    6.859954e-04
  6.723293e-02    6.820347e-04
  6.753186e-02    6.836792e-04
  6.783080e-02    6.863332e-04
  6.812973e-02    6.900193e-04
  6.842866e-02    6.996581e-04
  6.872759e-02    6.997579e-04
  6.902652e-02    6.988812e-04
  6.932545e-02    6.992592e-04
  6.962438e-02    7.001415e-04
  6.992331e-02    6.983512e-04
  7.022224e-02    6.993415e-04
  7.052117e-02    6.989809e-04
  7.082010e-02    6.880747e-04
  7.111903e-02    6.976367e-04
  7.141796e-02    6.896876e-04
  7.171689e-02    6.921954e-04
  7.201582e-02    6.994298e-04
  7.231475e-02    6.979895e-04
  7.261368e-02    6.964137e-04
  7.291261e-02    6.977741e-04
  7.321154e-02    6.937307e-04
  7.351047e-02    7.012282e-04
  7.380940e-02    6.991277e-04
  7.410833e-02    7.000361e-04
  7.440726e-02    7.023836e-04
  7.470619e-02    6.981989e-04
  7.500512e-02    6.980260e-04
  7.530405e-02    6.971320e-04
  7.560299e-02    6.929053e-04
  7.590192e-02    6.891523e-04
  7.620085e-02    6.951944e-04
  7.649978e-02    7.031914e-04
  7.679871e-02    7.122858e-04
  7.709764e-02    7.113830e-04
  7.739657e-02    6.953051e-04
  7.769550e-02    6.933474e-04
  7.799443e-02    6.884210e-04
  7.829336e-02    6.884725e-04
  7.859229e-02    7.030459e-04
  7.889122e-02    6.937741e-04
  7.919015e-02    6.896766e-04
  7.948908e-02    6.895083e-04
  7.978801e-02    6.978825e-04
  8.008694e-02    6.968746e-04
  8.038587e-02    6.888880e-04
  8.068480e-02    6.904762e-04
  8.098373e-02    6.860401e-04
  8.128266e-02    6.895540e-04
  8.158159e-02    6.920291e-04
  8.188052e-02    6.874329e-04
  8.217945e-02    6.916982e-04
  8.247838e-02    6.862493e-04
  8.277731e-02    6.906843e-04
  8.307624e-02    6.836618e-04
  8.337518e-02    6.859608e-04
  8.367411e-02    6.947915e-04
  8.397304e-02    6.831086e-04
  8.427197e-02    6.836759e-04
  8.457090e-02    6.842350e-04
  8.486983e-02    6.825167e-04
  8.516876e-02    6.701677e-04
  8.546769e-02    6.656511e-04
  8.576662e-02    6.636811e-04
  8.606555e-02    6.702847e-04
  8.636448e-02    6.685289e-04
  8.666341e-02    6.684330e-04
  8.696234e-02    6.711763e-04
  8.726127e-02    6.673436e-04
  8.756020e-02    6.711932e-04
  8.785913e-02    6.739958e-04
  8.815806e-02    6.682141e-04
  8.845699e-02    6.673066e-04
  8.875592e-02    6.598944e-04
  8.905485e-02    6.617538e-04
  8.935378e-02    6.690784e-04
  8.965271e-02    6.647928e-04
  8.995164e-02    6.600934e-04
  9.025057e-02    6.558149e-04
  9.054950e-02    6.609515e-04
  9.084843e-02    6.564021e-04
  9.114737e-02    6.471915e-04
  9.144630e-02    6.501174e-04
  9.174523e-02    6.559027e-04
  9.204416e-02    6.622088e-04
  9.234309e-02    6.626149e-04
  9.264202e-02    6.511439e-04
  9.294095e-02    6.513736e-04
  9.323988e-02    6.433562e-04
  9.353881e-02    6.416093e-04
  9.383774e-02    6.431396e-04
  9.413667e-02    6.393634e-04
  9.443560e-02    6.438644e-04
  9.473453e-02    6.443071e-04
  9.503346e-02    6.445906e-04
  9.533239e-02    6.445381e-04
  9.563132e-02    6.388670e-04
  9.593025e-02    6.332998e-04
  9.622918e-02    6.405932e-04
  9.652811e-02    6.470926e-04
  9.682704e-02    6.424380e-04
  9.712597e-02    6.412101e-04
  9.742490e-02    6.420183e-04
  9.772383e-02    6.347704e-04
  9.802276e-02    6.280148e-04
  9.832169e-02    6.316574e-04
  9.862062e-02    6.271133e-04
  9.891956e-02    6.171287e-04
  9.921849e-02    6.212591e-04
  9.951742e-02    6.202952e-04
  9.981635e-02    6.247159e-04
  1.001153e-01    6.179592e-04
  1.004142e-01    6.135828e-04
  1.007131e-01    6.112463e-04
  1.010121e-01    6.189624e-04
  1.013110e-01    6.303500e-04
  1.016099e-01    6.194697e-04
  1.019089e-01    6.114770e-04
  1.022078e-01    6.135130e-04
  1.025067e-01    6.180446e-04
  1.028057e-01    6.165998e-04
  1.031046e-01    6.094168e-04
  1.034035e-01    6.052012e-04
  1.037024e-01    6.067332e-04
  1.040014e-01    6.087169e-04
  1.043003e-01    6.029599e-04
  1.045992e-01    5.953485e-04
  1.048982e-01    5.986568e-04
  1.051971e-01    6.073752e-04
  1.054960e-01    5.990494e-04
  1.057950e-01    5.988685e-04
  1.060939e-01    5.954225e-04
  1.063928e-01    5.877711e-04
  1.066917e-01    5.967087e-04
  1.069907e-01    5.993595e-04
  1.072896e-01    5.962609e-04
  1.075885e-01    5.971619e-04
  1.078875e-01    5.935588e-04
  1.081864e-01    5.930083e-04
  1.084853e-01    5.905961e-04
  1.087843e-01    5.847672e-04
  1.090832e-01    5.834015e-04
  1.093821e-01    5.830897e-04
  1.096810e-01    5.841549e-04
  1.099800e-01    5.795345e-04
  1.102789e-01    5.853458e-04
  1.105778e-01    5.835748e-04
  1.108768e-01    5.843276e-04
  1.111757e-01    5.854415e-04
  1.114746e-01    5.718850e-04
  1.117736e-01    5.723667e-04
  1.120725e-01    5.711373e-04
  1.123714e-01    5.734177e-04
  1.126704e-01    5.630828e-04
  1.129693e-01    5.614964e-04
  1.132682e-01    5.639868e-04
  1.135671e-01    5.594038e-04
  1.138661e-01    5.663604e-04
  1.141650e-01    5.592426e-04
  1.144639e-01    5.504657e-04
  1.147629e-01    5.566918e-04
  1.150618e-01    5.646322e-04
  1.153607e-01    5.549979e-04
  1.156597e-01    5.510865e-04
  1.159586e-01    5.382150e-04
  1.162575e-01    5.465619e-04
  1.165564e-01    5.436094e-04
  1.168554e-01    5.379548e-04
  1.171543e-01    5.659563e-04
  1.174532e-01    5.558073e-04
  1.177522e-01    5.632869e-04
  1.180511e-01    5.568107e-04
  1.183500e-01    5.520253e-04
  1.186490e-01    5.643612e-04
  1.189479e-01    5.732725e-04
  1.192468e-01    5.572931e-04
  1.195458e-01    5.313916e-04
  1.198447e-01    5.206345e-04
  1.201436e-01    4.745420e-04
  1.204425e-01    4.334497e-04
  1.207415e-01    5.359580e-04
  1.210404e-01    5.603993e-04
  1.213393e-01    0.000000e+00
  1.216383e-01    0.000000e+00
  1.219372e-01    0.000000e+00
  1.222361e-01    0.000000e+00
  1.225351e-01    0.000000e+00
  1.228340e-01    0.000000e+00
  1.231329e-01    0.000000e+00
  1.234318e-01    0.000000e+00
  1.237308e-01    0.000000e+00
  1.240297e-01    0.000000e+00
  1.243286e-01    0.000000e+00
  1.246276e-01    0.000000e+00
  1.249265e-01    0.000000e+00
  1.252254e-01    0.000000e+00
  1.255244e-01    0.000000e+00
  1.258233e-01    0.000000e+00
  1.261222e-01    0.000000e+00
  1.264212e-01    0.000000e+00
  1.267201e-01    0.000000e+00
  1.270190e-01    0.000000e+00
  1.273179e-01    0.000000e+00
  1.276169e-01    0.000000e+00
  1.279158e-01    0.000000e+00
  1.282147e-01    0.000000e+00
  1.285137e-01    0.000000e+00
  1.288126e-01    0.000000e+00
  1.291115e-01    0.000000e+00
  1.294105e-01    0.000000e+00
  1.297094e-01    0.000000e+00
  1.300083e-01    0.000000e+00
  1.303072e-01    0.000000e+00
  1.306062e-01    0.000000e+00
  1.309051e-01    0.000000e+00
  1.312040e-01    0.000000e+00
  1.315030e-01    0.000000e+00
  1.318019e-01    0.000000e+00
  1.321008e-01    0.000000e+00
  1.323998e-01    0.000000e+00
  1.326987e-01    0.000000e+00
  1.329976e-01    0.000000e+00
  1.332965e-01    0.000000e+00
  1.335955e-01    0.000000e+00
  1.338944e-01    0.000000e+00
  1.341933e-01    0.000000e+00
  1.344923e-01    0.000000e+00
  1.347912e-01    0.000000e+00
  1.350901e-01    0.000000e+00
  1.353891e-01    0.000000e+00
  1.356880e-01    0.000000e+00
  1.359869e-01    0.000000e+00
  1.362859e-01    0.000000e+00
  1.365848e-01    0.000000e+00
  1.368837e-01    0.000000e+00
  1.371826e-01    0.000000e+00
  1.374816e-01    0.000000e+00
  1.377805e-01    0.000000e+00
  1.380794e-01    0.000000e+00
  1.383784e-01    0.000000e+00
  1.386773e-01    0.000000e+00
  1.389762e-01    0.000000e+00
  1.392752e-01    0.000000e+00
  1.395741e-01    0.000000e+00
  1.398730e-01    0.000000e+00
  1.401719e-01    0.000000e+00
  1.404709e-01    0.000000e+00
  1.407698e-01    0.000000e+00
  1.410687e-01    0.000000e+00
  1.413677e-01    0.000000e+00
  1.416666e-01    0.000000e+00
  1.419655e-01    0.000000e+00
  1.422645e-01    0.000000e+00
  1.425634e-01    0.000000e+00
  1.428623e-01    0.000000e+00
  1.431613e-01    0.000000e+00
  1.434602e-01    0.000000e+00
  1.437591e-01    0.000000e+00
  1.440580e-01    0.000000e+00
  1.443570e-01    0.000000e+00
  1.446559e-01    0.000000e+00
  1.449548e-01    0.000000e+00
  1.452538e-01    0.000000e+00
  1.455527e-01    0.000000e+00
  1.458516e-01    0.000000e+00
  1.461506e-01    0.000000e+00
  1.464495e-01    0.000000e+00
  1.467484e-01    0.000000e+00
  1.470473e-01    0.000000e+00
  1.473463e-01    0.000000e+00
  1.476452e-01    0.000000e+00
  1.479441e-01    0.000000e+00
  1.482431e-01    0.000000e+00
  1.485420e-01    0.000000e+00
  1.488409e-01    0.000000e+00
  1.491399e-01    0.000000e+00
  1.494388e-01    0.000000e+00
  1.497377e-01    0.000000e+00
  1.500367e-01    0.000000e+00
  1.503356e-01    0.000000e+00
  1.506345e-01    0.000000e+00
  1.509334e-01    0.000000e+00
  1.512324e-01    0.000000e+00
  1.515313e-01    0.000000e+00
  1.518302e-01    0.000000e+00
  1.521292e-01    0.000000e+00
  1.524281e-01    0.000000e+00
  1.527270e-01    0.000000e+00
  1.530260e-01    0.000000e+00
  1.533249e-01    0.000000e+00
  1.536238e-01    0.000000e+00
