# == pyFAI calibration ==
# Distance Sample to Detector: 2.266 m
# PONI: 5.659e-02, 4.293e-02 m
# Rotations: 0.000000 0.000000 0.000000 rad
# 
# == Fit2d calibration ==
# Distance Sample-beamCenter: 2266.000 mm
# Center: x=249.594, y=329.012 pix
# Tilt: 0.000 deg  TiltPlanRot: 0.000 deg
# 
# Detector Pilatus 300k	 PixelSize= 1.720e-04, 1.720e-04 m
#    Detector has a mask: True 
#    Detector has a dark current: False 
#    detector has a flat field: False 
# 
# Wavelength: 1.27818e-10 m
# Mask applied: user provided
# Dark current applied: False
# Flat field applied: False
# Polarization factor: None
# Normalization factor: 34527.74
# --> MT-latex_CL3252_TiO2_R706_phiT_0.110_PVC_0.000_DOP_0.010_0_r1d.csv
#        q_A^-1             I 
  4.457554e-03    2.755864e-02
  4.756484e-03    2.222064e-02
  5.055415e-03    1.599688e-02
  5.354345e-03    1.127604e-02
  5.653276e-03    8.591385e-03
  5.952206e-03    1.372026e-02
  6.251136e-03    1.257864e-02
  6.550067e-03    1.101400e-02
  6.848997e-03    9.364950e-03
  7.147927e-03    7.887071e-03
  7.446858e-03    6.716196e-03
  7.745788e-03    5.786921e-03
  8.044719e-03    4.986211e-03
  8.343649e-03    4.341121e-03
  8.642579e-03    3.763782e-03
  8.941510e-03    3.326047e-03
  9.240440e-03    2.997148e-03
  9.539371e-03    2.653761e-03
  9.838301e-03    2.333689e-03
  1.013723e-02    2.073071e-03
  1.043616e-02    1.858427e-03
  1.073509e-02    1.655666e-03
  1.103402e-02    1.501582e-03
  1.133295e-02    1.370700e-03
  1.163188e-02    1.237422e-03
  1.193081e-02    1.123467e-03
  1.222974e-02    1.038783e-03
  1.252867e-02    9.457442e-04
  1.282760e-02    8.609838e-04
  1.312654e-02    7.976359e-04
  1.342547e-02    7.497863e-04
  1.372440e-02    6.954483e-04
  1.402333e-02    6.426221e-04
  1.432226e-02    5.987667e-04
  1.462119e-02    5.484051e-04
  1.492012e-02    5.204550e-04
  1.521905e-02    4.877669e-04
  1.551798e-02    4.475870e-04
  1.581691e-02    4.145958e-04
  1.611584e-02    3.905330e-04
  1.641477e-02    3.716818e-04
  1.671370e-02    3.567226e-04
  1.701263e-02    3.355569e-04
  1.731156e-02    3.125640e-04
  1.761049e-02    2.929836e-04
  1.790942e-02    2.789888e-04
  1.820835e-02    2.639539e-04
  1.850728e-02    2.515293e-04
  1.880621e-02    2.446826e-04
  1.910514e-02    2.347543e-04
  1.940407e-02    2.222903e-04
  1.970300e-02    2.129496e-04
  2.000193e-02    2.092453e-04
  2.030086e-02    1.997203e-04
  2.059979e-02    1.926401e-04
  2.089873e-02    1.859641e-04
  2.119766e-02    1.795511e-04
  2.149659e-02    1.731793e-04
  2.179552e-02    1.673987e-04
  2.209445e-02    1.597418e-04
  2.239338e-02    1.560795e-04
  2.269231e-02    1.494569e-04
  2.299124e-02    1.481236e-04
  2.329017e-02    1.453096e-04
  2.358910e-02    1.405817e-04
  2.388803e-02    1.377628e-04
  2.418696e-02    1.341741e-04
  2.448589e-02    1.300197e-04
  2.478482e-02    1.266556e-04
  2.508375e-02    1.287726e-04
  2.538268e-02    1.279351e-04
  2.568161e-02    1.214751e-04
  2.598054e-02    1.152611e-04
  2.627947e-02    1.142096e-04
  2.657840e-02    1.124373e-04
  2.687733e-02    1.120337e-04
  2.717626e-02    1.114104e-04
  2.747519e-02    1.116412e-04
  2.777412e-02    1.068940e-04
  2.807305e-02    1.054142e-04
  2.837198e-02    1.070415e-04
  2.867092e-02    1.054864e-04
  2.896985e-02    1.028693e-04
  2.926878e-02    1.013480e-04
  2.956771e-02    1.022082e-04
  2.986664e-02    9.806846e-05
  3.016557e-02    9.715396e-05
  3.046450e-02    9.639044e-05
  3.076343e-02    9.308227e-05
  3.106236e-02    9.269381e-05
  3.136129e-02    9.530276e-05
  3.166022e-02    9.308385e-05
  3.195915e-02    9.221100e-05
  3.225808e-02    8.953032e-05
  3.255701e-02    9.162389e-05
  3.285594e-02    8.977883e-05
  3.315487e-02    8.583071e-05
  3.345380e-02    8.927004e-05
  3.375273e-02    9.045055e-05
  3.405166e-02    8.788465e-05
  3.435059e-02    8.589539e-05
  3.464952e-02    8.277065e-05
  3.494845e-02    8.242283e-05
  3.524738e-02    8.430361e-05
  3.554631e-02    8.191568e-05
  3.584524e-02    7.971655e-05
  3.614417e-02    8.000609e-05
  3.644310e-02    7.971354e-05
  3.674204e-02    7.750143e-05
  3.704097e-02    7.816889e-05
  3.733990e-02    7.805054e-05
  3.763883e-02    7.620583e-05
  3.793776e-02    7.633070e-05
  3.823669e-02    7.459094e-05
  3.853562e-02    7.593757e-05
  3.883455e-02    7.915965e-05
  3.913348e-02    7.591593e-05
  3.943241e-02    7.322115e-05
  3.973134e-02    7.235745e-05
  4.003027e-02    7.380875e-05
  4.032920e-02    7.266433e-05
  4.062813e-02    7.050164e-05
  4.092706e-02    7.172917e-05
  4.122599e-02    7.347673e-05
  4.152492e-02    7.232551e-05
  4.182385e-02    7.219317e-05
  4.212278e-02    6.856497e-05
  4.242171e-02    6.897721e-05
  4.272064e-02    7.207906e-05
  4.301957e-02    7.136387e-05
  4.331850e-02    6.754146e-05
  4.361743e-02    6.805351e-05
  4.391636e-02    6.849696e-05
  4.421529e-02    7.011415e-05
  4.451423e-02    7.068350e-05
  4.481316e-02    6.743211e-05
  4.511209e-02    6.714099e-05
  4.541102e-02    6.835404e-05
  4.570995e-02    6.857673e-05
  4.600888e-02    6.867984e-05
  4.630781e-02    6.655455e-05
  4.660674e-02    6.726561e-05
  4.690567e-02    6.803013e-05
  4.720460e-02    6.922350e-05
  4.750353e-02    6.611412e-05
  4.780246e-02    6.646426e-05
  4.810139e-02    6.576412e-05
  4.840032e-02    6.689943e-05
  4.869925e-02    6.950936e-05
  4.899818e-02    6.919933e-05
  4.929711e-02    6.857421e-05
  4.959604e-02    6.820679e-05
  4.989497e-02    6.741639e-05
  5.019390e-02    6.716979e-05
  5.049283e-02    6.925905e-05
  5.079176e-02    6.948517e-05
  5.109069e-02    6.756206e-05
  5.138962e-02    6.712890e-05
  5.168855e-02    6.884066e-05
  5.198748e-02    6.994089e-05
  5.228642e-02    7.031456e-05
  5.258535e-02    6.896407e-05
  5.288428e-02    6.823551e-05
  5.318321e-02    6.610285e-05
  5.348214e-02    6.580276e-05
  5.378107e-02    6.759960e-05
  5.408000e-02    6.649569e-05
  5.437893e-02    6.729685e-05
  5.467786e-02    6.906580e-05
  5.497679e-02    6.801172e-05
  5.527572e-02    6.730194e-05
  5.557465e-02    6.674985e-05
  5.587358e-02    6.645500e-05
  5.617251e-02    6.748595e-05
  5.647144e-02    6.704076e-05
  5.677037e-02    6.848705e-05
  5.706930e-02    6.846394e-05
  5.736823e-02    6.924776e-05
  5.766716e-02    6.744851e-05
  5.796609e-02    6.609438e-05
  5.826502e-02    6.826714e-05
  5.856395e-02    7.084791e-05
  5.886288e-02    6.957036e-05
  5.916181e-02    6.840820e-05
  5.946074e-02    6.807942e-05
  5.975967e-02    6.811479e-05
  6.005861e-02    6.856013e-05
  6.035754e-02    6.882148e-05
  6.065647e-02    6.789823e-05
  6.095540e-02    6.987289e-05
  6.125433e-02    7.085039e-05
  6.155326e-02    6.955382e-05
  6.185219e-02    6.980556e-05
  6.215112e-02    7.071672e-05
  6.245005e-02    6.896221e-05
  6.274898e-02    6.812998e-05
  6.304791e-02    6.823298e-05
  6.334684e-02    6.868321e-05
  6.364577e-02    6.936605e-05
  6.394470e-02    7.076265e-05
  6.424363e-02    6.985076e-05
  6.454256e-02    7.074147e-05
  6.484149e-02    7.156921e-05
  6.514042e-02    7.072822e-05
  6.543935e-02    6.996927e-05
  6.573828e-02    6.992325e-05
  6.603721e-02    6.954814e-05
  6.633614e-02    6.916956e-05
  6.663507e-02    7.016642e-05
  6.693400e-02    6.895130e-05
  6.723293e-02    7.136297e-05
  6.753186e-02    7.109722e-05
  6.783080e-02    6.984254e-05
  6.812973e-02    7.135243e-05
  6.842866e-02    7.079523e-05
  6.872759e-02    7.121592e-05
  6.902652e-02    7.024973e-05
  6.932545e-02    6.983865e-05
  6.962438e-02    7.072476e-05
  6.992331e-02    7.202201e-05
  7.022224e-02    7.196739e-05
  7.052117e-02    7.152034e-05
  7.082010e-02    6.935086e-05
  7.111903e-02    6.859812e-05
  7.141796e-02    7.067559e-05
  7.171689e-02    7.017266e-05
  7.201582e-02    7.166668e-05
  7.231475e-02    7.193122e-05
  7.261368e-02    7.219613e-05
  7.291261e-02    7.174759e-05
  7.321154e-02    7.170108e-05
  7.351047e-02    7.245615e-05
  7.380940e-02    7.380711e-05
  7.410833e-02    7.234728e-05
  7.440726e-02    7.069781e-05
  7.470619e-02    7.248949e-05
  7.500512e-02    7.232567e-05
  7.530405e-02    7.163025e-05
  7.560299e-02    7.277675e-05
  7.590192e-02    7.185904e-05
  7.620085e-02    7.073056e-05
  7.649978e-02    7.224164e-05
  7.679871e-02    7.227375e-05
  7.709764e-02    7.159979e-05
  7.739657e-02    7.231081e-05
  7.769550e-02    7.245506e-05
  7.799443e-02    7.250279e-05
  7.829336e-02    7.187376e-05
  7.859229e-02    7.131741e-05
  7.889122e-02    7.225516e-05
  7.919015e-02    7.344746e-05
  7.948908e-02    7.129501e-05
  7.978801e-02    7.111979e-05
  8.008694e-02    7.006722e-05
  8.038587e-02    6.852720e-05
  8.068480e-02    6.859822e-05
  8.098373e-02    7.098237e-05
  8.128266e-02    7.018184e-05
  8.158159e-02    7.034238e-05
  8.188052e-02    7.135313e-05
  8.217945e-02    7.193325e-05
  8.247838e-02    6.870300e-05
  8.277731e-02    6.891273e-05
  8.307624e-02    6.925562e-05
  8.337518e-02    6.827435e-05
  8.367411e-02    6.705835e-05
  8.397304e-02    6.827759e-05
  8.427197e-02    6.994970e-05
  8.457090e-02    6.995890e-05
  8.486983e-02    6.907721e-05
  8.516876e-02    6.810459e-05
  8.546769e-02    6.923708e-05
  8.576662e-02    6.686768e-05
  8.606555e-02    6.755354e-05
  8.636448e-02    7.093534e-05
  8.666341e-02    7.109986e-05
  8.696234e-02    7.137577e-05
  8.726127e-02    6.999441e-05
  8.756020e-02    6.899441e-05
  8.785913e-02    6.813012e-05
  8.815806e-02    6.740112e-05
  8.845699e-02    6.794334e-05
  8.875592e-02    6.699080e-05
  8.905485e-02    6.750646e-05
  8.935378e-02    6.792461e-05
  8.965271e-02    6.791852e-05
  8.995164e-02    6.956614e-05
  9.025057e-02    6.796919e-05
  9.054950e-02    6.818032e-05
  9.084843e-02    6.664329e-05
  9.114737e-02    6.553584e-05
  9.144630e-02    6.496932e-05
  9.174523e-02    6.607653e-05
  9.204416e-02    6.557188e-05
  9.234309e-02    6.565796e-05
  9.264202e-02    6.561762e-05
  9.294095e-02    6.540901e-05
  9.323988e-02    6.413877e-05
  9.353881e-02    6.422655e-05
  9.383774e-02    6.482218e-05
  9.413667e-02    6.517876e-05
  9.443560e-02    6.548147e-05
  9.473453e-02    6.599310e-05
  9.503346e-02    6.599363e-05
  9.533239e-02    6.538219e-05
  9.563132e-02    6.446187e-05
  9.593025e-02    6.493772e-05
  9.622918e-02    6.567720e-05
  9.652811e-02    6.561434e-05
  9.682704e-02    6.399307e-05
  9.712597e-02    6.437882e-05
  9.742490e-02    6.399952e-05
  9.772383e-02    6.250205e-05
  9.802276e-02    6.369636e-05
  9.832169e-02    6.344813e-05
  9.862062e-02    6.325745e-05
  9.891956e-02    6.292421e-05
  9.921849e-02    6.285193e-05
  9.951742e-02    6.434629e-05
  9.981635e-02    6.288321e-05
  1.001153e-01    6.252385e-05
  1.004142e-01    6.082755e-05
  1.007131e-01    6.085385e-05
  1.010121e-01    6.255965e-05
  1.013110e-01    6.116170e-05
  1.016099e-01    6.028040e-05
  1.019089e-01    6.196089e-05
  1.022078e-01    6.305894e-05
  1.025067e-01    6.250715e-05
  1.028057e-01    6.246880e-05
  1.031046e-01    6.048525e-05
  1.034035e-01    6.063768e-05
  1.037024e-01    6.135984e-05
  1.040014e-01    6.009396e-05
  1.043003e-01    6.093123e-05
  1.045992e-01    6.225060e-05
  1.048982e-01    6.130627e-05
  1.051971e-01    6.106952e-05
  1.054960e-01    6.184010e-05
  1.057950e-01    6.079883e-05
  1.060939e-01    5.950056e-05
  1.063928e-01    6.000010e-05
  1.066917e-01    6.117303e-05
  1.069907e-01    6.191651e-05
  1.072896e-01    6.197792e-05
  1.075885e-01    6.189391e-05
  1.078875e-01    6.138512e-05
  1.081864e-01    6.005090e-05
  1.084853e-01    5.981662e-05
  1.087843e-01    6.014543e-05
  1.090832e-01    5.970538e-05
  1.093821e-01    5.859595e-05
  1.096810e-01    5.830556e-05
  1.099800e-01    5.739327e-05
  1.102789e-01    5.761555e-05
  1.105778e-01    5.885345e-05
  1.108768e-01    5.914564e-05
  1.111757e-01    5.797840e-05
  1.114746e-01    5.654553e-05
  1.117736e-01    5.573284e-05
  1.120725e-01    5.774401e-05
  1.123714e-01    5.877419e-05
  1.126704e-01    5.920370e-05
  1.129693e-01    5.828802e-05
  1.132682e-01    5.669436e-05
  1.135671e-01    5.678110e-05
  1.138661e-01    5.701999e-05
  1.141650e-01    5.566708e-05
  1.144639e-01    5.462015e-05
  1.147629e-01    5.615149e-05
  1.150618e-01    5.757495e-05
  1.153607e-01    5.866899e-05
  1.156597e-01    5.889544e-05
  1.159586e-01    5.544674e-05
  1.162575e-01    5.407855e-05
  1.165564e-01    5.835438e-05
  1.168554e-01    5.978062e-05
  1.171543e-01    5.968688e-05
  1.174532e-01    5.648823e-05
  1.177522e-01    5.354884e-05
  1.180511e-01    5.783098e-05
  1.183500e-01    5.781811e-05
  1.186490e-01    5.489583e-05
  1.189479e-01    5.580988e-05
  1.192468e-01    5.996212e-05
  1.195458e-01    5.967717e-05
  1.198447e-01    5.659673e-05
  1.201436e-01    5.405760e-05
  1.204425e-01    5.000380e-05
  1.207415e-01    3.527906e-05
  1.210404e-01    0.000000e+00
  1.213393e-01    0.000000e+00
  1.216383e-01    0.000000e+00
  1.219372e-01    0.000000e+00
  1.222361e-01    0.000000e+00
  1.225351e-01    0.000000e+00
  1.228340e-01    0.000000e+00
  1.231329e-01    0.000000e+00
  1.234318e-01    0.000000e+00
  1.237308e-01    0.000000e+00
  1.240297e-01    0.000000e+00
  1.243286e-01    0.000000e+00
  1.246276e-01    0.000000e+00
  1.249265e-01    0.000000e+00
  1.252254e-01    0.000000e+00
  1.255244e-01    0.000000e+00
  1.258233e-01    0.000000e+00
  1.261222e-01    0.000000e+00
  1.264212e-01    0.000000e+00
  1.267201e-01    0.000000e+00
  1.270190e-01    0.000000e+00
  1.273179e-01    0.000000e+00
  1.276169e-01    0.000000e+00
  1.279158e-01    0.000000e+00
  1.282147e-01    0.000000e+00
  1.285137e-01    0.000000e+00
  1.288126e-01    0.000000e+00
  1.291115e-01    0.000000e+00
  1.294105e-01    0.000000e+00
  1.297094e-01    0.000000e+00
  1.300083e-01    0.000000e+00
  1.303072e-01    0.000000e+00
  1.306062e-01    0.000000e+00
  1.309051e-01    0.000000e+00
  1.312040e-01    0.000000e+00
  1.315030e-01    0.000000e+00
  1.318019e-01    0.000000e+00
  1.321008e-01    0.000000e+00
  1.323998e-01    0.000000e+00
  1.326987e-01    0.000000e+00
  1.329976e-01    0.000000e+00
  1.332965e-01    0.000000e+00
  1.335955e-01    0.000000e+00
  1.338944e-01    0.000000e+00
  1.341933e-01    0.000000e+00
  1.344923e-01    0.000000e+00
  1.347912e-01    0.000000e+00
  1.350901e-01    0.000000e+00
  1.353891e-01    0.000000e+00
  1.356880e-01    0.000000e+00
  1.359869e-01    0.000000e+00
  1.362859e-01    0.000000e+00
  1.365848e-01    0.000000e+00
  1.368837e-01    0.000000e+00
  1.371826e-01    0.000000e+00
  1.374816e-01    0.000000e+00
  1.377805e-01    0.000000e+00
  1.380794e-01    0.000000e+00
  1.383784e-01    0.000000e+00
  1.386773e-01    0.000000e+00
  1.389762e-01    0.000000e+00
  1.392752e-01    0.000000e+00
  1.395741e-01    0.000000e+00
  1.398730e-01    0.000000e+00
  1.401719e-01    0.000000e+00
  1.404709e-01    0.000000e+00
  1.407698e-01    0.000000e+00
  1.410687e-01    0.000000e+00
  1.413677e-01    0.000000e+00
  1.416666e-01    0.000000e+00
  1.419655e-01    0.000000e+00
  1.422645e-01    0.000000e+00
  1.425634e-01    0.000000e+00
  1.428623e-01    0.000000e+00
  1.431613e-01    0.000000e+00
  1.434602e-01    0.000000e+00
  1.437591e-01    0.000000e+00
  1.440580e-01    0.000000e+00
  1.443570e-01    0.000000e+00
  1.446559e-01    0.000000e+00
  1.449548e-01    0.000000e+00
  1.452538e-01    0.000000e+00
  1.455527e-01    0.000000e+00
  1.458516e-01    0.000000e+00
  1.461506e-01    0.000000e+00
  1.464495e-01    0.000000e+00
  1.467484e-01    0.000000e+00
  1.470473e-01    0.000000e+00
  1.473463e-01    0.000000e+00
  1.476452e-01    0.000000e+00
  1.479441e-01    0.000000e+00
  1.482431e-01    0.000000e+00
  1.485420e-01    0.000000e+00
  1.488409e-01    0.000000e+00
  1.491399e-01    0.000000e+00
  1.494388e-01    0.000000e+00
  1.497377e-01    0.000000e+00
  1.500367e-01    0.000000e+00
  1.503356e-01    0.000000e+00
  1.506345e-01    0.000000e+00
  1.509334e-01    0.000000e+00
  1.512324e-01    0.000000e+00
  1.515313e-01    0.000000e+00
  1.518302e-01    0.000000e+00
  1.521292e-01    0.000000e+00
  1.524281e-01    0.000000e+00
  1.527270e-01    0.000000e+00
  1.530260e-01    0.000000e+00
  1.533249e-01    0.000000e+00
  1.536238e-01    0.000000e+00
