# == pyFAI calibration ==
# Distance Sample to Detector: 2.266 m
# PONI: 5.659e-02, 4.293e-02 m
# Rotations: 0.000000 0.000000 0.000000 rad
# 
# == Fit2d calibration ==
# Distance Sample-beamCenter: 2266.000 mm
# Center: x=249.594, y=329.012 pix
# Tilt: 0.000 deg  TiltPlanRot: 0.000 deg
# 
# Detector Pilatus 300k	 PixelSize= 1.720e-04, 1.720e-04 m
#    Detector has a mask: True 
#    Detector has a dark current: False 
#    detector has a flat field: False 
# 
# Wavelength: 1.27818e-10 m
# Mask applied: user provided
# Dark current applied: False
# Flat field applied: False
# Polarization factor: None
# Normalization factor: 41267.23
# --> MT-latex_CL3252_TiO2_R706_phiT_0.070_PVC_1.000_DOP_0.020_1_r1d.csv
#        q_A^-1             I 
  4.457554e-03    4.412456e-02
  4.756484e-03    3.527466e-02
  5.055415e-03    2.589075e-02
  5.354345e-03    1.860382e-02
  5.653276e-03    1.475498e-02
  5.952206e-03    2.503594e-02
  6.251136e-03    2.300330e-02
  6.550067e-03    2.004292e-02
  6.848997e-03    1.694489e-02
  7.147927e-03    1.402579e-02
  7.446858e-03    1.192937e-02
  7.745788e-03    1.024576e-02
  8.044719e-03    8.797945e-03
  8.343649e-03    7.684206e-03
  8.642579e-03    6.622992e-03
  8.941510e-03    5.706137e-03
  9.240440e-03    5.016370e-03
  9.539371e-03    4.457995e-03
  9.838301e-03    3.980607e-03
  1.013723e-02    3.553350e-03
  1.043616e-02    3.160813e-03
  1.073509e-02    2.827867e-03
  1.103402e-02    2.541627e-03
  1.133295e-02    2.299352e-03
  1.163188e-02    2.094104e-03
  1.193081e-02    1.913458e-03
  1.222974e-02    1.750421e-03
  1.252867e-02    1.598444e-03
  1.282760e-02    1.450293e-03
  1.312654e-02    1.347448e-03
  1.342547e-02    1.247852e-03
  1.372440e-02    1.143044e-03
  1.402333e-02    1.057756e-03
  1.432226e-02    9.834986e-04
  1.462119e-02    9.163204e-04
  1.492012e-02    8.440142e-04
  1.521905e-02    7.899099e-04
  1.551798e-02    7.430014e-04
  1.581691e-02    6.988356e-04
  1.611584e-02    6.546939e-04
  1.641477e-02    6.036005e-04
  1.671370e-02    5.689036e-04
  1.701263e-02    5.445287e-04
  1.731156e-02    5.179840e-04
  1.761049e-02    4.865792e-04
  1.790942e-02    4.587747e-04
  1.820835e-02    4.403056e-04
  1.850728e-02    4.204388e-04
  1.880621e-02    3.945607e-04
  1.910514e-02    3.751518e-04
  1.940407e-02    3.647717e-04
  1.970300e-02    3.515616e-04
  2.000193e-02    3.385214e-04
  2.030086e-02    3.206014e-04
  2.059979e-02    3.127908e-04
  2.089873e-02    2.992819e-04
  2.119766e-02    2.876774e-04
  2.149659e-02    2.792144e-04
  2.179552e-02    2.666799e-04
  2.209445e-02    2.551738e-04
  2.239338e-02    2.463161e-04
  2.269231e-02    2.402620e-04
  2.299124e-02    2.381058e-04
  2.329017e-02    2.319064e-04
  2.358910e-02    2.193857e-04
  2.388803e-02    2.157283e-04
  2.418696e-02    2.127462e-04
  2.448589e-02    2.073666e-04
  2.478482e-02    2.021139e-04
  2.508375e-02    2.000232e-04
  2.538268e-02    1.955298e-04
  2.568161e-02    1.874277e-04
  2.598054e-02    1.852398e-04
  2.627947e-02    1.846865e-04
  2.657840e-02    1.805679e-04
  2.687733e-02    1.750830e-04
  2.717626e-02    1.739665e-04
  2.747519e-02    1.738301e-04
  2.777412e-02    1.704002e-04
  2.807305e-02    1.646174e-04
  2.837198e-02    1.608841e-04
  2.867092e-02    1.608682e-04
  2.896985e-02    1.629328e-04
  2.926878e-02    1.563535e-04
  2.956771e-02    1.510307e-04
  2.986664e-02    1.498356e-04
  3.016557e-02    1.525515e-04
  3.046450e-02    1.519494e-04
  3.076343e-02    1.458516e-04
  3.106236e-02    1.432342e-04
  3.136129e-02    1.416495e-04
  3.166022e-02    1.434030e-04
  3.195915e-02    1.424193e-04
  3.225808e-02    1.411141e-04
  3.255701e-02    1.391132e-04
  3.285594e-02    1.383766e-04
  3.315487e-02    1.372234e-04
  3.345380e-02    1.349541e-04
  3.375273e-02    1.316604e-04
  3.405166e-02    1.305941e-04
  3.435059e-02    1.291021e-04
  3.464952e-02    1.281367e-04
  3.494845e-02    1.291220e-04
  3.524738e-02    1.278591e-04
  3.554631e-02    1.246920e-04
  3.584524e-02    1.226528e-04
  3.614417e-02    1.225096e-04
  3.644310e-02    1.208800e-04
  3.674204e-02    1.180117e-04
  3.704097e-02    1.188905e-04
  3.733990e-02    1.202495e-04
  3.763883e-02    1.196492e-04
  3.793776e-02    1.186523e-04
  3.823669e-02    1.157919e-04
  3.853562e-02    1.158024e-04
  3.883455e-02    1.151231e-04
  3.913348e-02    1.151651e-04
  3.943241e-02    1.146320e-04
  3.973134e-02    1.146144e-04
  4.003027e-02    1.150513e-04
  4.032920e-02    1.136560e-04
  4.062813e-02    1.125564e-04
  4.092706e-02    1.113260e-04
  4.122599e-02    1.108926e-04
  4.152492e-02    1.111072e-04
  4.182385e-02    1.143848e-04
  4.212278e-02    1.141322e-04
  4.242171e-02    1.093130e-04
  4.272064e-02    1.069139e-04
  4.301957e-02    1.091057e-04
  4.331850e-02    1.093985e-04
  4.361743e-02    1.050655e-04
  4.391636e-02    1.070107e-04
  4.421529e-02    1.092865e-04
  4.451423e-02    1.072812e-04
  4.481316e-02    1.056325e-04
  4.511209e-02    1.074970e-04
  4.541102e-02    1.062516e-04
  4.570995e-02    1.060367e-04
  4.600888e-02    1.057474e-04
  4.630781e-02    1.079818e-04
  4.660674e-02    1.088970e-04
  4.690567e-02    1.059214e-04
  4.720460e-02    1.033478e-04
  4.750353e-02    1.051568e-04
  4.780246e-02    1.069214e-04
  4.810139e-02    1.059790e-04
  4.840032e-02    1.065970e-04
  4.869925e-02    1.058681e-04
  4.899818e-02    1.052191e-04
  4.929711e-02    1.048671e-04
  4.959604e-02    1.063701e-04
  4.989497e-02    1.061181e-04
  5.019390e-02    1.062969e-04
  5.049283e-02    1.049518e-04
  5.079176e-02    1.038498e-04
  5.109069e-02    1.035459e-04
  5.138962e-02    1.031707e-04
  5.168855e-02    1.062645e-04
  5.198748e-02    1.091771e-04
  5.228642e-02    1.073407e-04
  5.258535e-02    1.067064e-04
  5.288428e-02    1.060124e-04
  5.318321e-02    1.061296e-04
  5.348214e-02    1.058483e-04
  5.378107e-02    1.047580e-04
  5.408000e-02    1.044541e-04
  5.437893e-02    1.059665e-04
  5.467786e-02    1.062430e-04
  5.497679e-02    1.048860e-04
  5.527572e-02    1.041180e-04
  5.557465e-02    1.037021e-04
  5.587358e-02    1.055992e-04
  5.617251e-02    1.070822e-04
  5.647144e-02    1.063525e-04
  5.677037e-02    1.053275e-04
  5.706930e-02    1.062654e-04
  5.736823e-02    1.049856e-04
  5.766716e-02    1.045916e-04
  5.796609e-02    1.054992e-04
  5.826502e-02    1.052113e-04
  5.856395e-02    1.046238e-04
  5.886288e-02    1.063869e-04
  5.916181e-02    1.081868e-04
  5.946074e-02    1.067552e-04
  5.975967e-02    1.060634e-04
  6.005861e-02    1.084579e-04
  6.035754e-02    1.084420e-04
  6.065647e-02    1.082176e-04
  6.095540e-02    1.084232e-04
  6.125433e-02    1.097919e-04
  6.155326e-02    1.108209e-04
  6.185219e-02    1.088208e-04
  6.215112e-02    1.087547e-04
  6.245005e-02    1.082411e-04
  6.274898e-02    1.084588e-04
  6.304791e-02    1.077295e-04
  6.334684e-02    1.083217e-04
  6.364577e-02    1.101130e-04
  6.394470e-02    1.092219e-04
  6.424363e-02    1.086754e-04
  6.454256e-02    1.091511e-04
  6.484149e-02    1.083793e-04
  6.514042e-02    1.085742e-04
  6.543935e-02    1.083759e-04
  6.573828e-02    1.102726e-04
  6.603721e-02    1.113189e-04
  6.633614e-02    1.111883e-04
  6.663507e-02    1.110292e-04
  6.693400e-02    1.100331e-04
  6.723293e-02    1.080291e-04
  6.753186e-02    1.090079e-04
  6.783080e-02    1.129226e-04
  6.812973e-02    1.130420e-04
  6.842866e-02    1.123283e-04
  6.872759e-02    1.134288e-04
  6.902652e-02    1.114876e-04
  6.932545e-02    1.113622e-04
  6.962438e-02    1.117401e-04
  6.992331e-02    1.115339e-04
  7.022224e-02    1.128022e-04
  7.052117e-02    1.126539e-04
  7.082010e-02    1.135575e-04
  7.111903e-02    1.135264e-04
  7.141796e-02    1.126749e-04
  7.171689e-02    1.144617e-04
  7.201582e-02    1.142359e-04
  7.231475e-02    1.144494e-04
  7.261368e-02    1.144054e-04
  7.291261e-02    1.133806e-04
  7.321154e-02    1.114570e-04
  7.351047e-02    1.110809e-04
  7.380940e-02    1.130829e-04
  7.410833e-02    1.131334e-04
  7.440726e-02    1.115033e-04
  7.470619e-02    1.112935e-04
  7.500512e-02    1.128894e-04
  7.530405e-02    1.148958e-04
  7.560299e-02    1.135372e-04
  7.590192e-02    1.117861e-04
  7.620085e-02    1.120952e-04
  7.649978e-02    1.134277e-04
  7.679871e-02    1.120790e-04
  7.709764e-02    1.120483e-04
  7.739657e-02    1.112995e-04
  7.769550e-02    1.125167e-04
  7.799443e-02    1.134482e-04
  7.829336e-02    1.124547e-04
  7.859229e-02    1.122217e-04
  7.889122e-02    1.116553e-04
  7.919015e-02    1.118493e-04
  7.948908e-02    1.131419e-04
  7.978801e-02    1.126062e-04
  8.008694e-02    1.107905e-04
  8.038587e-02    1.115833e-04
  8.068480e-02    1.116775e-04
  8.098373e-02    1.106831e-04
  8.128266e-02    1.108843e-04
  8.158159e-02    1.119507e-04
  8.188052e-02    1.119860e-04
  8.217945e-02    1.124681e-04
  8.247838e-02    1.116284e-04
  8.277731e-02    1.112755e-04
  8.307624e-02    1.112989e-04
  8.337518e-02    1.105471e-04
  8.367411e-02    1.101244e-04
  8.397304e-02    1.102229e-04
  8.427197e-02    1.099435e-04
  8.457090e-02    1.099460e-04
  8.486983e-02    1.100497e-04
  8.516876e-02    1.108925e-04
  8.546769e-02    1.102465e-04
  8.576662e-02    1.080836e-04
  8.606555e-02    1.092062e-04
  8.636448e-02    1.097238e-04
  8.666341e-02    1.098795e-04
  8.696234e-02    1.111677e-04
  8.726127e-02    1.094552e-04
  8.756020e-02    1.071857e-04
  8.785913e-02    1.060432e-04
  8.815806e-02    1.068900e-04
  8.845699e-02    1.077666e-04
  8.875592e-02    1.084432e-04
  8.905485e-02    1.076498e-04
  8.935378e-02    1.057873e-04
  8.965271e-02    1.054299e-04
  8.995164e-02    1.055817e-04
  9.025057e-02    1.065112e-04
  9.054950e-02    1.063630e-04
  9.084843e-02    1.047512e-04
  9.114737e-02    1.043093e-04
  9.144630e-02    1.034214e-04
  9.174523e-02    1.028294e-04
  9.204416e-02    1.037692e-04
  9.234309e-02    1.034949e-04
  9.264202e-02    1.026068e-04
  9.294095e-02    1.034166e-04
  9.323988e-02    1.033034e-04
  9.353881e-02    1.027808e-04
  9.383774e-02    1.007414e-04
  9.413667e-02    9.992716e-05
  9.443560e-02    1.013165e-04
  9.473453e-02    1.017692e-04
  9.503346e-02    1.032004e-04
  9.533239e-02    1.032382e-04
  9.563132e-02    1.035036e-04
  9.593025e-02    1.031915e-04
  9.622918e-02    1.033553e-04
  9.652811e-02    1.018539e-04
  9.682704e-02    1.042230e-04
  9.712597e-02    1.040415e-04
  9.742490e-02    1.025513e-04
  9.772383e-02    1.011831e-04
  9.802276e-02    1.010210e-04
  9.832169e-02    1.008032e-04
  9.862062e-02    9.928939e-05
  9.891956e-02    9.959837e-05
  9.921849e-02    1.010661e-04
  9.951742e-02    1.014007e-04
  9.981635e-02    9.958804e-05
  1.001153e-01    9.772771e-05
  1.004142e-01    9.824396e-05
  1.007131e-01    9.864184e-05
  1.010121e-01    9.877837e-05
  1.013110e-01    9.864641e-05
  1.016099e-01    9.992583e-05
  1.019089e-01    9.882340e-05
  1.022078e-01    9.748912e-05
  1.025067e-01    9.619370e-05
  1.028057e-01    9.619607e-05
  1.031046e-01    9.656995e-05
  1.034035e-01    9.875045e-05
  1.037024e-01    9.895655e-05
  1.040014e-01    9.668939e-05
  1.043003e-01    9.628193e-05
  1.045992e-01    9.701852e-05
  1.048982e-01    9.502984e-05
  1.051971e-01    9.421643e-05
  1.054960e-01    9.472454e-05
  1.057950e-01    9.693953e-05
  1.060939e-01    9.384291e-05
  1.063928e-01    9.417988e-05
  1.066917e-01    9.662788e-05
  1.069907e-01    9.479305e-05
  1.072896e-01    9.442095e-05
  1.075885e-01    9.437703e-05
  1.078875e-01    9.348564e-05
  1.081864e-01    9.279765e-05
  1.084853e-01    9.345606e-05
  1.087843e-01    9.333810e-05
  1.090832e-01    9.483135e-05
  1.093821e-01    9.454843e-05
  1.096810e-01    9.385742e-05
  1.099800e-01    9.591044e-05
  1.102789e-01    9.486451e-05
  1.105778e-01    9.333205e-05
  1.108768e-01    9.372726e-05
  1.111757e-01    9.020253e-05
  1.114746e-01    8.962939e-05
  1.117736e-01    8.913950e-05
  1.120725e-01    9.085683e-05
  1.123714e-01    9.286562e-05
  1.126704e-01    9.067325e-05
  1.129693e-01    9.025615e-05
  1.132682e-01    8.873089e-05
  1.135671e-01    9.030830e-05
  1.138661e-01    9.211998e-05
  1.141650e-01    9.088749e-05
  1.144639e-01    8.809475e-05
  1.147629e-01    8.831130e-05
  1.150618e-01    8.682629e-05
  1.153607e-01    8.328389e-05
  1.156597e-01    8.154698e-05
  1.159586e-01    8.350107e-05
  1.162575e-01    8.675528e-05
  1.165564e-01    8.609363e-05
  1.168554e-01    8.543787e-05
  1.171543e-01    8.918645e-05
  1.174532e-01    9.187510e-05
  1.177522e-01    9.164201e-05
  1.180511e-01    8.945388e-05
  1.183500e-01    9.102263e-05
  1.186490e-01    8.895870e-05
  1.189479e-01    8.679756e-05
  1.192468e-01    9.189801e-05
  1.195458e-01    9.868028e-05
  1.198447e-01    9.286327e-05
  1.201436e-01    9.108997e-05
  1.204425e-01    9.045716e-05
  1.207415e-01    8.870299e-05
  1.210404e-01    1.455255e-04
  1.213393e-01    0.000000e+00
  1.216383e-01    0.000000e+00
  1.219372e-01    0.000000e+00
  1.222361e-01    0.000000e+00
  1.225351e-01    0.000000e+00
  1.228340e-01    0.000000e+00
  1.231329e-01    0.000000e+00
  1.234318e-01    0.000000e+00
  1.237308e-01    0.000000e+00
  1.240297e-01    0.000000e+00
  1.243286e-01    0.000000e+00
  1.246276e-01    0.000000e+00
  1.249265e-01    0.000000e+00
  1.252254e-01    0.000000e+00
  1.255244e-01    0.000000e+00
  1.258233e-01    0.000000e+00
  1.261222e-01    0.000000e+00
  1.264212e-01    0.000000e+00
  1.267201e-01    0.000000e+00
  1.270190e-01    0.000000e+00
  1.273179e-01    0.000000e+00
  1.276169e-01    0.000000e+00
  1.279158e-01    0.000000e+00
  1.282147e-01    0.000000e+00
  1.285137e-01    0.000000e+00
  1.288126e-01    0.000000e+00
  1.291115e-01    0.000000e+00
  1.294105e-01    0.000000e+00
  1.297094e-01    0.000000e+00
  1.300083e-01    0.000000e+00
  1.303072e-01    0.000000e+00
  1.306062e-01    0.000000e+00
  1.309051e-01    0.000000e+00
  1.312040e-01    0.000000e+00
  1.315030e-01    0.000000e+00
  1.318019e-01    0.000000e+00
  1.321008e-01    0.000000e+00
  1.323998e-01    0.000000e+00
  1.326987e-01    0.000000e+00
  1.329976e-01    0.000000e+00
  1.332965e-01    0.000000e+00
  1.335955e-01    0.000000e+00
  1.338944e-01    0.000000e+00
  1.341933e-01    0.000000e+00
  1.344923e-01    0.000000e+00
  1.347912e-01    0.000000e+00
  1.350901e-01    0.000000e+00
  1.353891e-01    0.000000e+00
  1.356880e-01    0.000000e+00
  1.359869e-01    0.000000e+00
  1.362859e-01    0.000000e+00
  1.365848e-01    0.000000e+00
  1.368837e-01    0.000000e+00
  1.371826e-01    0.000000e+00
  1.374816e-01    0.000000e+00
  1.377805e-01    0.000000e+00
  1.380794e-01    0.000000e+00
  1.383784e-01    0.000000e+00
  1.386773e-01    0.000000e+00
  1.389762e-01    0.000000e+00
  1.392752e-01    0.000000e+00
  1.395741e-01    0.000000e+00
  1.398730e-01    0.000000e+00
  1.401719e-01    0.000000e+00
  1.404709e-01    0.000000e+00
  1.407698e-01    0.000000e+00
  1.410687e-01    0.000000e+00
  1.413677e-01    0.000000e+00
  1.416666e-01    0.000000e+00
  1.419655e-01    0.000000e+00
  1.422645e-01    0.000000e+00
  1.425634e-01    0.000000e+00
  1.428623e-01    0.000000e+00
  1.431613e-01    0.000000e+00
  1.434602e-01    0.000000e+00
  1.437591e-01    0.000000e+00
  1.440580e-01    0.000000e+00
  1.443570e-01    0.000000e+00
  1.446559e-01    0.000000e+00
  1.449548e-01    0.000000e+00
  1.452538e-01    0.000000e+00
  1.455527e-01    0.000000e+00
  1.458516e-01    0.000000e+00
  1.461506e-01    0.000000e+00
  1.464495e-01    0.000000e+00
  1.467484e-01    0.000000e+00
  1.470473e-01    0.000000e+00
  1.473463e-01    0.000000e+00
  1.476452e-01    0.000000e+00
  1.479441e-01    0.000000e+00
  1.482431e-01    0.000000e+00
  1.485420e-01    0.000000e+00
  1.488409e-01    0.000000e+00
  1.491399e-01    0.000000e+00
  1.494388e-01    0.000000e+00
  1.497377e-01    0.000000e+00
  1.500367e-01    0.000000e+00
  1.503356e-01    0.000000e+00
  1.506345e-01    0.000000e+00
  1.509334e-01    0.000000e+00
  1.512324e-01    0.000000e+00
  1.515313e-01    0.000000e+00
  1.518302e-01    0.000000e+00
  1.521292e-01    0.000000e+00
  1.524281e-01    0.000000e+00
  1.527270e-01    0.000000e+00
  1.530260e-01    0.000000e+00
  1.533249e-01    0.000000e+00
  1.536238e-01    0.000000e+00
