# == pyFAI calibration ==
# Distance Sample to Detector: 2.266 m
# PONI: 5.659e-02, 4.293e-02 m
# Rotations: 0.000000 0.000000 0.000000 rad
# 
# == Fit2d calibration ==
# Distance Sample-beamCenter: 2266.000 mm
# Center: x=249.594, y=329.012 pix
# Tilt: 0.000 deg  TiltPlanRot: 0.000 deg
# 
# Detector Pilatus 300k	 PixelSize= 1.720e-04, 1.720e-04 m
#    Detector has a mask: True 
#    Detector has a dark current: False 
#    detector has a flat field: False 
# 
# Wavelength: 1.27818e-10 m
# Mask applied: user provided
# Dark current applied: False
# Flat field applied: False
# Polarization factor: None
# Normalization factor: 63508.89
# --> MT-latex_CL3252_TiO2_R706_phiT_0.050_PVC_0.400_DOP_0.020_1_r1d.csv
#        q_A^-1             I 
  4.457554e-03    3.641188e-02
  4.756484e-03    2.956391e-02
  5.055415e-03    2.178334e-02
  5.354345e-03    1.549950e-02
  5.653276e-03    1.217493e-02
  5.952206e-03    2.046005e-02
  6.251136e-03    1.860767e-02
  6.550067e-03    1.598858e-02
  6.848997e-03    1.349651e-02
  7.147927e-03    1.133908e-02
  7.446858e-03    9.605648e-03
  7.745788e-03    8.225746e-03
  8.044719e-03    7.092264e-03
  8.343649e-03    6.176718e-03
  8.642579e-03    5.416310e-03
  8.941510e-03    4.776896e-03
  9.240440e-03    4.206508e-03
  9.539371e-03    3.724537e-03
  9.838301e-03    3.308384e-03
  1.013723e-02    2.962153e-03
  1.043616e-02    2.649680e-03
  1.073509e-02    2.371530e-03
  1.103402e-02    2.143598e-03
  1.133295e-02    1.950430e-03
  1.163188e-02    1.784757e-03
  1.193081e-02    1.617190e-03
  1.222974e-02    1.474807e-03
  1.252867e-02    1.349957e-03
  1.282760e-02    1.243302e-03
  1.312654e-02    1.139668e-03
  1.342547e-02    1.049386e-03
  1.372440e-02    9.728126e-04
  1.402333e-02    9.128066e-04
  1.432226e-02    8.504373e-04
  1.462119e-02    7.930668e-04
  1.492012e-02    7.416107e-04
  1.521905e-02    6.951619e-04
  1.551798e-02    6.563957e-04
  1.581691e-02    6.122889e-04
  1.611584e-02    5.680211e-04
  1.641477e-02    5.421868e-04
  1.671370e-02    5.121873e-04
  1.701263e-02    4.851364e-04
  1.731156e-02    4.487036e-04
  1.761049e-02    4.276091e-04
  1.790942e-02    4.110452e-04
  1.820835e-02    3.935854e-04
  1.850728e-02    3.722732e-04
  1.880621e-02    3.509371e-04
  1.910514e-02    3.349287e-04
  1.940407e-02    3.225842e-04
  1.970300e-02    3.122197e-04
  2.000193e-02    3.005773e-04
  2.030086e-02    2.909371e-04
  2.059979e-02    2.790728e-04
  2.089873e-02    2.692906e-04
  2.119766e-02    2.591854e-04
  2.149659e-02    2.495133e-04
  2.179552e-02    2.436808e-04
  2.209445e-02    2.364713e-04
  2.239338e-02    2.277409e-04
  2.269231e-02    2.173602e-04
  2.299124e-02    2.123467e-04
  2.329017e-02    2.063371e-04
  2.358910e-02    2.023943e-04
  2.388803e-02    1.982726e-04
  2.418696e-02    1.931742e-04
  2.448589e-02    1.878547e-04
  2.478482e-02    1.848286e-04
  2.508375e-02    1.807438e-04
  2.538268e-02    1.780201e-04
  2.568161e-02    1.737358e-04
  2.598054e-02    1.706239e-04
  2.627947e-02    1.661013e-04
  2.657840e-02    1.652927e-04
  2.687733e-02    1.622232e-04
  2.717626e-02    1.572487e-04
  2.747519e-02    1.558246e-04
  2.777412e-02    1.548462e-04
  2.807305e-02    1.498402e-04
  2.837198e-02    1.466125e-04
  2.867092e-02    1.448459e-04
  2.896985e-02    1.449890e-04
  2.926878e-02    1.441131e-04
  2.956771e-02    1.419233e-04
  2.986664e-02    1.374756e-04
  3.016557e-02    1.375927e-04
  3.046450e-02    1.388428e-04
  3.076343e-02    1.339958e-04
  3.106236e-02    1.320797e-04
  3.136129e-02    1.313063e-04
  3.166022e-02    1.299006e-04
  3.195915e-02    1.277456e-04
  3.225808e-02    1.299556e-04
  3.255701e-02    1.276298e-04
  3.285594e-02    1.256219e-04
  3.315487e-02    1.244288e-04
  3.345380e-02    1.221647e-04
  3.375273e-02    1.220606e-04
  3.405166e-02    1.214106e-04
  3.435059e-02    1.211917e-04
  3.464952e-02    1.182494e-04
  3.494845e-02    1.147048e-04
  3.524738e-02    1.146036e-04
  3.554631e-02    1.145736e-04
  3.584524e-02    1.121411e-04
  3.614417e-02    1.128920e-04
  3.644310e-02    1.123790e-04
  3.674204e-02    1.122202e-04
  3.704097e-02    1.097400e-04
  3.733990e-02    1.097424e-04
  3.763883e-02    1.069856e-04
  3.793776e-02    1.073145e-04
  3.823669e-02    1.088745e-04
  3.853562e-02    1.078199e-04
  3.883455e-02    1.043667e-04
  3.913348e-02    1.077603e-04
  3.943241e-02    1.069738e-04
  3.973134e-02    1.081062e-04
  4.003027e-02    1.081579e-04
  4.032920e-02    1.073505e-04
  4.062813e-02    1.057774e-04
  4.092706e-02    1.040594e-04
  4.122599e-02    1.035157e-04
  4.152492e-02    1.017097e-04
  4.182385e-02    1.026848e-04
  4.212278e-02    1.016513e-04
  4.242171e-02    1.013567e-04
  4.272064e-02    9.973946e-05
  4.301957e-02    1.018555e-04
  4.331850e-02    1.013400e-04
  4.361743e-02    1.003607e-04
  4.391636e-02    1.013906e-04
  4.421529e-02    9.943569e-05
  4.451423e-02    9.935629e-05
  4.481316e-02    1.012787e-04
  4.511209e-02    1.008316e-04
  4.541102e-02    9.970693e-05
  4.570995e-02    1.011558e-04
  4.600888e-02    1.009106e-04
  4.630781e-02    1.004010e-04
  4.660674e-02    9.864285e-05
  4.690567e-02    9.862790e-05
  4.720460e-02    1.003579e-04
  4.750353e-02    1.019229e-04
  4.780246e-02    1.020017e-04
  4.810139e-02    1.000497e-04
  4.840032e-02    1.002380e-04
  4.869925e-02    1.008485e-04
  4.899818e-02    1.009534e-04
  4.929711e-02    9.956823e-05
  4.959604e-02    9.851775e-05
  4.989497e-02    9.966330e-05
  5.019390e-02    9.990907e-05
  5.049283e-02    9.974608e-05
  5.079176e-02    9.956057e-05
  5.109069e-02    9.876136e-05
  5.138962e-02    1.004898e-04
  5.168855e-02    1.021818e-04
  5.198748e-02    1.036180e-04
  5.228642e-02    1.015378e-04
  5.258535e-02    9.957789e-05
  5.288428e-02    9.961836e-05
  5.318321e-02    1.012784e-04
  5.348214e-02    1.011722e-04
  5.378107e-02    1.011033e-04
  5.408000e-02    9.979281e-05
  5.437893e-02    9.969574e-05
  5.467786e-02    1.000399e-04
  5.497679e-02    1.000530e-04
  5.527572e-02    1.017563e-04
  5.557465e-02    1.002823e-04
  5.587358e-02    9.986560e-05
  5.617251e-02    1.019335e-04
  5.647144e-02    1.009209e-04
  5.677037e-02    1.012998e-04
  5.706930e-02    9.999910e-05
  5.736823e-02    1.004607e-04
  5.766716e-02    9.994250e-05
  5.796609e-02    9.849445e-05
  5.826502e-02    9.836543e-05
  5.856395e-02    9.887482e-05
  5.886288e-02    1.001495e-04
  5.916181e-02    1.011739e-04
  5.946074e-02    1.010342e-04
  5.975967e-02    1.022136e-04
  6.005861e-02    1.043277e-04
  6.035754e-02    1.028147e-04
  6.065647e-02    1.018305e-04
  6.095540e-02    1.044471e-04
  6.125433e-02    1.046094e-04
  6.155326e-02    1.037295e-04
  6.185219e-02    1.048748e-04
  6.215112e-02    1.043481e-04
  6.245005e-02    1.027407e-04
  6.274898e-02    1.026056e-04
  6.304791e-02    1.048251e-04
  6.334684e-02    1.035658e-04
  6.364577e-02    1.028714e-04
  6.394470e-02    1.046932e-04
  6.424363e-02    1.069657e-04
  6.454256e-02    1.053379e-04
  6.484149e-02    1.025525e-04
  6.514042e-02    1.041370e-04
  6.543935e-02    1.052065e-04
  6.573828e-02    1.056325e-04
  6.603721e-02    1.055813e-04
  6.633614e-02    1.054821e-04
  6.663507e-02    1.063536e-04
  6.693400e-02    1.064611e-04
  6.723293e-02    1.073148e-04
  6.753186e-02    1.051427e-04
  6.783080e-02    1.052370e-04
  6.812973e-02    1.068236e-04
  6.842866e-02    1.067736e-04
  6.872759e-02    1.065102e-04
  6.902652e-02    1.062228e-04
  6.932545e-02    1.062680e-04
  6.962438e-02    1.071516e-04
  6.992331e-02    1.064676e-04
  7.022224e-02    1.058214e-04
  7.052117e-02    1.070810e-04
  7.082010e-02    1.068679e-04
  7.111903e-02    1.059129e-04
  7.141796e-02    1.070903e-04
  7.171689e-02    1.080844e-04
  7.201582e-02    1.063172e-04
  7.231475e-02    1.058781e-04
  7.261368e-02    1.070315e-04
  7.291261e-02    1.070239e-04
  7.321154e-02    1.070842e-04
  7.351047e-02    1.080712e-04
  7.380940e-02    1.068140e-04
  7.410833e-02    1.070284e-04
  7.440726e-02    1.098997e-04
  7.470619e-02    1.086451e-04
  7.500512e-02    1.073332e-04
  7.530405e-02    1.075617e-04
  7.560299e-02    1.093153e-04
  7.590192e-02    1.079511e-04
  7.620085e-02    1.053863e-04
  7.649978e-02    1.062211e-04
  7.679871e-02    1.057193e-04
  7.709764e-02    1.068491e-04
  7.739657e-02    1.073975e-04
  7.769550e-02    1.059980e-04
  7.799443e-02    1.069476e-04
  7.829336e-02    1.077254e-04
  7.859229e-02    1.074509e-04
  7.889122e-02    1.065164e-04
  7.919015e-02    1.073234e-04
  7.948908e-02    1.069054e-04
  7.978801e-02    1.067409e-04
  8.008694e-02    1.063487e-04
  8.038587e-02    1.070279e-04
  8.068480e-02    1.080876e-04
  8.098373e-02    1.065240e-04
  8.128266e-02    1.049109e-04
  8.158159e-02    1.055991e-04
  8.188052e-02    1.059487e-04
  8.217945e-02    1.051918e-04
  8.247838e-02    1.053858e-04
  8.277731e-02    1.060895e-04
  8.307624e-02    1.053459e-04
  8.337518e-02    1.037735e-04
  8.367411e-02    1.044264e-04
  8.397304e-02    1.057894e-04
  8.427197e-02    1.069669e-04
  8.457090e-02    1.063953e-04
  8.486983e-02    1.041641e-04
  8.516876e-02    1.032200e-04
  8.546769e-02    1.032033e-04
  8.576662e-02    1.044775e-04
  8.606555e-02    1.042964e-04
  8.636448e-02    1.035642e-04
  8.666341e-02    1.029007e-04
  8.696234e-02    1.035260e-04
  8.726127e-02    1.020629e-04
  8.756020e-02    1.012196e-04
  8.785913e-02    1.029370e-04
  8.815806e-02    1.034382e-04
  8.845699e-02    1.033542e-04
  8.875592e-02    1.025326e-04
  8.905485e-02    1.011952e-04
  8.935378e-02    1.013072e-04
  8.965271e-02    1.015163e-04
  8.995164e-02    1.015814e-04
  9.025057e-02    1.021677e-04
  9.054950e-02    1.017974e-04
  9.084843e-02    1.015899e-04
  9.114737e-02    1.030146e-04
  9.144630e-02    1.038830e-04
  9.174523e-02    1.025213e-04
  9.204416e-02    1.006708e-04
  9.234309e-02    1.013926e-04
  9.264202e-02    1.013166e-04
  9.294095e-02    1.004475e-04
  9.323988e-02    1.000998e-04
  9.353881e-02    1.001240e-04
  9.383774e-02    1.007348e-04
  9.413667e-02    9.924622e-05
  9.443560e-02    9.929456e-05
  9.473453e-02    9.859079e-05
  9.503346e-02    9.749627e-05
  9.533239e-02    9.809239e-05
  9.563132e-02    9.789150e-05
  9.593025e-02    9.773533e-05
  9.622918e-02    9.713117e-05
  9.652811e-02    9.840795e-05
  9.682704e-02    1.002304e-04
  9.712597e-02    9.774374e-05
  9.742490e-02    9.667770e-05
  9.772383e-02    9.774157e-05
  9.802276e-02    9.666222e-05
  9.832169e-02    9.575195e-05
  9.862062e-02    9.737642e-05
  9.891956e-02    9.760557e-05
  9.921849e-02    9.735510e-05
  9.951742e-02    9.556422e-05
  9.981635e-02    9.472675e-05
  1.001153e-01    9.568704e-05
  1.004142e-01    9.540808e-05
  1.007131e-01    9.542542e-05
  1.010121e-01    9.458028e-05
  1.013110e-01    9.408372e-05
  1.016099e-01    9.369743e-05
  1.019089e-01    9.427645e-05
  1.022078e-01    9.374223e-05
  1.025067e-01    9.338732e-05
  1.028057e-01    9.318224e-05
  1.031046e-01    9.251452e-05
  1.034035e-01    9.311572e-05
  1.037024e-01    9.257929e-05
  1.040014e-01    9.225650e-05
  1.043003e-01    9.270130e-05
  1.045992e-01    9.342413e-05
  1.048982e-01    9.323622e-05
  1.051971e-01    9.351901e-05
  1.054960e-01    9.345682e-05
  1.057950e-01    9.099589e-05
  1.060939e-01    9.054206e-05
  1.063928e-01    9.159857e-05
  1.066917e-01    9.097403e-05
  1.069907e-01    8.982422e-05
  1.072896e-01    9.097109e-05
  1.075885e-01    9.111125e-05
  1.078875e-01    9.160895e-05
  1.081864e-01    9.278776e-05
  1.084853e-01    9.189780e-05
  1.087843e-01    9.014375e-05
  1.090832e-01    8.947196e-05
  1.093821e-01    8.958062e-05
  1.096810e-01    9.024271e-05
  1.099800e-01    8.909469e-05
  1.102789e-01    8.876598e-05
  1.105778e-01    8.980995e-05
  1.108768e-01    9.054695e-05
  1.111757e-01    8.878227e-05
  1.114746e-01    8.689005e-05
  1.117736e-01    8.792109e-05
  1.120725e-01    8.682119e-05
  1.123714e-01    8.600720e-05
  1.126704e-01    8.596814e-05
  1.129693e-01    8.604319e-05
  1.132682e-01    8.760941e-05
  1.135671e-01    8.747148e-05
  1.138661e-01    8.595300e-05
  1.141650e-01    8.878373e-05
  1.144639e-01    8.987573e-05
  1.147629e-01    8.636218e-05
  1.150618e-01    8.396853e-05
  1.153607e-01    8.314066e-05
  1.156597e-01    8.391059e-05
  1.159586e-01    8.759663e-05
  1.162575e-01    8.794264e-05
  1.165564e-01    8.807283e-05
  1.168554e-01    8.788674e-05
  1.171543e-01    8.521220e-05
  1.174532e-01    8.548676e-05
  1.177522e-01    8.329578e-05
  1.180511e-01    8.105011e-05
  1.183500e-01    8.131300e-05
  1.186490e-01    8.196668e-05
  1.189479e-01    8.456440e-05
  1.192468e-01    8.100228e-05
  1.195458e-01    8.170588e-05
  1.198447e-01    8.223265e-05
  1.201436e-01    7.506312e-05
  1.204425e-01    6.722050e-05
  1.207415e-01    7.634360e-05
  1.210404e-01    1.103206e-04
  1.213393e-01    0.000000e+00
  1.216383e-01    0.000000e+00
  1.219372e-01    0.000000e+00
  1.222361e-01    0.000000e+00
  1.225351e-01    0.000000e+00
  1.228340e-01    0.000000e+00
  1.231329e-01    0.000000e+00
  1.234318e-01    0.000000e+00
  1.237308e-01    0.000000e+00
  1.240297e-01    0.000000e+00
  1.243286e-01    0.000000e+00
  1.246276e-01    0.000000e+00
  1.249265e-01    0.000000e+00
  1.252254e-01    0.000000e+00
  1.255244e-01    0.000000e+00
  1.258233e-01    0.000000e+00
  1.261222e-01    0.000000e+00
  1.264212e-01    0.000000e+00
  1.267201e-01    0.000000e+00
  1.270190e-01    0.000000e+00
  1.273179e-01    0.000000e+00
  1.276169e-01    0.000000e+00
  1.279158e-01    0.000000e+00
  1.282147e-01    0.000000e+00
  1.285137e-01    0.000000e+00
  1.288126e-01    0.000000e+00
  1.291115e-01    0.000000e+00
  1.294105e-01    0.000000e+00
  1.297094e-01    0.000000e+00
  1.300083e-01    0.000000e+00
  1.303072e-01    0.000000e+00
  1.306062e-01    0.000000e+00
  1.309051e-01    0.000000e+00
  1.312040e-01    0.000000e+00
  1.315030e-01    0.000000e+00
  1.318019e-01    0.000000e+00
  1.321008e-01    0.000000e+00
  1.323998e-01    0.000000e+00
  1.326987e-01    0.000000e+00
  1.329976e-01    0.000000e+00
  1.332965e-01    0.000000e+00
  1.335955e-01    0.000000e+00
  1.338944e-01    0.000000e+00
  1.341933e-01    0.000000e+00
  1.344923e-01    0.000000e+00
  1.347912e-01    0.000000e+00
  1.350901e-01    0.000000e+00
  1.353891e-01    0.000000e+00
  1.356880e-01    0.000000e+00
  1.359869e-01    0.000000e+00
  1.362859e-01    0.000000e+00
  1.365848e-01    0.000000e+00
  1.368837e-01    0.000000e+00
  1.371826e-01    0.000000e+00
  1.374816e-01    0.000000e+00
  1.377805e-01    0.000000e+00
  1.380794e-01    0.000000e+00
  1.383784e-01    0.000000e+00
  1.386773e-01    0.000000e+00
  1.389762e-01    0.000000e+00
  1.392752e-01    0.000000e+00
  1.395741e-01    0.000000e+00
  1.398730e-01    0.000000e+00
  1.401719e-01    0.000000e+00
  1.404709e-01    0.000000e+00
  1.407698e-01    0.000000e+00
  1.410687e-01    0.000000e+00
  1.413677e-01    0.000000e+00
  1.416666e-01    0.000000e+00
  1.419655e-01    0.000000e+00
  1.422645e-01    0.000000e+00
  1.425634e-01    0.000000e+00
  1.428623e-01    0.000000e+00
  1.431613e-01    0.000000e+00
  1.434602e-01    0.000000e+00
  1.437591e-01    0.000000e+00
  1.440580e-01    0.000000e+00
  1.443570e-01    0.000000e+00
  1.446559e-01    0.000000e+00
  1.449548e-01    0.000000e+00
  1.452538e-01    0.000000e+00
  1.455527e-01    0.000000e+00
  1.458516e-01    0.000000e+00
  1.461506e-01    0.000000e+00
  1.464495e-01    0.000000e+00
  1.467484e-01    0.000000e+00
  1.470473e-01    0.000000e+00
  1.473463e-01    0.000000e+00
  1.476452e-01    0.000000e+00
  1.479441e-01    0.000000e+00
  1.482431e-01    0.000000e+00
  1.485420e-01    0.000000e+00
  1.488409e-01    0.000000e+00
  1.491399e-01    0.000000e+00
  1.494388e-01    0.000000e+00
  1.497377e-01    0.000000e+00
  1.500367e-01    0.000000e+00
  1.503356e-01    0.000000e+00
  1.506345e-01    0.000000e+00
  1.509334e-01    0.000000e+00
  1.512324e-01    0.000000e+00
  1.515313e-01    0.000000e+00
  1.518302e-01    0.000000e+00
  1.521292e-01    0.000000e+00
  1.524281e-01    0.000000e+00
  1.527270e-01    0.000000e+00
  1.530260e-01    0.000000e+00
  1.533249e-01    0.000000e+00
  1.536238e-01    0.000000e+00
