# == pyFAI calibration ==
# Distance Sample to Detector: 2.266 m
# PONI: 5.659e-02, 4.293e-02 m
# Rotations: 0.000000 0.000000 0.000000 rad
# 
# == Fit2d calibration ==
# Distance Sample-beamCenter: 2266.000 mm
# Center: x=249.594, y=329.012 pix
# Tilt: 0.000 deg  TiltPlanRot: 0.000 deg
# 
# Detector Pilatus 300k	 PixelSize= 1.720e-04, 1.720e-04 m
#    Detector has a mask: True 
#    Detector has a dark current: False 
#    detector has a flat field: False 
# 
# Wavelength: 1.27818e-10 m
# Mask applied: user provided
# Dark current applied: False
# Flat field applied: False
# Polarization factor: None
# Normalization factor: 49627.01
# --> MT-latex_CL3252_TiO2_R706_phiT_0.030_PVC_0.800_DOP_0.020_1_r1d.csv
#        q_A^-1             I 
  4.457554e-03    4.028522e-02
  4.756484e-03    3.184787e-02
  5.055415e-03    2.269881e-02
  5.354345e-03    1.626328e-02
  5.653276e-03    1.266029e-02
  5.952206e-03    2.012116e-02
  6.251136e-03    1.838770e-02
  6.550067e-03    1.595424e-02
  6.848997e-03    1.357585e-02
  7.147927e-03    1.147172e-02
  7.446858e-03    9.741446e-03
  7.745788e-03    8.309238e-03
  8.044719e-03    7.157553e-03
  8.343649e-03    6.245247e-03
  8.642579e-03    5.455969e-03
  8.941510e-03    4.796387e-03
  9.240440e-03    4.228577e-03
  9.539371e-03    3.764559e-03
  9.838301e-03    3.357882e-03
  1.013723e-02    2.997131e-03
  1.043616e-02    2.701001e-03
  1.073509e-02    2.412292e-03
  1.103402e-02    2.182514e-03
  1.133295e-02    1.980226e-03
  1.163188e-02    1.804657e-03
  1.193081e-02    1.638522e-03
  1.222974e-02    1.506941e-03
  1.252867e-02    1.376757e-03
  1.282760e-02    1.260265e-03
  1.312654e-02    1.152995e-03
  1.342547e-02    1.064232e-03
  1.372440e-02    9.898051e-04
  1.402333e-02    9.241597e-04
  1.432226e-02    8.736604e-04
  1.462119e-02    8.096209e-04
  1.492012e-02    7.464943e-04
  1.521905e-02    7.041975e-04
  1.551798e-02    6.524716e-04
  1.581691e-02    5.995693e-04
  1.611584e-02    5.722870e-04
  1.641477e-02    5.517332e-04
  1.671370e-02    5.091126e-04
  1.701263e-02    4.811543e-04
  1.731156e-02    4.613138e-04
  1.761049e-02    4.314594e-04
  1.790942e-02    4.063774e-04
  1.820835e-02    3.832424e-04
  1.850728e-02    3.680853e-04
  1.880621e-02    3.577209e-04
  1.910514e-02    3.381272e-04
  1.940407e-02    3.262727e-04
  1.970300e-02    3.166177e-04
  2.000193e-02    3.043816e-04
  2.030086e-02    2.891663e-04
  2.059979e-02    2.810592e-04
  2.089873e-02    2.718338e-04
  2.119766e-02    2.623923e-04
  2.149659e-02    2.517439e-04
  2.179552e-02    2.405005e-04
  2.209445e-02    2.384906e-04
  2.239338e-02    2.312587e-04
  2.269231e-02    2.237797e-04
  2.299124e-02    2.158897e-04
  2.329017e-02    2.123950e-04
  2.358910e-02    2.045073e-04
  2.388803e-02    1.952969e-04
  2.418696e-02    1.947613e-04
  2.448589e-02    1.894608e-04
  2.478482e-02    1.839992e-04
  2.508375e-02    1.801296e-04
  2.538268e-02    1.749133e-04
  2.568161e-02    1.703839e-04
  2.598054e-02    1.683018e-04
  2.627947e-02    1.659910e-04
  2.657840e-02    1.637455e-04
  2.687733e-02    1.617692e-04
  2.717626e-02    1.598490e-04
  2.747519e-02    1.575988e-04
  2.777412e-02    1.567984e-04
  2.807305e-02    1.523554e-04
  2.837198e-02    1.498083e-04
  2.867092e-02    1.457257e-04
  2.896985e-02    1.476690e-04
  2.926878e-02    1.477338e-04
  2.956771e-02    1.437463e-04
  2.986664e-02    1.380361e-04
  3.016557e-02    1.374207e-04
  3.046450e-02    1.392326e-04
  3.076343e-02    1.366385e-04
  3.106236e-02    1.378451e-04
  3.136129e-02    1.345588e-04
  3.166022e-02    1.310576e-04
  3.195915e-02    1.323855e-04
  3.225808e-02    1.337369e-04
  3.255701e-02    1.297496e-04
  3.285594e-02    1.265261e-04
  3.315487e-02    1.257291e-04
  3.345380e-02    1.254769e-04
  3.375273e-02    1.262066e-04
  3.405166e-02    1.250120e-04
  3.435059e-02    1.191613e-04
  3.464952e-02    1.145510e-04
  3.494845e-02    1.157260e-04
  3.524738e-02    1.171554e-04
  3.554631e-02    1.166122e-04
  3.584524e-02    1.163876e-04
  3.614417e-02    1.165567e-04
  3.644310e-02    1.147553e-04
  3.674204e-02    1.144790e-04
  3.704097e-02    1.136929e-04
  3.733990e-02    1.131003e-04
  3.763883e-02    1.132372e-04
  3.793776e-02    1.119445e-04
  3.823669e-02    1.098904e-04
  3.853562e-02    1.080153e-04
  3.883455e-02    1.070223e-04
  3.913348e-02    1.061145e-04
  3.943241e-02    1.048817e-04
  3.973134e-02    1.086331e-04
  4.003027e-02    1.083457e-04
  4.032920e-02    1.052311e-04
  4.062813e-02    1.050852e-04
  4.092706e-02    1.044322e-04
  4.122599e-02    1.042736e-04
  4.152492e-02    1.026819e-04
  4.182385e-02    1.009571e-04
  4.212278e-02    1.001552e-04
  4.242171e-02    9.890782e-05
  4.272064e-02    1.021890e-04
  4.301957e-02    1.007613e-04
  4.331850e-02    1.011668e-04
  4.361743e-02    1.020764e-04
  4.391636e-02    9.864275e-05
  4.421529e-02    9.984320e-05
  4.451423e-02    1.032011e-04
  4.481316e-02    1.001548e-04
  4.511209e-02    1.000657e-04
  4.541102e-02    1.022762e-04
  4.570995e-02    9.983892e-05
  4.600888e-02    9.819916e-05
  4.630781e-02    1.005181e-04
  4.660674e-02    1.008194e-04
  4.690567e-02    1.001405e-04
  4.720460e-02    9.987041e-05
  4.750353e-02    9.804677e-05
  4.780246e-02    9.961397e-05
  4.810139e-02    1.009339e-04
  4.840032e-02    9.824794e-05
  4.869925e-02    9.832872e-05
  4.899818e-02    9.912232e-05
  4.929711e-02    1.003322e-04
  4.959604e-02    9.948824e-05
  4.989497e-02    9.770192e-05
  5.019390e-02    9.904050e-05
  5.049283e-02    1.007327e-04
  5.079176e-02    9.944572e-05
  5.109069e-02    9.957355e-05
  5.138962e-02    1.003991e-04
  5.168855e-02    1.019031e-04
  5.198748e-02    1.037585e-04
  5.228642e-02    1.028769e-04
  5.258535e-02    1.001537e-04
  5.288428e-02    9.711923e-05
  5.318321e-02    9.728711e-05
  5.348214e-02    9.766005e-05
  5.378107e-02    9.822497e-05
  5.408000e-02    1.008863e-04
  5.437893e-02    9.922928e-05
  5.467786e-02    9.772084e-05
  5.497679e-02    9.962550e-05
  5.527572e-02    1.002225e-04
  5.557465e-02    9.913781e-05
  5.587358e-02    9.991218e-05
  5.617251e-02    1.021612e-04
  5.647144e-02    1.015550e-04
  5.677037e-02    9.913039e-05
  5.706930e-02    9.958496e-05
  5.736823e-02    1.006514e-04
  5.766716e-02    9.898908e-05
  5.796609e-02    1.000265e-04
  5.826502e-02    1.017493e-04
  5.856395e-02    1.011375e-04
  5.886288e-02    9.989608e-05
  5.916181e-02    1.007018e-04
  5.946074e-02    1.003899e-04
  5.975967e-02    1.014005e-04
  6.005861e-02    1.019391e-04
  6.035754e-02    1.016184e-04
  6.065647e-02    1.005910e-04
  6.095540e-02    1.047531e-04
  6.125433e-02    1.064893e-04
  6.155326e-02    1.042472e-04
  6.185219e-02    1.030975e-04
  6.215112e-02    1.024063e-04
  6.245005e-02    1.016680e-04
  6.274898e-02    1.008934e-04
  6.304791e-02    1.013514e-04
  6.334684e-02    1.025544e-04
  6.364577e-02    1.026659e-04
  6.394470e-02    1.018603e-04
  6.424363e-02    1.036306e-04
  6.454256e-02    1.047575e-04
  6.484149e-02    1.024164e-04
  6.514042e-02    1.031542e-04
  6.543935e-02    1.036046e-04
  6.573828e-02    1.044180e-04
  6.603721e-02    1.041198e-04
  6.633614e-02    1.033749e-04
  6.663507e-02    1.042875e-04
  6.693400e-02    1.040040e-04
  6.723293e-02    1.041872e-04
  6.753186e-02    1.036239e-04
  6.783080e-02    1.050329e-04
  6.812973e-02    1.058962e-04
  6.842866e-02    1.076130e-04
  6.872759e-02    1.068746e-04
  6.902652e-02    1.051267e-04
  6.932545e-02    1.056138e-04
  6.962438e-02    1.053695e-04
  6.992331e-02    1.061296e-04
  7.022224e-02    1.063590e-04
  7.052117e-02    1.040265e-04
  7.082010e-02    1.031587e-04
  7.111903e-02    1.037888e-04
  7.141796e-02    1.044989e-04
  7.171689e-02    1.064116e-04
  7.201582e-02    1.063905e-04
  7.231475e-02    1.058028e-04
  7.261368e-02    1.075064e-04
  7.291261e-02    1.076336e-04
  7.321154e-02    1.076009e-04
  7.351047e-02    1.072237e-04
  7.380940e-02    1.075187e-04
  7.410833e-02    1.088117e-04
  7.440726e-02    1.071810e-04
  7.470619e-02    1.057573e-04
  7.500512e-02    1.057008e-04
  7.530405e-02    1.070242e-04
  7.560299e-02    1.074574e-04
  7.590192e-02    1.074907e-04
  7.620085e-02    1.065899e-04
  7.649978e-02    1.064376e-04
  7.679871e-02    1.068282e-04
  7.709764e-02    1.070402e-04
  7.739657e-02    1.065969e-04
  7.769550e-02    1.062739e-04
  7.799443e-02    1.070766e-04
  7.829336e-02    1.068430e-04
  7.859229e-02    1.061931e-04
  7.889122e-02    1.080521e-04
  7.919015e-02    1.084031e-04
  7.948908e-02    1.070649e-04
  7.978801e-02    1.054553e-04
  8.008694e-02    1.048179e-04
  8.038587e-02    1.053943e-04
  8.068480e-02    1.058813e-04
  8.098373e-02    1.043806e-04
  8.128266e-02    1.053371e-04
  8.158159e-02    1.066616e-04
  8.188052e-02    1.067640e-04
  8.217945e-02    1.044859e-04
  8.247838e-02    1.029999e-04
  8.277731e-02    1.035447e-04
  8.307624e-02    1.031423e-04
  8.337518e-02    1.046027e-04
  8.367411e-02    1.044442e-04
  8.397304e-02    1.030168e-04
  8.427197e-02    1.025189e-04
  8.457090e-02    1.030494e-04
  8.486983e-02    1.023332e-04
  8.516876e-02    1.028444e-04
  8.546769e-02    1.038644e-04
  8.576662e-02    1.029484e-04
  8.606555e-02    1.020633e-04
  8.636448e-02    1.029018e-04
  8.666341e-02    1.035304e-04
  8.696234e-02    1.028139e-04
  8.726127e-02    1.022772e-04
  8.756020e-02    1.022143e-04
  8.785913e-02    1.005694e-04
  8.815806e-02    1.004506e-04
  8.845699e-02    1.021417e-04
  8.875592e-02    1.024389e-04
  8.905485e-02    1.011219e-04
  8.935378e-02    1.006283e-04
  8.965271e-02    1.010365e-04
  8.995164e-02    1.004932e-04
  9.025057e-02    9.956406e-05
  9.054950e-02    9.824340e-05
  9.084843e-02    9.904484e-05
  9.114737e-02    9.917409e-05
  9.144630e-02    9.964882e-05
  9.174523e-02    9.999971e-05
  9.204416e-02    9.798002e-05
  9.234309e-02    9.731096e-05
  9.264202e-02    9.747667e-05
  9.294095e-02    9.711433e-05
  9.323988e-02    9.768888e-05
  9.353881e-02    9.922253e-05
  9.383774e-02    9.926737e-05
  9.413667e-02    9.743546e-05
  9.443560e-02    9.811620e-05
  9.473453e-02    9.924560e-05
  9.503346e-02    9.749603e-05
  9.533239e-02    9.508716e-05
  9.563132e-02    9.451248e-05
  9.593025e-02    9.525099e-05
  9.622918e-02    9.580522e-05
  9.652811e-02    9.722020e-05
  9.682704e-02    9.796782e-05
  9.712597e-02    9.913470e-05
  9.742490e-02    9.850059e-05
  9.772383e-02    9.663256e-05
  9.802276e-02    9.501786e-05
  9.832169e-02    9.420000e-05
  9.862062e-02    9.592661e-05
  9.891956e-02    9.458511e-05
  9.921849e-02    9.336389e-05
  9.951742e-02    9.545644e-05
  9.981635e-02    9.610197e-05
  1.001153e-01    9.228259e-05
  1.004142e-01    9.182833e-05
  1.007131e-01    9.287416e-05
  1.010121e-01    9.218781e-05
  1.013110e-01    9.340951e-05
  1.016099e-01    9.396013e-05
  1.019089e-01    9.331004e-05
  1.022078e-01    9.252178e-05
  1.025067e-01    9.292719e-05
  1.028057e-01    9.480074e-05
  1.031046e-01    9.321641e-05
  1.034035e-01    9.163779e-05
  1.037024e-01    9.160158e-05
  1.040014e-01    9.182125e-05
  1.043003e-01    9.079068e-05
  1.045992e-01    9.035192e-05
  1.048982e-01    9.088885e-05
  1.051971e-01    8.979581e-05
  1.054960e-01    8.973317e-05
  1.057950e-01    8.993869e-05
  1.060939e-01    8.832506e-05
  1.063928e-01    8.918524e-05
  1.066917e-01    9.018616e-05
  1.069907e-01    9.127396e-05
  1.072896e-01    9.010513e-05
  1.075885e-01    8.897260e-05
  1.078875e-01    9.055356e-05
  1.081864e-01    9.059827e-05
  1.084853e-01    8.968277e-05
  1.087843e-01    8.996012e-05
  1.090832e-01    8.940721e-05
  1.093821e-01    8.997408e-05
  1.096810e-01    8.899407e-05
  1.099800e-01    8.822205e-05
  1.102789e-01    8.739652e-05
  1.105778e-01    8.711807e-05
  1.108768e-01    8.804588e-05
  1.111757e-01    8.695775e-05
  1.114746e-01    8.687734e-05
  1.117736e-01    8.629541e-05
  1.120725e-01    8.628374e-05
  1.123714e-01    8.795298e-05
  1.126704e-01    8.754500e-05
  1.129693e-01    8.552212e-05
  1.132682e-01    8.583917e-05
  1.135671e-01    8.436077e-05
  1.138661e-01    8.530858e-05
  1.141650e-01    8.675942e-05
  1.144639e-01    8.686396e-05
  1.147629e-01    8.503479e-05
  1.150618e-01    8.229374e-05
  1.153607e-01    8.111855e-05
  1.156597e-01    8.235784e-05
  1.159586e-01    8.384827e-05
  1.162575e-01    8.674417e-05
  1.165564e-01    8.535343e-05
  1.168554e-01    8.374072e-05
  1.171543e-01    8.372682e-05
  1.174532e-01    8.157377e-05
  1.177522e-01    8.151638e-05
  1.180511e-01    8.326360e-05
  1.183500e-01    8.274167e-05
  1.186490e-01    8.164199e-05
  1.189479e-01    8.358433e-05
  1.192468e-01    8.744250e-05
  1.195458e-01    8.203814e-05
  1.198447e-01    8.006179e-05
  1.201436e-01    8.535581e-05
  1.204425e-01    9.085105e-05
  1.207415e-01    8.038805e-05
  1.210404e-01    4.033714e-05
  1.213393e-01    0.000000e+00
  1.216383e-01    0.000000e+00
  1.219372e-01    0.000000e+00
  1.222361e-01    0.000000e+00
  1.225351e-01    0.000000e+00
  1.228340e-01    0.000000e+00
  1.231329e-01    0.000000e+00
  1.234318e-01    0.000000e+00
  1.237308e-01    0.000000e+00
  1.240297e-01    0.000000e+00
  1.243286e-01    0.000000e+00
  1.246276e-01    0.000000e+00
  1.249265e-01    0.000000e+00
  1.252254e-01    0.000000e+00
  1.255244e-01    0.000000e+00
  1.258233e-01    0.000000e+00
  1.261222e-01    0.000000e+00
  1.264212e-01    0.000000e+00
  1.267201e-01    0.000000e+00
  1.270190e-01    0.000000e+00
  1.273179e-01    0.000000e+00
  1.276169e-01    0.000000e+00
  1.279158e-01    0.000000e+00
  1.282147e-01    0.000000e+00
  1.285137e-01    0.000000e+00
  1.288126e-01    0.000000e+00
  1.291115e-01    0.000000e+00
  1.294105e-01    0.000000e+00
  1.297094e-01    0.000000e+00
  1.300083e-01    0.000000e+00
  1.303072e-01    0.000000e+00
  1.306062e-01    0.000000e+00
  1.309051e-01    0.000000e+00
  1.312040e-01    0.000000e+00
  1.315030e-01    0.000000e+00
  1.318019e-01    0.000000e+00
  1.321008e-01    0.000000e+00
  1.323998e-01    0.000000e+00
  1.326987e-01    0.000000e+00
  1.329976e-01    0.000000e+00
  1.332965e-01    0.000000e+00
  1.335955e-01    0.000000e+00
  1.338944e-01    0.000000e+00
  1.341933e-01    0.000000e+00
  1.344923e-01    0.000000e+00
  1.347912e-01    0.000000e+00
  1.350901e-01    0.000000e+00
  1.353891e-01    0.000000e+00
  1.356880e-01    0.000000e+00
  1.359869e-01    0.000000e+00
  1.362859e-01    0.000000e+00
  1.365848e-01    0.000000e+00
  1.368837e-01    0.000000e+00
  1.371826e-01    0.000000e+00
  1.374816e-01    0.000000e+00
  1.377805e-01    0.000000e+00
  1.380794e-01    0.000000e+00
  1.383784e-01    0.000000e+00
  1.386773e-01    0.000000e+00
  1.389762e-01    0.000000e+00
  1.392752e-01    0.000000e+00
  1.395741e-01    0.000000e+00
  1.398730e-01    0.000000e+00
  1.401719e-01    0.000000e+00
  1.404709e-01    0.000000e+00
  1.407698e-01    0.000000e+00
  1.410687e-01    0.000000e+00
  1.413677e-01    0.000000e+00
  1.416666e-01    0.000000e+00
  1.419655e-01    0.000000e+00
  1.422645e-01    0.000000e+00
  1.425634e-01    0.000000e+00
  1.428623e-01    0.000000e+00
  1.431613e-01    0.000000e+00
  1.434602e-01    0.000000e+00
  1.437591e-01    0.000000e+00
  1.440580e-01    0.000000e+00
  1.443570e-01    0.000000e+00
  1.446559e-01    0.000000e+00
  1.449548e-01    0.000000e+00
  1.452538e-01    0.000000e+00
  1.455527e-01    0.000000e+00
  1.458516e-01    0.000000e+00
  1.461506e-01    0.000000e+00
  1.464495e-01    0.000000e+00
  1.467484e-01    0.000000e+00
  1.470473e-01    0.000000e+00
  1.473463e-01    0.000000e+00
  1.476452e-01    0.000000e+00
  1.479441e-01    0.000000e+00
  1.482431e-01    0.000000e+00
  1.485420e-01    0.000000e+00
  1.488409e-01    0.000000e+00
  1.491399e-01    0.000000e+00
  1.494388e-01    0.000000e+00
  1.497377e-01    0.000000e+00
  1.500367e-01    0.000000e+00
  1.503356e-01    0.000000e+00
  1.506345e-01    0.000000e+00
  1.509334e-01    0.000000e+00
  1.512324e-01    0.000000e+00
  1.515313e-01    0.000000e+00
  1.518302e-01    0.000000e+00
  1.521292e-01    0.000000e+00
  1.524281e-01    0.000000e+00
  1.527270e-01    0.000000e+00
  1.530260e-01    0.000000e+00
  1.533249e-01    0.000000e+00
  1.536238e-01    0.000000e+00
