# == pyFAI calibration ==
# Distance Sample to Detector: 2.266 m
# PONI: 5.659e-02, 4.293e-02 m
# Rotations: 0.000000 0.000000 0.000000 rad
# 
# == Fit2d calibration ==
# Distance Sample-beamCenter: 2266.000 mm
# Center: x=249.594, y=329.012 pix
# Tilt: 0.000 deg  TiltPlanRot: 0.000 deg
# 
# Detector Pilatus 300k	 PixelSize= 1.720e-04, 1.720e-04 m
#    Detector has a mask: True 
#    Detector has a dark current: False 
#    detector has a flat field: False 
# 
# Wavelength: 1.27818e-10 m
# Mask applied: user provided
# Dark current applied: False
# Flat field applied: False
# Polarization factor: None
# Normalization factor: 51783.71
# --> MT-latex_CL3252_TiO2_R706_phiT_0.110_PVC_0.400_DOP_0.010_1_r1d.csv
#        q_A^-1             I 
  4.457554e-03    3.923991e-02
  4.756484e-03    3.144568e-02
  5.055415e-03    2.292431e-02
  5.354345e-03    1.654843e-02
  5.653276e-03    1.300748e-02
  5.952206e-03    2.115768e-02
  6.251136e-03    1.933307e-02
  6.550067e-03    1.664780e-02
  6.848997e-03    1.402954e-02
  7.147927e-03    1.181604e-02
  7.446858e-03    1.006943e-02
  7.745788e-03    8.600442e-03
  8.044719e-03    7.406157e-03
  8.343649e-03    6.442098e-03
  8.642579e-03    5.570902e-03
  8.941510e-03    4.885769e-03
  9.240440e-03    4.336450e-03
  9.539371e-03    3.877837e-03
  9.838301e-03    3.457289e-03
  1.013723e-02    3.068490e-03
  1.043616e-02    2.726785e-03
  1.073509e-02    2.457302e-03
  1.103402e-02    2.232135e-03
  1.133295e-02    2.007664e-03
  1.163188e-02    1.832554e-03
  1.193081e-02    1.665825e-03
  1.222974e-02    1.527949e-03
  1.252867e-02    1.412441e-03
  1.282760e-02    1.287760e-03
  1.312654e-02    1.193251e-03
  1.342547e-02    1.096893e-03
  1.372440e-02    1.014183e-03
  1.402333e-02    9.432017e-04
  1.432226e-02    8.640102e-04
  1.462119e-02    8.080289e-04
  1.492012e-02    7.606136e-04
  1.521905e-02    7.123387e-04
  1.551798e-02    6.671558e-04
  1.581691e-02    6.258219e-04
  1.611584e-02    5.859944e-04
  1.641477e-02    5.494256e-04
  1.671370e-02    5.161336e-04
  1.701263e-02    4.828326e-04
  1.731156e-02    4.607748e-04
  1.761049e-02    4.461306e-04
  1.790942e-02    4.261486e-04
  1.820835e-02    3.992800e-04
  1.850728e-02    3.833932e-04
  1.880621e-02    3.668641e-04
  1.910514e-02    3.476058e-04
  1.940407e-02    3.357664e-04
  1.970300e-02    3.220316e-04
  2.000193e-02    3.062908e-04
  2.030086e-02    2.917637e-04
  2.059979e-02    2.841730e-04
  2.089873e-02    2.736633e-04
  2.119766e-02    2.630741e-04
  2.149659e-02    2.572964e-04
  2.179552e-02    2.412907e-04
  2.209445e-02    2.344364e-04
  2.239338e-02    2.329954e-04
  2.269231e-02    2.275143e-04
  2.299124e-02    2.194810e-04
  2.329017e-02    2.153438e-04
  2.358910e-02    2.111096e-04
  2.388803e-02    2.007804e-04
  2.418696e-02    1.964519e-04
  2.448589e-02    1.907790e-04
  2.478482e-02    1.861098e-04
  2.508375e-02    1.821757e-04
  2.538268e-02    1.800497e-04
  2.568161e-02    1.751685e-04
  2.598054e-02    1.734200e-04
  2.627947e-02    1.703089e-04
  2.657840e-02    1.665139e-04
  2.687733e-02    1.619395e-04
  2.717626e-02    1.608266e-04
  2.747519e-02    1.610267e-04
  2.777412e-02    1.559476e-04
  2.807305e-02    1.543831e-04
  2.837198e-02    1.534294e-04
  2.867092e-02    1.502702e-04
  2.896985e-02    1.491455e-04
  2.926878e-02    1.438252e-04
  2.956771e-02    1.415222e-04
  2.986664e-02    1.427577e-04
  3.016557e-02    1.407839e-04
  3.046450e-02    1.392557e-04
  3.076343e-02    1.362309e-04
  3.106236e-02    1.361032e-04
  3.136129e-02    1.355528e-04
  3.166022e-02    1.315919e-04
  3.195915e-02    1.336614e-04
  3.225808e-02    1.301445e-04
  3.255701e-02    1.278997e-04
  3.285594e-02    1.281237e-04
  3.315487e-02    1.266413e-04
  3.345380e-02    1.235152e-04
  3.375273e-02    1.214817e-04
  3.405166e-02    1.210422e-04
  3.435059e-02    1.232581e-04
  3.464952e-02    1.215374e-04
  3.494845e-02    1.196744e-04
  3.524738e-02    1.192536e-04
  3.554631e-02    1.185120e-04
  3.584524e-02    1.157196e-04
  3.614417e-02    1.128404e-04
  3.644310e-02    1.132227e-04
  3.674204e-02    1.149599e-04
  3.704097e-02    1.142657e-04
  3.733990e-02    1.134707e-04
  3.763883e-02    1.106814e-04
  3.793776e-02    1.095377e-04
  3.823669e-02    1.105742e-04
  3.853562e-02    1.094393e-04
  3.883455e-02    1.108002e-04
  3.913348e-02    1.110104e-04
  3.943241e-02    1.086148e-04
  3.973134e-02    1.073624e-04
  4.003027e-02    1.081437e-04
  4.032920e-02    1.078235e-04
  4.062813e-02    1.052701e-04
  4.092706e-02    1.058341e-04
  4.122599e-02    1.049745e-04
  4.152492e-02    1.035205e-04
  4.182385e-02    1.031106e-04
  4.212278e-02    1.027000e-04
  4.242171e-02    1.040152e-04
  4.272064e-02    1.030177e-04
  4.301957e-02    1.020294e-04
  4.331850e-02    9.982731e-05
  4.361743e-02    1.009390e-04
  4.391636e-02    1.025337e-04
  4.421529e-02    1.022226e-04
  4.451423e-02    1.039614e-04
  4.481316e-02    1.023277e-04
  4.511209e-02    1.009093e-04
  4.541102e-02    1.005056e-04
  4.570995e-02    1.011461e-04
  4.600888e-02    1.003359e-04
  4.630781e-02    1.004906e-04
  4.660674e-02    1.010854e-04
  4.690567e-02    1.026282e-04
  4.720460e-02    1.016107e-04
  4.750353e-02    1.007431e-04
  4.780246e-02    1.010064e-04
  4.810139e-02    1.013072e-04
  4.840032e-02    1.005499e-04
  4.869925e-02    1.000375e-04
  4.899818e-02    1.010238e-04
  4.929711e-02    1.007723e-04
  4.959604e-02    1.008605e-04
  4.989497e-02    1.002073e-04
  5.019390e-02    9.907108e-05
  5.049283e-02    9.936428e-05
  5.079176e-02    1.000187e-04
  5.109069e-02    1.020690e-04
  5.138962e-02    1.025554e-04
  5.168855e-02    1.027557e-04
  5.198748e-02    1.024291e-04
  5.228642e-02    1.025054e-04
  5.258535e-02    1.006489e-04
  5.288428e-02    1.010378e-04
  5.318321e-02    1.032492e-04
  5.348214e-02    1.001706e-04
  5.378107e-02    9.927848e-05
  5.408000e-02    1.012394e-04
  5.437893e-02    1.013155e-04
  5.467786e-02    1.009417e-04
  5.497679e-02    1.012927e-04
  5.527572e-02    1.007197e-04
  5.557465e-02    1.015531e-04
  5.587358e-02    1.002627e-04
  5.617251e-02    1.010944e-04
  5.647144e-02    1.003774e-04
  5.677037e-02    1.010237e-04
  5.706930e-02    1.008504e-04
  5.736823e-02    9.974936e-05
  5.766716e-02    1.000189e-04
  5.796609e-02    1.012240e-04
  5.826502e-02    1.017420e-04
  5.856395e-02    1.011246e-04
  5.886288e-02    1.016972e-04
  5.916181e-02    1.024067e-04
  5.946074e-02    1.021051e-04
  5.975967e-02    1.028468e-04
  6.005861e-02    1.014832e-04
  6.035754e-02    1.006968e-04
  6.065647e-02    1.024620e-04
  6.095540e-02    1.020524e-04
  6.125433e-02    1.035604e-04
  6.155326e-02    1.063850e-04
  6.185219e-02    1.046449e-04
  6.215112e-02    1.038038e-04
  6.245005e-02    1.041724e-04
  6.274898e-02    1.046127e-04
  6.304791e-02    1.058347e-04
  6.334684e-02    1.043037e-04
  6.364577e-02    1.034848e-04
  6.394470e-02    1.037602e-04
  6.424363e-02    1.045184e-04
  6.454256e-02    1.048539e-04
  6.484149e-02    1.061005e-04
  6.514042e-02    1.043439e-04
  6.543935e-02    1.030443e-04
  6.573828e-02    1.036272e-04
  6.603721e-02    1.036402e-04
  6.633614e-02    1.040524e-04
  6.663507e-02    1.031210e-04
  6.693400e-02    1.040434e-04
  6.723293e-02    1.061358e-04
  6.753186e-02    1.061575e-04
  6.783080e-02    1.039834e-04
  6.812973e-02    1.051828e-04
  6.842866e-02    1.052710e-04
  6.872759e-02    1.052550e-04
  6.902652e-02    1.053055e-04
  6.932545e-02    1.062629e-04
  6.962438e-02    1.041455e-04
  6.992331e-02    1.049602e-04
  7.022224e-02    1.053739e-04
  7.052117e-02    1.064219e-04
  7.082010e-02    1.084616e-04
  7.111903e-02    1.073819e-04
  7.141796e-02    1.066915e-04
  7.171689e-02    1.072998e-04
  7.201582e-02    1.067738e-04
  7.231475e-02    1.081407e-04
  7.261368e-02    1.092222e-04
  7.291261e-02    1.075759e-04
  7.321154e-02    1.061048e-04
  7.351047e-02    1.057301e-04
  7.380940e-02    1.062388e-04
  7.410833e-02    1.067465e-04
  7.440726e-02    1.080606e-04
  7.470619e-02    1.087299e-04
  7.500512e-02    1.099635e-04
  7.530405e-02    1.076200e-04
  7.560299e-02    1.074063e-04
  7.590192e-02    1.079964e-04
  7.620085e-02    1.086452e-04
  7.649978e-02    1.090800e-04
  7.679871e-02    1.082979e-04
  7.709764e-02    1.086038e-04
  7.739657e-02    1.091876e-04
  7.769550e-02    1.080121e-04
  7.799443e-02    1.064706e-04
  7.829336e-02    1.065521e-04
  7.859229e-02    1.074583e-04
  7.889122e-02    1.081766e-04
  7.919015e-02    1.076127e-04
  7.948908e-02    1.065418e-04
  7.978801e-02    1.064400e-04
  8.008694e-02    1.054230e-04
  8.038587e-02    1.067446e-04
  8.068480e-02    1.079348e-04
  8.098373e-02    1.067742e-04
  8.128266e-02    1.045325e-04
  8.158159e-02    1.045427e-04
  8.188052e-02    1.053080e-04
  8.217945e-02    1.047002e-04
  8.247838e-02    1.060317e-04
  8.277731e-02    1.065744e-04
  8.307624e-02    1.047370e-04
  8.337518e-02    1.048620e-04
  8.367411e-02    1.046031e-04
  8.397304e-02    1.054717e-04
  8.427197e-02    1.059267e-04
  8.457090e-02    1.035701e-04
  8.486983e-02    1.037231e-04
  8.516876e-02    1.054129e-04
  8.546769e-02    1.062363e-04
  8.576662e-02    1.054018e-04
  8.606555e-02    1.034644e-04
  8.636448e-02    1.037065e-04
  8.666341e-02    1.046930e-04
  8.696234e-02    1.040708e-04
  8.726127e-02    1.031757e-04
  8.756020e-02    1.027732e-04
  8.785913e-02    1.022393e-04
  8.815806e-02    1.020714e-04
  8.845699e-02    1.036438e-04
  8.875592e-02    1.036673e-04
  8.905485e-02    1.030069e-04
  8.935378e-02    1.043732e-04
  8.965271e-02    1.026955e-04
  8.995164e-02    1.005796e-04
  9.025057e-02    1.003552e-04
  9.054950e-02    1.016999e-04
  9.084843e-02    1.005637e-04
  9.114737e-02    9.902401e-05
  9.144630e-02    9.886444e-05
  9.174523e-02    1.006384e-04
  9.204416e-02    1.001178e-04
  9.234309e-02    1.002542e-04
  9.264202e-02    1.011534e-04
  9.294095e-02    1.008519e-04
  9.323988e-02    9.832205e-05
  9.353881e-02    9.751030e-05
  9.383774e-02    9.707716e-05
  9.413667e-02    9.811283e-05
  9.443560e-02    9.877518e-05
  9.473453e-02    9.896178e-05
  9.503346e-02    9.895357e-05
  9.533239e-02    9.787064e-05
  9.563132e-02    9.827978e-05
  9.593025e-02    9.905793e-05
  9.622918e-02    9.877544e-05
  9.652811e-02    9.842631e-05
  9.682704e-02    9.825341e-05
  9.712597e-02    9.751314e-05
  9.742490e-02    9.833483e-05
  9.772383e-02    9.813823e-05
  9.802276e-02    9.536192e-05
  9.832169e-02    9.573291e-05
  9.862062e-02    9.780567e-05
  9.891956e-02    9.785629e-05
  9.921849e-02    9.726448e-05
  9.951742e-02    9.684543e-05
  9.981635e-02    9.532201e-05
  1.001153e-01    9.604324e-05
  1.004142e-01    9.749505e-05
  1.007131e-01    9.529566e-05
  1.010121e-01    9.313328e-05
  1.013110e-01    9.356836e-05
  1.016099e-01    9.390243e-05
  1.019089e-01    9.390345e-05
  1.022078e-01    9.482431e-05
  1.025067e-01    9.447006e-05
  1.028057e-01    9.288894e-05
  1.031046e-01    9.257068e-05
  1.034035e-01    9.314375e-05
  1.037024e-01    9.452924e-05
  1.040014e-01    9.391589e-05
  1.043003e-01    9.199070e-05
  1.045992e-01    9.084127e-05
  1.048982e-01    9.151368e-05
  1.051971e-01    9.382421e-05
  1.054960e-01    9.277462e-05
  1.057950e-01    9.091232e-05
  1.060939e-01    8.974518e-05
  1.063928e-01    9.126484e-05
  1.066917e-01    9.336130e-05
  1.069907e-01    9.257132e-05
  1.072896e-01    9.143066e-05
  1.075885e-01    8.992227e-05
  1.078875e-01    8.964398e-05
  1.081864e-01    9.039031e-05
  1.084853e-01    8.955561e-05
  1.087843e-01    8.833047e-05
  1.090832e-01    8.983945e-05
  1.093821e-01    8.987643e-05
  1.096810e-01    9.077366e-05
  1.099800e-01    8.962893e-05
  1.102789e-01    8.741754e-05
  1.105778e-01    8.852825e-05
  1.108768e-01    8.798587e-05
  1.111757e-01    8.785480e-05
  1.114746e-01    8.869162e-05
  1.117736e-01    8.950158e-05
  1.120725e-01    8.904199e-05
  1.123714e-01    9.010310e-05
  1.126704e-01    8.949505e-05
  1.129693e-01    8.840098e-05
  1.132682e-01    8.613347e-05
  1.135671e-01    8.432275e-05
  1.138661e-01    8.797686e-05
  1.141650e-01    8.868954e-05
  1.144639e-01    8.668767e-05
  1.147629e-01    8.719273e-05
  1.150618e-01    8.621632e-05
  1.153607e-01    8.420039e-05
  1.156597e-01    8.348631e-05
  1.159586e-01    8.857164e-05
  1.162575e-01    9.052252e-05
  1.165564e-01    8.822481e-05
  1.168554e-01    8.929997e-05
  1.171543e-01    8.719206e-05
  1.174532e-01    8.714935e-05
  1.177522e-01    8.847081e-05
  1.180511e-01    8.336926e-05
  1.183500e-01    8.382322e-05
  1.186490e-01    8.448140e-05
  1.189479e-01    7.976563e-05
  1.192468e-01    7.951661e-05
  1.195458e-01    8.259435e-05
  1.198447e-01    8.519216e-05
  1.201436e-01    8.831554e-05
  1.204425e-01    9.230103e-05
  1.207415e-01    9.077837e-05
  1.210404e-01    7.731434e-05
  1.213393e-01    0.000000e+00
  1.216383e-01    0.000000e+00
  1.219372e-01    0.000000e+00
  1.222361e-01    0.000000e+00
  1.225351e-01    0.000000e+00
  1.228340e-01    0.000000e+00
  1.231329e-01    0.000000e+00
  1.234318e-01    0.000000e+00
  1.237308e-01    0.000000e+00
  1.240297e-01    0.000000e+00
  1.243286e-01    0.000000e+00
  1.246276e-01    0.000000e+00
  1.249265e-01    0.000000e+00
  1.252254e-01    0.000000e+00
  1.255244e-01    0.000000e+00
  1.258233e-01    0.000000e+00
  1.261222e-01    0.000000e+00
  1.264212e-01    0.000000e+00
  1.267201e-01    0.000000e+00
  1.270190e-01    0.000000e+00
  1.273179e-01    0.000000e+00
  1.276169e-01    0.000000e+00
  1.279158e-01    0.000000e+00
  1.282147e-01    0.000000e+00
  1.285137e-01    0.000000e+00
  1.288126e-01    0.000000e+00
  1.291115e-01    0.000000e+00
  1.294105e-01    0.000000e+00
  1.297094e-01    0.000000e+00
  1.300083e-01    0.000000e+00
  1.303072e-01    0.000000e+00
  1.306062e-01    0.000000e+00
  1.309051e-01    0.000000e+00
  1.312040e-01    0.000000e+00
  1.315030e-01    0.000000e+00
  1.318019e-01    0.000000e+00
  1.321008e-01    0.000000e+00
  1.323998e-01    0.000000e+00
  1.326987e-01    0.000000e+00
  1.329976e-01    0.000000e+00
  1.332965e-01    0.000000e+00
  1.335955e-01    0.000000e+00
  1.338944e-01    0.000000e+00
  1.341933e-01    0.000000e+00
  1.344923e-01    0.000000e+00
  1.347912e-01    0.000000e+00
  1.350901e-01    0.000000e+00
  1.353891e-01    0.000000e+00
  1.356880e-01    0.000000e+00
  1.359869e-01    0.000000e+00
  1.362859e-01    0.000000e+00
  1.365848e-01    0.000000e+00
  1.368837e-01    0.000000e+00
  1.371826e-01    0.000000e+00
  1.374816e-01    0.000000e+00
  1.377805e-01    0.000000e+00
  1.380794e-01    0.000000e+00
  1.383784e-01    0.000000e+00
  1.386773e-01    0.000000e+00
  1.389762e-01    0.000000e+00
  1.392752e-01    0.000000e+00
  1.395741e-01    0.000000e+00
  1.398730e-01    0.000000e+00
  1.401719e-01    0.000000e+00
  1.404709e-01    0.000000e+00
  1.407698e-01    0.000000e+00
  1.410687e-01    0.000000e+00
  1.413677e-01    0.000000e+00
  1.416666e-01    0.000000e+00
  1.419655e-01    0.000000e+00
  1.422645e-01    0.000000e+00
  1.425634e-01    0.000000e+00
  1.428623e-01    0.000000e+00
  1.431613e-01    0.000000e+00
  1.434602e-01    0.000000e+00
  1.437591e-01    0.000000e+00
  1.440580e-01    0.000000e+00
  1.443570e-01    0.000000e+00
  1.446559e-01    0.000000e+00
  1.449548e-01    0.000000e+00
  1.452538e-01    0.000000e+00
  1.455527e-01    0.000000e+00
  1.458516e-01    0.000000e+00
  1.461506e-01    0.000000e+00
  1.464495e-01    0.000000e+00
  1.467484e-01    0.000000e+00
  1.470473e-01    0.000000e+00
  1.473463e-01    0.000000e+00
  1.476452e-01    0.000000e+00
  1.479441e-01    0.000000e+00
  1.482431e-01    0.000000e+00
  1.485420e-01    0.000000e+00
  1.488409e-01    0.000000e+00
  1.491399e-01    0.000000e+00
  1.494388e-01    0.000000e+00
  1.497377e-01    0.000000e+00
  1.500367e-01    0.000000e+00
  1.503356e-01    0.000000e+00
  1.506345e-01    0.000000e+00
  1.509334e-01    0.000000e+00
  1.512324e-01    0.000000e+00
  1.515313e-01    0.000000e+00
  1.518302e-01    0.000000e+00
  1.521292e-01    0.000000e+00
  1.524281e-01    0.000000e+00
  1.527270e-01    0.000000e+00
  1.530260e-01    0.000000e+00
  1.533249e-01    0.000000e+00
  1.536238e-01    0.000000e+00
