# == pyFAI calibration ==
# Distance Sample to Detector: 2.266 m
# PONI: 5.659e-02, 4.293e-02 m
# Rotations: 0.000000 0.000000 0.000000 rad
# 
# == Fit2d calibration ==
# Distance Sample-beamCenter: 2266.000 mm
# Center: x=249.594, y=329.012 pix
# Tilt: 0.000 deg  TiltPlanRot: 0.000 deg
# 
# Detector Pilatus 300k	 PixelSize= 1.720e-04, 1.720e-04 m
#    Detector has a mask: True 
#    Detector has a dark current: False 
#    detector has a flat field: False 
# 
# Wavelength: 1.27818e-10 m
# Mask applied: user provided
# Dark current applied: False
# Flat field applied: False
# Polarization factor: None
# Normalization factor: 24012.84
# --> MT-latex_CL3252_TiO2_R706_phiT_0.090_PVC_1.000_DOP_0.005_1_r1d.csv
#        q_A^-1             I 
  4.457554e-03    4.452270e-02
  4.756484e-03    3.539621e-02
  5.055415e-03    2.497023e-02
  5.354345e-03    1.728333e-02
  5.653276e-03    1.360262e-02
  5.952206e-03    2.194612e-02
  6.251136e-03    1.993370e-02
  6.550067e-03    1.749878e-02
  6.848997e-03    1.480804e-02
  7.147927e-03    1.246185e-02
  7.446858e-03    1.059556e-02
  7.745788e-03    9.077522e-03
  8.044719e-03    7.836301e-03
  8.343649e-03    6.803490e-03
  8.642579e-03    5.922630e-03
  8.941510e-03    5.180458e-03
  9.240440e-03    4.552573e-03
  9.539371e-03    4.059528e-03
  9.838301e-03    3.617670e-03
  1.013723e-02    3.230539e-03
  1.043616e-02    2.902142e-03
  1.073509e-02    2.593866e-03
  1.103402e-02    2.341544e-03
  1.133295e-02    2.096847e-03
  1.163188e-02    1.934609e-03
  1.193081e-02    1.768508e-03
  1.222974e-02    1.596472e-03
  1.252867e-02    1.478913e-03
  1.282760e-02    1.361958e-03
  1.312654e-02    1.220904e-03
  1.342547e-02    1.133282e-03
  1.372440e-02    1.057684e-03
  1.402333e-02    9.928648e-04
  1.432226e-02    9.255120e-04
  1.462119e-02    8.425832e-04
  1.492012e-02    7.874523e-04
  1.521905e-02    7.504511e-04
  1.551798e-02    6.955557e-04
  1.581691e-02    6.576313e-04
  1.611584e-02    6.297915e-04
  1.641477e-02    5.857975e-04
  1.671370e-02    5.432384e-04
  1.701263e-02    5.167818e-04
  1.731156e-02    4.908314e-04
  1.761049e-02    4.666076e-04
  1.790942e-02    4.319413e-04
  1.820835e-02    4.199500e-04
  1.850728e-02    4.018501e-04
  1.880621e-02    3.798819e-04
  1.910514e-02    3.692284e-04
  1.940407e-02    3.602272e-04
  1.970300e-02    3.373932e-04
  2.000193e-02    3.208957e-04
  2.030086e-02    3.042756e-04
  2.059979e-02    2.929148e-04
  2.089873e-02    2.779978e-04
  2.119766e-02    2.686806e-04
  2.149659e-02    2.632932e-04
  2.179552e-02    2.600218e-04
  2.209445e-02    2.558989e-04
  2.239338e-02    2.481522e-04
  2.269231e-02    2.392699e-04
  2.299124e-02    2.304982e-04
  2.329017e-02    2.221930e-04
  2.358910e-02    2.201445e-04
  2.388803e-02    2.141240e-04
  2.418696e-02    2.069509e-04
  2.448589e-02    2.032412e-04
  2.478482e-02    2.000024e-04
  2.508375e-02    1.936215e-04
  2.538268e-02    1.934421e-04
  2.568161e-02    1.914275e-04
  2.598054e-02    1.862164e-04
  2.627947e-02    1.868806e-04
  2.657840e-02    1.787200e-04
  2.687733e-02    1.770052e-04
  2.717626e-02    1.739634e-04
  2.747519e-02    1.684493e-04
  2.777412e-02    1.659651e-04
  2.807305e-02    1.672714e-04
  2.837198e-02    1.647518e-04
  2.867092e-02    1.620018e-04
  2.896985e-02    1.589084e-04
  2.926878e-02    1.544784e-04
  2.956771e-02    1.500180e-04
  2.986664e-02    1.527745e-04
  3.016557e-02    1.513839e-04
  3.046450e-02    1.489548e-04
  3.076343e-02    1.480370e-04
  3.106236e-02    1.474987e-04
  3.136129e-02    1.461167e-04
  3.166022e-02    1.422184e-04
  3.195915e-02    1.414193e-04
  3.225808e-02    1.426760e-04
  3.255701e-02    1.373382e-04
  3.285594e-02    1.355582e-04
  3.315487e-02    1.378813e-04
  3.345380e-02    1.369283e-04
  3.375273e-02    1.371199e-04
  3.405166e-02    1.356138e-04
  3.435059e-02    1.361121e-04
  3.464952e-02    1.362683e-04
  3.494845e-02    1.369373e-04
  3.524738e-02    1.300052e-04
  3.554631e-02    1.283514e-04
  3.584524e-02    1.273504e-04
  3.614417e-02    1.284719e-04
  3.644310e-02    1.242614e-04
  3.674204e-02    1.193619e-04
  3.704097e-02    1.203957e-04
  3.733990e-02    1.221227e-04
  3.763883e-02    1.186365e-04
  3.793776e-02    1.183377e-04
  3.823669e-02    1.188958e-04
  3.853562e-02    1.148077e-04
  3.883455e-02    1.178517e-04
  3.913348e-02    1.139293e-04
  3.943241e-02    1.110738e-04
  3.973134e-02    1.133988e-04
  4.003027e-02    1.149826e-04
  4.032920e-02    1.104711e-04
  4.062813e-02    1.102490e-04
  4.092706e-02    1.144577e-04
  4.122599e-02    1.123037e-04
  4.152492e-02    1.108983e-04
  4.182385e-02    1.106959e-04
  4.212278e-02    1.099377e-04
  4.242171e-02    1.058256e-04
  4.272064e-02    1.054986e-04
  4.301957e-02    1.082020e-04
  4.331850e-02    1.111539e-04
  4.361743e-02    1.087889e-04
  4.391636e-02    1.129650e-04
  4.421529e-02    1.100387e-04
  4.451423e-02    1.083680e-04
  4.481316e-02    1.058631e-04
  4.511209e-02    1.047277e-04
  4.541102e-02    1.061356e-04
  4.570995e-02    1.071344e-04
  4.600888e-02    1.060041e-04
  4.630781e-02    1.064303e-04
  4.660674e-02    1.049025e-04
  4.690567e-02    1.064689e-04
  4.720460e-02    1.034232e-04
  4.750353e-02    1.041474e-04
  4.780246e-02    1.057860e-04
  4.810139e-02    1.085495e-04
  4.840032e-02    1.072184e-04
  4.869925e-02    1.069227e-04
  4.899818e-02    1.039460e-04
  4.929711e-02    1.014649e-04
  4.959604e-02    1.041791e-04
  4.989497e-02    1.066468e-04
  5.019390e-02    1.061534e-04
  5.049283e-02    1.058756e-04
  5.079176e-02    1.015323e-04
  5.109069e-02    1.031078e-04
  5.138962e-02    1.068018e-04
  5.168855e-02    1.092992e-04
  5.198748e-02    1.115518e-04
  5.228642e-02    1.090472e-04
  5.258535e-02    1.033674e-04
  5.288428e-02    1.028478e-04
  5.318321e-02    1.023919e-04
  5.348214e-02    1.029556e-04
  5.378107e-02    1.037808e-04
  5.408000e-02    1.035416e-04
  5.437893e-02    1.031207e-04
  5.467786e-02    1.049156e-04
  5.497679e-02    1.079856e-04
  5.527572e-02    1.085737e-04
  5.557465e-02    1.088824e-04
  5.587358e-02    1.068556e-04
  5.617251e-02    1.069711e-04
  5.647144e-02    1.065614e-04
  5.677037e-02    1.030117e-04
  5.706930e-02    1.020862e-04
  5.736823e-02    1.028176e-04
  5.766716e-02    1.031846e-04
  5.796609e-02    1.027214e-04
  5.826502e-02    1.067023e-04
  5.856395e-02    1.083772e-04
  5.886288e-02    1.048392e-04
  5.916181e-02    1.063791e-04
  5.946074e-02    1.062711e-04
  5.975967e-02    1.033178e-04
  6.005861e-02    1.050237e-04
  6.035754e-02    1.070909e-04
  6.065647e-02    1.071807e-04
  6.095540e-02    1.069771e-04
  6.125433e-02    1.060188e-04
  6.155326e-02    1.093154e-04
  6.185219e-02    1.103601e-04
  6.215112e-02    1.085569e-04
  6.245005e-02    1.072239e-04
  6.274898e-02    1.043614e-04
  6.304791e-02    1.054861e-04
  6.334684e-02    1.081208e-04
  6.364577e-02    1.078095e-04
  6.394470e-02    1.080359e-04
  6.424363e-02    1.084358e-04
  6.454256e-02    1.081432e-04
  6.484149e-02    1.078037e-04
  6.514042e-02    1.085617e-04
  6.543935e-02    1.081981e-04
  6.573828e-02    1.080084e-04
  6.603721e-02    1.083566e-04
  6.633614e-02    1.078473e-04
  6.663507e-02    1.051623e-04
  6.693400e-02    1.092998e-04
  6.723293e-02    1.116534e-04
  6.753186e-02    1.114070e-04
  6.783080e-02    1.105008e-04
  6.812973e-02    1.110090e-04
  6.842866e-02    1.086001e-04
  6.872759e-02    1.077949e-04
  6.902652e-02    1.105238e-04
  6.932545e-02    1.118164e-04
  6.962438e-02    1.112657e-04
  6.992331e-02    1.121794e-04
  7.022224e-02    1.127702e-04
  7.052117e-02    1.106772e-04
  7.082010e-02    1.100151e-04
  7.111903e-02    1.086623e-04
  7.141796e-02    1.096880e-04
  7.171689e-02    1.100430e-04
  7.201582e-02    1.117914e-04
  7.231475e-02    1.117073e-04
  7.261368e-02    1.145826e-04
  7.291261e-02    1.124676e-04
  7.321154e-02    1.136983e-04
  7.351047e-02    1.124145e-04
  7.380940e-02    1.098067e-04
  7.410833e-02    1.111834e-04
  7.440726e-02    1.140356e-04
  7.470619e-02    1.121025e-04
  7.500512e-02    1.112376e-04
  7.530405e-02    1.081874e-04
  7.560299e-02    1.081340e-04
  7.590192e-02    1.103231e-04
  7.620085e-02    1.120964e-04
  7.649978e-02    1.108761e-04
  7.679871e-02    1.093197e-04
  7.709764e-02    1.120340e-04
  7.739657e-02    1.121177e-04
  7.769550e-02    1.097677e-04
  7.799443e-02    1.102233e-04
  7.829336e-02    1.102246e-04
  7.859229e-02    1.097519e-04
  7.889122e-02    1.117716e-04
  7.919015e-02    1.093644e-04
  7.948908e-02    1.097802e-04
  7.978801e-02    1.105375e-04
  8.008694e-02    1.120795e-04
  8.038587e-02    1.136671e-04
  8.068480e-02    1.113219e-04
  8.098373e-02    1.076195e-04
  8.128266e-02    1.079782e-04
  8.158159e-02    1.095171e-04
  8.188052e-02    1.098284e-04
  8.217945e-02    1.088191e-04
  8.247838e-02    1.063858e-04
  8.277731e-02    1.089365e-04
  8.307624e-02    1.093409e-04
  8.337518e-02    1.087451e-04
  8.367411e-02    1.089664e-04
  8.397304e-02    1.067491e-04
  8.427197e-02    1.070192e-04
  8.457090e-02    1.074177e-04
  8.486983e-02    1.059268e-04
  8.516876e-02    1.065380e-04
  8.546769e-02    1.057081e-04
  8.576662e-02    1.068845e-04
  8.606555e-02    1.101895e-04
  8.636448e-02    1.067324e-04
  8.666341e-02    1.070422e-04
  8.696234e-02    1.085732e-04
  8.726127e-02    1.092421e-04
  8.756020e-02    1.084457e-04
  8.785913e-02    1.061521e-04
  8.815806e-02    1.061158e-04
  8.845699e-02    1.033993e-04
  8.875592e-02    1.038097e-04
  8.905485e-02    1.041805e-04
  8.935378e-02    1.061557e-04
  8.965271e-02    1.057699e-04
  8.995164e-02    1.033173e-04
  9.025057e-02    1.037293e-04
  9.054950e-02    1.022444e-04
  9.084843e-02    1.018806e-04
  9.114737e-02    1.020251e-04
  9.144630e-02    1.042118e-04
  9.174523e-02    1.061002e-04
  9.204416e-02    1.039616e-04
  9.234309e-02    1.020572e-04
  9.264202e-02    1.022553e-04
  9.294095e-02    1.049994e-04
  9.323988e-02    1.048492e-04
  9.353881e-02    1.035528e-04
  9.383774e-02    1.052587e-04
  9.413667e-02    1.043088e-04
  9.443560e-02    1.025490e-04
  9.473453e-02    1.044949e-04
  9.503346e-02    1.040439e-04
  9.533239e-02    1.018829e-04
  9.563132e-02    1.001998e-04
  9.593025e-02    1.004921e-04
  9.622918e-02    1.030165e-04
  9.652811e-02    1.017513e-04
  9.682704e-02    1.001120e-04
  9.712597e-02    1.017907e-04
  9.742490e-02    1.019161e-04
  9.772383e-02    1.020677e-04
  9.802276e-02    1.002362e-04
  9.832169e-02    9.899658e-05
  9.862062e-02    1.021943e-04
  9.891956e-02    1.005577e-04
  9.921849e-02    9.911043e-05
  9.951742e-02    1.002932e-04
  9.981635e-02    9.879935e-05
  1.001153e-01    9.730022e-05
  1.004142e-01    9.731195e-05
  1.007131e-01    9.733211e-05
  1.010121e-01    9.709717e-05
  1.013110e-01    9.504322e-05
  1.016099e-01    9.329445e-05
  1.019089e-01    9.234625e-05
  1.022078e-01    9.576882e-05
  1.025067e-01    9.651609e-05
  1.028057e-01    9.485972e-05
  1.031046e-01    9.607238e-05
  1.034035e-01    9.453839e-05
  1.037024e-01    9.488116e-05
  1.040014e-01    9.646469e-05
  1.043003e-01    9.547944e-05
  1.045992e-01    9.483354e-05
  1.048982e-01    9.604348e-05
  1.051971e-01    9.631368e-05
  1.054960e-01    9.450535e-05
  1.057950e-01    9.583189e-05
  1.060939e-01    9.293744e-05
  1.063928e-01    9.252337e-05
  1.066917e-01    9.339952e-05
  1.069907e-01    9.426783e-05
  1.072896e-01    9.294261e-05
  1.075885e-01    9.320478e-05
  1.078875e-01    9.201086e-05
  1.081864e-01    9.147663e-05
  1.084853e-01    9.376198e-05
  1.087843e-01    9.366977e-05
  1.090832e-01    9.415737e-05
  1.093821e-01    9.311047e-05
  1.096810e-01    9.170503e-05
  1.099800e-01    9.158453e-05
  1.102789e-01    9.094916e-05
  1.105778e-01    9.197672e-05
  1.108768e-01    9.173636e-05
  1.111757e-01    9.131436e-05
  1.114746e-01    9.429461e-05
  1.117736e-01    9.132937e-05
  1.120725e-01    8.608942e-05
  1.123714e-01    8.795914e-05
  1.126704e-01    9.140559e-05
  1.129693e-01    8.959992e-05
  1.132682e-01    8.822807e-05
  1.135671e-01    9.271026e-05
  1.138661e-01    8.950379e-05
  1.141650e-01    8.594057e-05
  1.144639e-01    9.257830e-05
  1.147629e-01    9.031514e-05
  1.150618e-01    8.529955e-05
  1.153607e-01    8.533822e-05
  1.156597e-01    8.481707e-05
  1.159586e-01    8.916001e-05
  1.162575e-01    9.146236e-05
  1.165564e-01    8.562838e-05
  1.168554e-01    8.441963e-05
  1.171543e-01    8.819432e-05
  1.174532e-01    8.324892e-05
  1.177522e-01    8.504578e-05
  1.180511e-01    8.867412e-05
  1.183500e-01    8.448357e-05
  1.186490e-01    8.497030e-05
  1.189479e-01    8.635969e-05
  1.192468e-01    8.732398e-05
  1.195458e-01    8.951750e-05
  1.198447e-01    8.900416e-05
  1.201436e-01    8.588097e-05
  1.204425e-01    8.802989e-05
  1.207415e-01    7.286113e-05
  1.210404e-01    8.336422e-05
  1.213393e-01    0.000000e+00
  1.216383e-01    0.000000e+00
  1.219372e-01    0.000000e+00
  1.222361e-01    0.000000e+00
  1.225351e-01    0.000000e+00
  1.228340e-01    0.000000e+00
  1.231329e-01    0.000000e+00
  1.234318e-01    0.000000e+00
  1.237308e-01    0.000000e+00
  1.240297e-01    0.000000e+00
  1.243286e-01    0.000000e+00
  1.246276e-01    0.000000e+00
  1.249265e-01    0.000000e+00
  1.252254e-01    0.000000e+00
  1.255244e-01    0.000000e+00
  1.258233e-01    0.000000e+00
  1.261222e-01    0.000000e+00
  1.264212e-01    0.000000e+00
  1.267201e-01    0.000000e+00
  1.270190e-01    0.000000e+00
  1.273179e-01    0.000000e+00
  1.276169e-01    0.000000e+00
  1.279158e-01    0.000000e+00
  1.282147e-01    0.000000e+00
  1.285137e-01    0.000000e+00
  1.288126e-01    0.000000e+00
  1.291115e-01    0.000000e+00
  1.294105e-01    0.000000e+00
  1.297094e-01    0.000000e+00
  1.300083e-01    0.000000e+00
  1.303072e-01    0.000000e+00
  1.306062e-01    0.000000e+00
  1.309051e-01    0.000000e+00
  1.312040e-01    0.000000e+00
  1.315030e-01    0.000000e+00
  1.318019e-01    0.000000e+00
  1.321008e-01    0.000000e+00
  1.323998e-01    0.000000e+00
  1.326987e-01    0.000000e+00
  1.329976e-01    0.000000e+00
  1.332965e-01    0.000000e+00
  1.335955e-01    0.000000e+00
  1.338944e-01    0.000000e+00
  1.341933e-01    0.000000e+00
  1.344923e-01    0.000000e+00
  1.347912e-01    0.000000e+00
  1.350901e-01    0.000000e+00
  1.353891e-01    0.000000e+00
  1.356880e-01    0.000000e+00
  1.359869e-01    0.000000e+00
  1.362859e-01    0.000000e+00
  1.365848e-01    0.000000e+00
  1.368837e-01    0.000000e+00
  1.371826e-01    0.000000e+00
  1.374816e-01    0.000000e+00
  1.377805e-01    0.000000e+00
  1.380794e-01    0.000000e+00
  1.383784e-01    0.000000e+00
  1.386773e-01    0.000000e+00
  1.389762e-01    0.000000e+00
  1.392752e-01    0.000000e+00
  1.395741e-01    0.000000e+00
  1.398730e-01    0.000000e+00
  1.401719e-01    0.000000e+00
  1.404709e-01    0.000000e+00
  1.407698e-01    0.000000e+00
  1.410687e-01    0.000000e+00
  1.413677e-01    0.000000e+00
  1.416666e-01    0.000000e+00
  1.419655e-01    0.000000e+00
  1.422645e-01    0.000000e+00
  1.425634e-01    0.000000e+00
  1.428623e-01    0.000000e+00
  1.431613e-01    0.000000e+00
  1.434602e-01    0.000000e+00
  1.437591e-01    0.000000e+00
  1.440580e-01    0.000000e+00
  1.443570e-01    0.000000e+00
  1.446559e-01    0.000000e+00
  1.449548e-01    0.000000e+00
  1.452538e-01    0.000000e+00
  1.455527e-01    0.000000e+00
  1.458516e-01    0.000000e+00
  1.461506e-01    0.000000e+00
  1.464495e-01    0.000000e+00
  1.467484e-01    0.000000e+00
  1.470473e-01    0.000000e+00
  1.473463e-01    0.000000e+00
  1.476452e-01    0.000000e+00
  1.479441e-01    0.000000e+00
  1.482431e-01    0.000000e+00
  1.485420e-01    0.000000e+00
  1.488409e-01    0.000000e+00
  1.491399e-01    0.000000e+00
  1.494388e-01    0.000000e+00
  1.497377e-01    0.000000e+00
  1.500367e-01    0.000000e+00
  1.503356e-01    0.000000e+00
  1.506345e-01    0.000000e+00
  1.509334e-01    0.000000e+00
  1.512324e-01    0.000000e+00
  1.515313e-01    0.000000e+00
  1.518302e-01    0.000000e+00
  1.521292e-01    0.000000e+00
  1.524281e-01    0.000000e+00
  1.527270e-01    0.000000e+00
  1.530260e-01    0.000000e+00
  1.533249e-01    0.000000e+00
  1.536238e-01    0.000000e+00
