# == pyFAI calibration ==
# Distance Sample to Detector: 2.266 m
# PONI: 5.659e-02, 4.293e-02 m
# Rotations: 0.000000 0.000000 0.000000 rad
# 
# == Fit2d calibration ==
# Distance Sample-beamCenter: 2266.000 mm
# Center: x=249.594, y=329.012 pix
# Tilt: 0.000 deg  TiltPlanRot: 0.000 deg
# 
# Detector Pilatus 300k	 PixelSize= 1.720e-04, 1.720e-04 m
#    Detector has a mask: True 
#    Detector has a dark current: False 
#    detector has a flat field: False 
# 
# Wavelength: 1.27818e-10 m
# Mask applied: user provided
# Dark current applied: False
# Flat field applied: False
# Polarization factor: None
# Normalization factor: 61235.26999999999
# --> MT-latex_CL3252_TiO2_R706_phiT_0.030_PVC_0.400_DOP_0.000_2_r1d.csv
#        q_A^-1             I 
  4.457554e-03    5.022442e-02
  4.756484e-03    4.041514e-02
  5.055415e-03    2.994606e-02
  5.354345e-03    2.252832e-02
  5.653276e-03    1.828814e-02
  5.952206e-03    3.028032e-02
  6.251136e-03    2.790347e-02
  6.550067e-03    2.420358e-02
  6.848997e-03    2.051258e-02
  7.147927e-03    1.731059e-02
  7.446858e-03    1.477542e-02
  7.745788e-03    1.267572e-02
  8.044719e-03    1.085118e-02
  8.343649e-03    9.413765e-03
  8.642579e-03    8.231302e-03
  8.941510e-03    7.231237e-03
  9.240440e-03    6.361859e-03
  9.539371e-03    5.655968e-03
  9.838301e-03    5.016122e-03
  1.013723e-02    4.493002e-03
  1.043616e-02    4.031481e-03
  1.073509e-02    3.609738e-03
  1.103402e-02    3.270817e-03
  1.133295e-02    2.957041e-03
  1.163188e-02    2.676929e-03
  1.193081e-02    2.430780e-03
  1.222974e-02    2.220850e-03
  1.252867e-02    2.041958e-03
  1.282760e-02    1.862201e-03
  1.312654e-02    1.713172e-03
  1.342547e-02    1.589643e-03
  1.372440e-02    1.467942e-03
  1.402333e-02    1.353303e-03
  1.432226e-02    1.254756e-03
  1.462119e-02    1.153496e-03
  1.492012e-02    1.068176e-03
  1.521905e-02    1.003805e-03
  1.551798e-02    9.396903e-04
  1.581691e-02    8.758833e-04
  1.611584e-02    8.212204e-04
  1.641477e-02    7.661440e-04
  1.671370e-02    7.181998e-04
  1.701263e-02    6.796604e-04
  1.731156e-02    6.482464e-04
  1.761049e-02    6.139184e-04
  1.790942e-02    5.764569e-04
  1.820835e-02    5.471254e-04
  1.850728e-02    5.224514e-04
  1.880621e-02    4.951669e-04
  1.910514e-02    4.677248e-04
  1.940407e-02    4.413105e-04
  1.970300e-02    4.234359e-04
  2.000193e-02    4.050385e-04
  2.030086e-02    3.881479e-04
  2.059979e-02    3.753075e-04
  2.089873e-02    3.543269e-04
  2.119766e-02    3.343959e-04
  2.149659e-02    3.240328e-04
  2.179552e-02    3.139007e-04
  2.209445e-02    3.034528e-04
  2.239338e-02    2.947261e-04
  2.269231e-02    2.855306e-04
  2.299124e-02    2.788334e-04
  2.329017e-02    2.666245e-04
  2.358910e-02    2.564913e-04
  2.388803e-02    2.472157e-04
  2.418696e-02    2.376766e-04
  2.448589e-02    2.360171e-04
  2.478482e-02    2.282234e-04
  2.508375e-02    2.200287e-04
  2.538268e-02    2.142581e-04
  2.568161e-02    2.085191e-04
  2.598054e-02    2.024638e-04
  2.627947e-02    1.993149e-04
  2.657840e-02    1.963560e-04
  2.687733e-02    1.920630e-04
  2.717626e-02    1.871354e-04
  2.747519e-02    1.832440e-04
  2.777412e-02    1.833685e-04
  2.807305e-02    1.767963e-04
  2.837198e-02    1.718959e-04
  2.867092e-02    1.688275e-04
  2.896985e-02    1.661573e-04
  2.926878e-02    1.646223e-04
  2.956771e-02    1.630472e-04
  2.986664e-02    1.620832e-04
  3.016557e-02    1.603691e-04
  3.046450e-02    1.573603e-04
  3.076343e-02    1.534574e-04
  3.106236e-02    1.494515e-04
  3.136129e-02    1.467608e-04
  3.166022e-02    1.458547e-04
  3.195915e-02    1.472374e-04
  3.225808e-02    1.451896e-04
  3.255701e-02    1.407095e-04
  3.285594e-02    1.405307e-04
  3.315487e-02    1.421419e-04
  3.345380e-02    1.378240e-04
  3.375273e-02    1.322322e-04
  3.405166e-02    1.333679e-04
  3.435059e-02    1.336332e-04
  3.464952e-02    1.301565e-04
  3.494845e-02    1.314097e-04
  3.524738e-02    1.282630e-04
  3.554631e-02    1.258758e-04
  3.584524e-02    1.269432e-04
  3.614417e-02    1.261750e-04
  3.644310e-02    1.236699e-04
  3.674204e-02    1.224596e-04
  3.704097e-02    1.207616e-04
  3.733990e-02    1.196379e-04
  3.763883e-02    1.200054e-04
  3.793776e-02    1.187856e-04
  3.823669e-02    1.162506e-04
  3.853562e-02    1.177278e-04
  3.883455e-02    1.158139e-04
  3.913348e-02    1.144366e-04
  3.943241e-02    1.139688e-04
  3.973134e-02    1.120012e-04
  4.003027e-02    1.125004e-04
  4.032920e-02    1.142415e-04
  4.062813e-02    1.126321e-04
  4.092706e-02    1.115383e-04
  4.122599e-02    1.126809e-04
  4.152492e-02    1.126188e-04
  4.182385e-02    1.128024e-04
  4.212278e-02    1.107897e-04
  4.242171e-02    1.085903e-04
  4.272064e-02    1.090021e-04
  4.301957e-02    1.086175e-04
  4.331850e-02    1.080524e-04
  4.361743e-02    1.088271e-04
  4.391636e-02    1.088674e-04
  4.421529e-02    1.079699e-04
  4.451423e-02    1.071804e-04
  4.481316e-02    1.064235e-04
  4.511209e-02    1.065069e-04
  4.541102e-02    1.056742e-04
  4.570995e-02    1.065636e-04
  4.600888e-02    1.065319e-04
  4.630781e-02    1.055771e-04
  4.660674e-02    1.050566e-04
  4.690567e-02    1.046017e-04
  4.720460e-02    1.058639e-04
  4.750353e-02    1.052488e-04
  4.780246e-02    1.043548e-04
  4.810139e-02    1.051841e-04
  4.840032e-02    1.062472e-04
  4.869925e-02    1.061141e-04
  4.899818e-02    1.056043e-04
  4.929711e-02    1.072584e-04
  4.959604e-02    1.068396e-04
  4.989497e-02    1.044448e-04
  5.019390e-02    1.042477e-04
  5.049283e-02    1.045233e-04
  5.079176e-02    1.063253e-04
  5.109069e-02    1.074282e-04
  5.138962e-02    1.067800e-04
  5.168855e-02    1.078505e-04
  5.198748e-02    1.100927e-04
  5.228642e-02    1.089021e-04
  5.258535e-02    1.068525e-04
  5.288428e-02    1.063074e-04
  5.318321e-02    1.065226e-04
  5.348214e-02    1.067588e-04
  5.378107e-02    1.064544e-04
  5.408000e-02    1.071540e-04
  5.437893e-02    1.063727e-04
  5.467786e-02    1.050316e-04
  5.497679e-02    1.056598e-04
  5.527572e-02    1.058447e-04
  5.557465e-02    1.049951e-04
  5.587358e-02    1.049839e-04
  5.617251e-02    1.041434e-04
  5.647144e-02    1.064412e-04
  5.677037e-02    1.081515e-04
  5.706930e-02    1.084535e-04
  5.736823e-02    1.082863e-04
  5.766716e-02    1.067057e-04
  5.796609e-02    1.062704e-04
  5.826502e-02    1.065369e-04
  5.856395e-02    1.063979e-04
  5.886288e-02    1.054062e-04
  5.916181e-02    1.070932e-04
  5.946074e-02    1.069463e-04
  5.975967e-02    1.080355e-04
  6.005861e-02    1.098569e-04
  6.035754e-02    1.093150e-04
  6.065647e-02    1.082072e-04
  6.095540e-02    1.079087e-04
  6.125433e-02    1.096802e-04
  6.155326e-02    1.103215e-04
  6.185219e-02    1.096196e-04
  6.215112e-02    1.086065e-04
  6.245005e-02    1.099127e-04
  6.274898e-02    1.090870e-04
  6.304791e-02    1.090542e-04
  6.334684e-02    1.095728e-04
  6.364577e-02    1.102369e-04
  6.394470e-02    1.123163e-04
  6.424363e-02    1.115098e-04
  6.454256e-02    1.107698e-04
  6.484149e-02    1.114373e-04
  6.514042e-02    1.117147e-04
  6.543935e-02    1.101058e-04
  6.573828e-02    1.095065e-04
  6.603721e-02    1.097453e-04
  6.633614e-02    1.094281e-04
  6.663507e-02    1.098836e-04
  6.693400e-02    1.108101e-04
  6.723293e-02    1.118660e-04
  6.753186e-02    1.125807e-04
  6.783080e-02    1.131725e-04
  6.812973e-02    1.123001e-04
  6.842866e-02    1.125987e-04
  6.872759e-02    1.122426e-04
  6.902652e-02    1.132317e-04
  6.932545e-02    1.132110e-04
  6.962438e-02    1.134484e-04
  6.992331e-02    1.120609e-04
  7.022224e-02    1.117160e-04
  7.052117e-02    1.131936e-04
  7.082010e-02    1.128557e-04
  7.111903e-02    1.142794e-04
  7.141796e-02    1.147515e-04
  7.171689e-02    1.134999e-04
  7.201582e-02    1.125585e-04
  7.231475e-02    1.141371e-04
  7.261368e-02    1.149552e-04
  7.291261e-02    1.146429e-04
  7.321154e-02    1.130442e-04
  7.351047e-02    1.128749e-04
  7.380940e-02    1.130306e-04
  7.410833e-02    1.131003e-04
  7.440726e-02    1.141939e-04
  7.470619e-02    1.153748e-04
  7.500512e-02    1.153663e-04
  7.530405e-02    1.141667e-04
  7.560299e-02    1.146740e-04
  7.590192e-02    1.133805e-04
  7.620085e-02    1.136619e-04
  7.649978e-02    1.144522e-04
  7.679871e-02    1.147210e-04
  7.709764e-02    1.145138e-04
  7.739657e-02    1.133543e-04
  7.769550e-02    1.156534e-04
  7.799443e-02    1.164609e-04
  7.829336e-02    1.144431e-04
  7.859229e-02    1.123339e-04
  7.889122e-02    1.141208e-04
  7.919015e-02    1.131740e-04
  7.948908e-02    1.104901e-04
  7.978801e-02    1.116384e-04
  8.008694e-02    1.115202e-04
  8.038587e-02    1.129972e-04
  8.068480e-02    1.138928e-04
  8.098373e-02    1.136376e-04
  8.128266e-02    1.123011e-04
  8.158159e-02    1.119371e-04
  8.188052e-02    1.111083e-04
  8.217945e-02    1.122196e-04
  8.247838e-02    1.133016e-04
  8.277731e-02    1.122427e-04
  8.307624e-02    1.115230e-04
  8.337518e-02    1.115615e-04
  8.367411e-02    1.105950e-04
  8.397304e-02    1.108263e-04
  8.427197e-02    1.105780e-04
  8.457090e-02    1.111556e-04
  8.486983e-02    1.108395e-04
  8.516876e-02    1.107970e-04
  8.546769e-02    1.116438e-04
  8.576662e-02    1.116580e-04
  8.606555e-02    1.106415e-04
  8.636448e-02    1.100381e-04
  8.666341e-02    1.099545e-04
  8.696234e-02    1.109507e-04
  8.726127e-02    1.100565e-04
  8.756020e-02    1.091036e-04
  8.785913e-02    1.080480e-04
  8.815806e-02    1.071518e-04
  8.845699e-02    1.079770e-04
  8.875592e-02    1.091160e-04
  8.905485e-02    1.090732e-04
  8.935378e-02    1.090711e-04
  8.965271e-02    1.098631e-04
  8.995164e-02    1.076065e-04
  9.025057e-02    1.053751e-04
  9.054950e-02    1.063294e-04
  9.084843e-02    1.068614e-04
  9.114737e-02    1.082404e-04
  9.144630e-02    1.080915e-04
  9.174523e-02    1.071011e-04
  9.204416e-02    1.078665e-04
  9.234309e-02    1.059206e-04
  9.264202e-02    1.051227e-04
  9.294095e-02    1.047213e-04
  9.323988e-02    1.049009e-04
  9.353881e-02    1.055319e-04
  9.383774e-02    1.060835e-04
  9.413667e-02    1.050867e-04
  9.443560e-02    1.036268e-04
  9.473453e-02    1.040415e-04
  9.503346e-02    1.042999e-04
  9.533239e-02    1.052131e-04
  9.563132e-02    1.049889e-04
  9.593025e-02    1.035849e-04
  9.622918e-02    1.033611e-04
  9.652811e-02    1.041353e-04
  9.682704e-02    1.049341e-04
  9.712597e-02    1.032381e-04
  9.742490e-02    1.019364e-04
  9.772383e-02    1.015681e-04
  9.802276e-02    1.024893e-04
  9.832169e-02    1.024255e-04
  9.862062e-02    1.016600e-04
  9.891956e-02    1.018517e-04
  9.921849e-02    1.016249e-04
  9.951742e-02    1.013973e-04
  9.981635e-02    9.988129e-05
  1.001153e-01    9.957689e-05
  1.004142e-01    1.004494e-04
  1.007131e-01    9.987955e-05
  1.010121e-01    1.022104e-04
  1.013110e-01    1.007035e-04
  1.016099e-01    9.915113e-05
  1.019089e-01    9.804543e-05
  1.022078e-01    9.901653e-05
  1.025067e-01    9.857852e-05
  1.028057e-01    9.737383e-05
  1.031046e-01    9.846689e-05
  1.034035e-01    9.828431e-05
  1.037024e-01    9.792324e-05
  1.040014e-01    9.909159e-05
  1.043003e-01    9.898074e-05
  1.045992e-01    9.814211e-05
  1.048982e-01    9.693535e-05
  1.051971e-01    9.662533e-05
  1.054960e-01    9.774379e-05
  1.057950e-01    9.616945e-05
  1.060939e-01    9.484700e-05
  1.063928e-01    9.594787e-05
  1.066917e-01    9.646884e-05
  1.069907e-01    9.678053e-05
  1.072896e-01    9.673205e-05
  1.075885e-01    9.607724e-05
  1.078875e-01    9.617180e-05
  1.081864e-01    9.673732e-05
  1.084853e-01    9.568825e-05
  1.087843e-01    9.610313e-05
  1.090832e-01    9.573971e-05
  1.093821e-01    9.490080e-05
  1.096810e-01    9.459579e-05
  1.099800e-01    9.436110e-05
  1.102789e-01    9.525173e-05
  1.105778e-01    9.544320e-05
  1.108768e-01    9.369724e-05
  1.111757e-01    9.233040e-05
  1.114746e-01    9.290937e-05
  1.117736e-01    9.269331e-05
  1.120725e-01    9.304171e-05
  1.123714e-01    9.440808e-05
  1.126704e-01    9.528729e-05
  1.129693e-01    9.298087e-05
  1.132682e-01    9.052117e-05
  1.135671e-01    9.133632e-05
  1.138661e-01    9.189287e-05
  1.141650e-01    8.982031e-05
  1.144639e-01    8.834616e-05
  1.147629e-01    8.822127e-05
  1.150618e-01    9.020770e-05
  1.153607e-01    8.978697e-05
  1.156597e-01    8.967458e-05
  1.159586e-01    9.025193e-05
  1.162575e-01    8.878041e-05
  1.165564e-01    8.954031e-05
  1.168554e-01    9.129465e-05
  1.171543e-01    8.980000e-05
  1.174532e-01    8.773329e-05
  1.177522e-01    8.765900e-05
  1.180511e-01    8.701839e-05
  1.183500e-01    8.842786e-05
  1.186490e-01    8.956854e-05
  1.189479e-01    9.350529e-05
  1.192468e-01    9.806369e-05
  1.195458e-01    9.317408e-05
  1.198447e-01    9.814496e-05
  1.201436e-01    9.748833e-05
  1.204425e-01    9.236873e-05
  1.207415e-01    7.943806e-05
  1.210404e-01    8.172626e-05
  1.213393e-01    0.000000e+00
  1.216383e-01    0.000000e+00
  1.219372e-01    0.000000e+00
  1.222361e-01    0.000000e+00
  1.225351e-01    0.000000e+00
  1.228340e-01    0.000000e+00
  1.231329e-01    0.000000e+00
  1.234318e-01    0.000000e+00
  1.237308e-01    0.000000e+00
  1.240297e-01    0.000000e+00
  1.243286e-01    0.000000e+00
  1.246276e-01    0.000000e+00
  1.249265e-01    0.000000e+00
  1.252254e-01    0.000000e+00
  1.255244e-01    0.000000e+00
  1.258233e-01    0.000000e+00
  1.261222e-01    0.000000e+00
  1.264212e-01    0.000000e+00
  1.267201e-01    0.000000e+00
  1.270190e-01    0.000000e+00
  1.273179e-01    0.000000e+00
  1.276169e-01    0.000000e+00
  1.279158e-01    0.000000e+00
  1.282147e-01    0.000000e+00
  1.285137e-01    0.000000e+00
  1.288126e-01    0.000000e+00
  1.291115e-01    0.000000e+00
  1.294105e-01    0.000000e+00
  1.297094e-01    0.000000e+00
  1.300083e-01    0.000000e+00
  1.303072e-01    0.000000e+00
  1.306062e-01    0.000000e+00
  1.309051e-01    0.000000e+00
  1.312040e-01    0.000000e+00
  1.315030e-01    0.000000e+00
  1.318019e-01    0.000000e+00
  1.321008e-01    0.000000e+00
  1.323998e-01    0.000000e+00
  1.326987e-01    0.000000e+00
  1.329976e-01    0.000000e+00
  1.332965e-01    0.000000e+00
  1.335955e-01    0.000000e+00
  1.338944e-01    0.000000e+00
  1.341933e-01    0.000000e+00
  1.344923e-01    0.000000e+00
  1.347912e-01    0.000000e+00
  1.350901e-01    0.000000e+00
  1.353891e-01    0.000000e+00
  1.356880e-01    0.000000e+00
  1.359869e-01    0.000000e+00
  1.362859e-01    0.000000e+00
  1.365848e-01    0.000000e+00
  1.368837e-01    0.000000e+00
  1.371826e-01    0.000000e+00
  1.374816e-01    0.000000e+00
  1.377805e-01    0.000000e+00
  1.380794e-01    0.000000e+00
  1.383784e-01    0.000000e+00
  1.386773e-01    0.000000e+00
  1.389762e-01    0.000000e+00
  1.392752e-01    0.000000e+00
  1.395741e-01    0.000000e+00
  1.398730e-01    0.000000e+00
  1.401719e-01    0.000000e+00
  1.404709e-01    0.000000e+00
  1.407698e-01    0.000000e+00
  1.410687e-01    0.000000e+00
  1.413677e-01    0.000000e+00
  1.416666e-01    0.000000e+00
  1.419655e-01    0.000000e+00
  1.422645e-01    0.000000e+00
  1.425634e-01    0.000000e+00
  1.428623e-01    0.000000e+00
  1.431613e-01    0.000000e+00
  1.434602e-01    0.000000e+00
  1.437591e-01    0.000000e+00
  1.440580e-01    0.000000e+00
  1.443570e-01    0.000000e+00
  1.446559e-01    0.000000e+00
  1.449548e-01    0.000000e+00
  1.452538e-01    0.000000e+00
  1.455527e-01    0.000000e+00
  1.458516e-01    0.000000e+00
  1.461506e-01    0.000000e+00
  1.464495e-01    0.000000e+00
  1.467484e-01    0.000000e+00
  1.470473e-01    0.000000e+00
  1.473463e-01    0.000000e+00
  1.476452e-01    0.000000e+00
  1.479441e-01    0.000000e+00
  1.482431e-01    0.000000e+00
  1.485420e-01    0.000000e+00
  1.488409e-01    0.000000e+00
  1.491399e-01    0.000000e+00
  1.494388e-01    0.000000e+00
  1.497377e-01    0.000000e+00
  1.500367e-01    0.000000e+00
  1.503356e-01    0.000000e+00
  1.506345e-01    0.000000e+00
  1.509334e-01    0.000000e+00
  1.512324e-01    0.000000e+00
  1.515313e-01    0.000000e+00
  1.518302e-01    0.000000e+00
  1.521292e-01    0.000000e+00
  1.524281e-01    0.000000e+00
  1.527270e-01    0.000000e+00
  1.530260e-01    0.000000e+00
  1.533249e-01    0.000000e+00
  1.536238e-01    0.000000e+00
