# == pyFAI calibration ==
# Distance Sample to Detector: 2.266 m
# PONI: 5.659e-02, 4.293e-02 m
# Rotations: 0.000000 0.000000 0.000000 rad
# 
# == Fit2d calibration ==
# Distance Sample-beamCenter: 2266.000 mm
# Center: x=249.594, y=329.012 pix
# Tilt: 0.000 deg  TiltPlanRot: 0.000 deg
# 
# Detector Pilatus 300k	 PixelSize= 1.720e-04, 1.720e-04 m
#    Detector has a mask: True 
#    Detector has a dark current: False 
#    detector has a flat field: False 
# 
# Wavelength: 1.27818e-10 m
# Mask applied: user provided
# Dark current applied: False
# Flat field applied: False
# Polarization factor: None
# Normalization factor: 9418553.800000003
# --> test-sample_2_r1d.csv
#        q_A^-1             I 
  4.457554e-03    0.000000e+00
  4.756484e-03    0.000000e+00
  5.055415e-03    0.000000e+00
  5.354345e-03    0.000000e+00
  5.653276e-03    0.000000e+00
  5.952206e-03    0.000000e+00
  6.251136e-03    0.000000e+00
  6.550067e-03    0.000000e+00
  6.848997e-03    0.000000e+00
  7.147927e-03    0.000000e+00
  7.446858e-03    0.000000e+00
  7.745788e-03    0.000000e+00
  8.044719e-03    0.000000e+00
  8.343649e-03    0.000000e+00
  8.642579e-03    0.000000e+00
  8.941510e-03    0.000000e+00
  9.240440e-03    0.000000e+00
  9.539371e-03    0.000000e+00
  9.838301e-03    0.000000e+00
  1.013723e-02    0.000000e+00
  1.043616e-02    0.000000e+00
  1.073509e-02    0.000000e+00
  1.103402e-02    0.000000e+00
  1.133295e-02    0.000000e+00
  1.163188e-02    0.000000e+00
  1.193081e-02    0.000000e+00
  1.222974e-02    0.000000e+00
  1.252867e-02    0.000000e+00
  1.282760e-02    0.000000e+00
  1.312654e-02    0.000000e+00
  1.342547e-02    0.000000e+00
  1.372440e-02    0.000000e+00
  1.402333e-02    0.000000e+00
  1.432226e-02    0.000000e+00
  1.462119e-02    0.000000e+00
  1.492012e-02    0.000000e+00
  1.521905e-02    0.000000e+00
  1.551798e-02    0.000000e+00
  1.581691e-02    0.000000e+00
  1.611584e-02    0.000000e+00
  1.641477e-02    0.000000e+00
  1.671370e-02    0.000000e+00
  1.701263e-02    0.000000e+00
  1.731156e-02    0.000000e+00
  1.761049e-02    0.000000e+00
  1.790942e-02    0.000000e+00
  1.820835e-02    0.000000e+00
  1.850728e-02    0.000000e+00
  1.880621e-02    0.000000e+00
  1.910514e-02    0.000000e+00
  1.940407e-02    0.000000e+00
  1.970300e-02    0.000000e+00
  2.000193e-02    0.000000e+00
  2.030086e-02    0.000000e+00
  2.059979e-02    0.000000e+00
  2.089873e-02    0.000000e+00
  2.119766e-02    0.000000e+00
  2.149659e-02    0.000000e+00
  2.179552e-02    0.000000e+00
  2.209445e-02    0.000000e+00
  2.239338e-02    0.000000e+00
  2.269231e-02    0.000000e+00
  2.299124e-02    0.000000e+00
  2.329017e-02    0.000000e+00
  2.358910e-02    0.000000e+00
  2.388803e-02    0.000000e+00
  2.418696e-02    0.000000e+00
  2.448589e-02    0.000000e+00
  2.478482e-02    0.000000e+00
  2.508375e-02    0.000000e+00
  2.538268e-02    0.000000e+00
  2.568161e-02    0.000000e+00
  2.598054e-02    0.000000e+00
  2.627947e-02    0.000000e+00
  2.657840e-02    0.000000e+00
  2.687733e-02    0.000000e+00
  2.717626e-02    0.000000e+00
  2.747519e-02    0.000000e+00
  2.777412e-02    0.000000e+00
  2.807305e-02    0.000000e+00
  2.837198e-02    1.542518e-10
  2.867092e-02    1.307416e-10
  2.896985e-02    0.000000e+00
  2.926878e-02    0.000000e+00
  2.956771e-02    0.000000e+00
  2.986664e-02    0.000000e+00
  3.016557e-02    0.000000e+00
  3.046450e-02    0.000000e+00
  3.076343e-02    0.000000e+00
  3.106236e-02    0.000000e+00
  3.136129e-02    0.000000e+00
  3.166022e-02    0.000000e+00
  3.195915e-02    0.000000e+00
  3.225808e-02    0.000000e+00
  3.255701e-02    9.753516e-11
  3.285594e-02    1.627779e-10
  3.315487e-02    2.293983e-11
  3.345380e-02    0.000000e+00
  3.375273e-02    0.000000e+00
  3.405166e-02    0.000000e+00
  3.435059e-02    0.000000e+00
  3.464952e-02    0.000000e+00
  3.494845e-02    0.000000e+00
  3.524738e-02    0.000000e+00
  3.554631e-02    0.000000e+00
  3.584524e-02    0.000000e+00
  3.614417e-02    0.000000e+00
  3.644310e-02    0.000000e+00
  3.674204e-02    0.000000e+00
  3.704097e-02    0.000000e+00
  3.733990e-02    0.000000e+00
  3.763883e-02    0.000000e+00
  3.793776e-02    0.000000e+00
  3.823669e-02    0.000000e+00
  3.853562e-02    0.000000e+00
  3.883455e-02    0.000000e+00
  3.913348e-02    0.000000e+00
  3.943241e-02    1.316337e-10
  3.973134e-02    4.538008e-10
  4.003027e-02    6.633372e-10
  4.032920e-02    4.141587e-10
  4.062813e-02    1.069302e-10
  4.092706e-02    0.000000e+00
  4.122599e-02    0.000000e+00
  4.152492e-02    0.000000e+00
  4.182385e-02    0.000000e+00
  4.212278e-02    0.000000e+00
  4.242171e-02    0.000000e+00
  4.272064e-02    0.000000e+00
  4.301957e-02    0.000000e+00
  4.331850e-02    7.900973e-11
  4.361743e-02    3.436758e-10
  4.391636e-02    5.760371e-10
  4.421529e-02    2.210732e-10
  4.451423e-02    0.000000e+00
  4.481316e-02    0.000000e+00
  4.511209e-02    0.000000e+00
  4.541102e-02    0.000000e+00
  4.570995e-02    0.000000e+00
  4.600888e-02    0.000000e+00
  4.630781e-02    9.881391e-11
  4.660674e-02    1.109018e-10
  4.690567e-02    0.000000e+00
  4.720460e-02    0.000000e+00
  4.750353e-02    0.000000e+00
  4.780246e-02    0.000000e+00
  4.810139e-02    0.000000e+00
  4.840032e-02    0.000000e+00
  4.869925e-02    0.000000e+00
  4.899818e-02    0.000000e+00
  4.929711e-02    0.000000e+00
  4.959604e-02    0.000000e+00
  4.989497e-02    0.000000e+00
  5.019390e-02    0.000000e+00
  5.049283e-02    0.000000e+00
  5.079176e-02    0.000000e+00
  5.109069e-02    0.000000e+00
  5.138962e-02    0.000000e+00
  5.168855e-02    0.000000e+00
  5.198748e-02    0.000000e+00
  5.228642e-02    0.000000e+00
  5.258535e-02   -8.437361e-11
  5.288428e-02   -4.354316e-10
  5.318321e-02   -7.773105e-12
  5.348214e-02    0.000000e+00
  5.378107e-02    4.966973e-11
  5.408000e-02    2.172921e-10
  5.437893e-02    6.115523e-10
  5.467786e-02    1.084952e-09
  5.497679e-02    1.120708e-09
  5.527572e-02    9.128087e-10
  5.557465e-02    8.181789e-10
  5.587358e-02    7.335975e-10
  5.617251e-02    5.643226e-10
  5.647144e-02    2.753582e-10
  5.677037e-02    3.243283e-10
  5.706930e-02    4.055491e-10
  5.736823e-02    2.547835e-10
  5.766716e-02    1.197411e-10
  5.796609e-02    2.275843e-11
  5.826502e-02    0.000000e+00
  5.856395e-02    0.000000e+00
  5.886288e-02    9.468289e-11
  5.916181e-02    5.606195e-11
  5.946074e-02    0.000000e+00
  5.975967e-02    1.245459e-11
  6.005861e-02    1.140894e-10
  6.035754e-02   -1.343971e-11
  6.065647e-02   -1.751936e-10
  6.095540e-02   -8.144721e-11
  6.125433e-02    0.000000e+00
  6.155326e-02    0.000000e+00
  6.185219e-02    0.000000e+00
  6.215112e-02    1.256125e-10
  6.245005e-02    4.272597e-10
  6.274898e-02    8.788922e-10
  6.304791e-02    1.073167e-09
  6.334684e-02    1.047545e-09
  6.364577e-02    1.328558e-09
  6.394470e-02    1.270438e-09
  6.424363e-02    1.025530e-09
  6.454256e-02    3.983948e-10
  6.484149e-02    0.000000e+00
  6.514042e-02    0.000000e+00
  6.543935e-02    0.000000e+00
  6.573828e-02    0.000000e+00
  6.603721e-02    0.000000e+00
  6.633614e-02    0.000000e+00
  6.663507e-02    0.000000e+00
  6.693400e-02    0.000000e+00
  6.723293e-02    0.000000e+00
  6.753186e-02    0.000000e+00
  6.783080e-02    0.000000e+00
  6.812973e-02    0.000000e+00
  6.842866e-02    0.000000e+00
  6.872759e-02    0.000000e+00
  6.902652e-02    0.000000e+00
  6.932545e-02    4.898176e-11
  6.962438e-02    8.109834e-11
  6.992331e-02    7.060156e-11
  7.022224e-02    1.087890e-10
  7.052117e-02    8.363409e-11
  7.082010e-02    0.000000e+00
  7.111903e-02   -1.624790e-11
  7.141796e-02   -1.517811e-10
  7.171689e-02   -9.738219e-11
  7.201582e-02    0.000000e+00
  7.231475e-02    0.000000e+00
  7.261368e-02    0.000000e+00
  7.291261e-02   -7.856581e-11
  7.321154e-02    1.561023e-10
  7.351047e-02    3.010606e-10
  7.380940e-02    3.077866e-10
  7.410833e-02    5.265378e-10
  7.440726e-02    6.959149e-10
  7.470619e-02    6.722704e-10
  7.500512e-02    5.502878e-10
  7.530405e-02    3.454745e-10
  7.560299e-02    8.869824e-11
  7.590192e-02    0.000000e+00
  7.620085e-02    0.000000e+00
  7.649978e-02    0.000000e+00
  7.679871e-02    0.000000e+00
  7.709764e-02    0.000000e+00
  7.739657e-02    0.000000e+00
  7.769550e-02    0.000000e+00
  7.799443e-02    4.683982e-11
  7.829336e-02    2.007674e-10
  7.859229e-02    4.347875e-10
  7.889122e-02    4.904908e-10
  7.919015e-02    3.178721e-10
  7.948908e-02    3.343839e-10
  7.978801e-02    2.395398e-10
  8.008694e-02    7.812875e-11
  8.038587e-02    1.148970e-11
  8.068480e-02    7.175616e-11
  8.098373e-02    4.053946e-11
  8.128266e-02    0.000000e+00
  8.158159e-02    0.000000e+00
  8.188052e-02    0.000000e+00
  8.217945e-02    0.000000e+00
  8.247838e-02    0.000000e+00
  8.277731e-02    0.000000e+00
  8.307624e-02    0.000000e+00
  8.337518e-02    0.000000e+00
  8.367411e-02    0.000000e+00
  8.397304e-02    0.000000e+00
  8.427197e-02    0.000000e+00
  8.457090e-02    0.000000e+00
  8.486983e-02    8.798042e-13
  8.516876e-02    6.680941e-11
  8.546769e-02    1.503059e-10
  8.576662e-02    3.155848e-10
  8.606555e-02    3.593166e-10
  8.636448e-02    2.910333e-10
  8.666341e-02    3.252904e-10
  8.696234e-02    3.238978e-10
  8.726127e-02    5.638984e-10
  8.756020e-02    7.507884e-10
  8.785913e-02    1.217590e-09
  8.815806e-02    1.768813e-09
  8.845699e-02    2.159087e-09
  8.875592e-02    2.092972e-09
  8.905485e-02    1.895468e-09
  8.935378e-02    1.543729e-09
  8.965271e-02    6.777919e-10
  8.995164e-02    4.763153e-10
  9.025057e-02    4.147984e-10
  9.054950e-02    2.774191e-10
  9.084843e-02    1.512145e-10
  9.114737e-02    9.738546e-11
  9.144630e-02    3.056286e-11
  9.174523e-02    0.000000e+00
  9.204416e-02    0.000000e+00
  9.234309e-02    2.565907e-11
  9.264202e-02    5.238039e-11
  9.294095e-02   -1.276457e-10
  9.323988e-02   -6.855753e-11
  9.353881e-02    0.000000e+00
  9.383774e-02    0.000000e+00
  9.413667e-02    7.589063e-11
  9.443560e-02    2.562832e-10
  9.473453e-02    4.196427e-10
  9.503346e-02    4.038911e-10
  9.533239e-02    2.072589e-10
  9.563132e-02    3.703475e-11
  9.593025e-02    0.000000e+00
  9.622918e-02    0.000000e+00
  9.652811e-02    9.091004e-11
  9.682704e-02    1.862505e-10
  9.712597e-02    1.077431e-10
  9.742490e-02    1.284984e-10
  9.772383e-02    2.864355e-10
  9.802276e-02    3.345575e-10
  9.832169e-02    1.692765e-10
  9.862062e-02    3.103408e-11
  9.891956e-02    9.474312e-11
  9.921849e-02    6.895726e-11
  9.951742e-02    8.082082e-11
  9.981635e-02    3.841111e-11
  1.001153e-01    2.177820e-10
  1.004142e-01    3.930991e-10
  1.007131e-01    1.242749e-10
  1.010121e-01   -1.462813e-10
  1.013110e-01   -3.114895e-11
  1.016099e-01    0.000000e+00
  1.019089e-01   -8.748430e-11
  1.022078e-01   -1.713978e-10
  1.025067e-01    1.354788e-10
  1.028057e-01    3.897335e-10
  1.031046e-01    4.060450e-10
  1.034035e-01    3.286969e-10
  1.037024e-01    1.902490e-10
  1.040014e-01    1.557829e-10
  1.043003e-01    1.559269e-10
  1.045992e-01    7.051971e-11
  1.048982e-01    0.000000e+00
  1.051971e-01   -7.000884e-11
  1.054960e-01   -2.799972e-10
  1.057950e-01   -1.437401e-10
  1.060939e-01    0.000000e+00
  1.063928e-01    0.000000e+00
  1.066917e-01    0.000000e+00
  1.069907e-01    0.000000e+00
  1.072896e-01    0.000000e+00
  1.075885e-01    0.000000e+00
  1.078875e-01    0.000000e+00
  1.081864e-01    0.000000e+00
  1.084853e-01    0.000000e+00
  1.087843e-01    0.000000e+00
  1.090832e-01    6.711148e-11
  1.093821e-01    2.117303e-10
  1.096810e-01    1.661202e-10
  1.099800e-01    8.936435e-11
  1.102789e-01    1.808398e-10
  1.105778e-01    4.109665e-11
  1.108768e-01    0.000000e+00
  1.111757e-01   -1.064100e-10
  1.114746e-01   -2.301114e-10
  1.117736e-01   -4.422104e-11
  1.120725e-01    0.000000e+00
  1.123714e-01    0.000000e+00
  1.126704e-01    0.000000e+00
  1.129693e-01    0.000000e+00
  1.132682e-01    0.000000e+00
  1.135671e-01    0.000000e+00
  1.138661e-01    0.000000e+00
  1.141650e-01    0.000000e+00
  1.144639e-01    0.000000e+00
  1.147629e-01    0.000000e+00
  1.150618e-01    0.000000e+00
  1.153607e-01    0.000000e+00
  1.156597e-01    0.000000e+00
  1.159586e-01    1.143367e-10
  1.162575e-01    7.688076e-10
  1.165564e-01    5.385761e-10
  1.168554e-01    3.626116e-10
  1.171543e-01    2.273281e-10
  1.174532e-01    0.000000e+00
  1.177522e-01    0.000000e+00
  1.180511e-01    0.000000e+00
  1.183500e-01    0.000000e+00
  1.186490e-01    0.000000e+00
  1.189479e-01    0.000000e+00
  1.192468e-01    0.000000e+00
  1.195458e-01    0.000000e+00
  1.198447e-01    0.000000e+00
  1.201436e-01    0.000000e+00
  1.204425e-01    0.000000e+00
  1.207415e-01    0.000000e+00
  1.210404e-01    0.000000e+00
  1.213393e-01    0.000000e+00
  1.216383e-01    0.000000e+00
  1.219372e-01    0.000000e+00
  1.222361e-01    0.000000e+00
  1.225351e-01    0.000000e+00
  1.228340e-01    0.000000e+00
  1.231329e-01    0.000000e+00
  1.234318e-01    0.000000e+00
  1.237308e-01    0.000000e+00
  1.240297e-01    0.000000e+00
  1.243286e-01    0.000000e+00
  1.246276e-01    0.000000e+00
  1.249265e-01    0.000000e+00
  1.252254e-01    0.000000e+00
  1.255244e-01    0.000000e+00
  1.258233e-01    0.000000e+00
  1.261222e-01    0.000000e+00
  1.264212e-01    0.000000e+00
  1.267201e-01    0.000000e+00
  1.270190e-01    0.000000e+00
  1.273179e-01    0.000000e+00
  1.276169e-01    0.000000e+00
  1.279158e-01    0.000000e+00
  1.282147e-01    0.000000e+00
  1.285137e-01    0.000000e+00
  1.288126e-01    0.000000e+00
  1.291115e-01    0.000000e+00
  1.294105e-01    0.000000e+00
  1.297094e-01    0.000000e+00
  1.300083e-01    0.000000e+00
  1.303072e-01    0.000000e+00
  1.306062e-01    0.000000e+00
  1.309051e-01    0.000000e+00
  1.312040e-01    0.000000e+00
  1.315030e-01    0.000000e+00
  1.318019e-01    0.000000e+00
  1.321008e-01    0.000000e+00
  1.323998e-01    0.000000e+00
  1.326987e-01    0.000000e+00
  1.329976e-01    0.000000e+00
  1.332965e-01    0.000000e+00
  1.335955e-01    0.000000e+00
  1.338944e-01    0.000000e+00
  1.341933e-01    0.000000e+00
  1.344923e-01    0.000000e+00
  1.347912e-01    0.000000e+00
  1.350901e-01    0.000000e+00
  1.353891e-01    0.000000e+00
  1.356880e-01    0.000000e+00
  1.359869e-01    0.000000e+00
  1.362859e-01    0.000000e+00
  1.365848e-01    0.000000e+00
  1.368837e-01    0.000000e+00
  1.371826e-01    0.000000e+00
  1.374816e-01    0.000000e+00
  1.377805e-01    0.000000e+00
  1.380794e-01    0.000000e+00
  1.383784e-01    0.000000e+00
  1.386773e-01    0.000000e+00
  1.389762e-01    0.000000e+00
  1.392752e-01    0.000000e+00
  1.395741e-01    0.000000e+00
  1.398730e-01    0.000000e+00
  1.401719e-01    0.000000e+00
  1.404709e-01    0.000000e+00
  1.407698e-01    0.000000e+00
  1.410687e-01    0.000000e+00
  1.413677e-01    0.000000e+00
  1.416666e-01    0.000000e+00
  1.419655e-01    0.000000e+00
  1.422645e-01    0.000000e+00
  1.425634e-01    0.000000e+00
  1.428623e-01    0.000000e+00
  1.431613e-01    0.000000e+00
  1.434602e-01    0.000000e+00
  1.437591e-01    0.000000e+00
  1.440580e-01    0.000000e+00
  1.443570e-01    0.000000e+00
  1.446559e-01    0.000000e+00
  1.449548e-01    0.000000e+00
  1.452538e-01    0.000000e+00
  1.455527e-01    0.000000e+00
  1.458516e-01    0.000000e+00
  1.461506e-01    0.000000e+00
  1.464495e-01    0.000000e+00
  1.467484e-01    0.000000e+00
  1.470473e-01    0.000000e+00
  1.473463e-01    0.000000e+00
  1.476452e-01    0.000000e+00
  1.479441e-01    0.000000e+00
  1.482431e-01    0.000000e+00
  1.485420e-01    0.000000e+00
  1.488409e-01    0.000000e+00
  1.491399e-01    0.000000e+00
  1.494388e-01    0.000000e+00
  1.497377e-01    0.000000e+00
  1.500367e-01    0.000000e+00
  1.503356e-01    0.000000e+00
  1.506345e-01    0.000000e+00
  1.509334e-01    0.000000e+00
  1.512324e-01    0.000000e+00
  1.515313e-01    0.000000e+00
  1.518302e-01    0.000000e+00
  1.521292e-01    0.000000e+00
  1.524281e-01    0.000000e+00
  1.527270e-01    0.000000e+00
  1.530260e-01    0.000000e+00
  1.533249e-01    0.000000e+00
  1.536238e-01    0.000000e+00
